0.26087677987851765,0.1270759155533526,0.0027699406156125035,-0.09032937459246655,-0.14104926777114243,-0.1518557911382992,-0.14103807656937678,-0.1308393196976499,-0.13113489743435114,-0.13815702049394085,-0.14062287447378555,-0.1290170322538432,-0.09852681859057909,-0.04266649405287561,0.05429589562658977,0.21188098433451935,0.32880227843054227,0.29334823135407984,0.25443859695867,0.25085204554107277,0.284044030836389,0.3579354993863817,0.4410950775385439,0.4673639067617832,0.449046953560105,0.4175130618831841,0.3799790199019436,0.339888319163068,0.305388587192831,0.2985036647438233,0.34128249444970504,0.3309085378843078,0.21747838823874047,0.15474720357763377,0.12897720537216448,0.12228329382975613,0.12837790474708502,0.14800269731880053,0.18974358687158144,0.21990523626220995,0.12150351610720411,0.05369845025031109,0.026241703893242894,0.004150767770984026,-0.01537053633994909,-0.03292049034878406,-0.0479693491867896,-0.06414559470534494,-0.09212104381960418,-0.13057323008848426,-0.18277599111187964,-0.21846292547455595,-0.13227017320089657,-0.014004738156416837,0.08227586745864292,0.19301016495048778,0.3129700425878273,0.34888507741796393,0.3335298482135278,0.31509381939946407,0.2917216677782567,0.24453157092024264,0.17531380128308688,0.12822738495227196,0.10818944775350496,0.10727206204207693,0.11928181544853747,0.13611764868846304,0.1472551167015147,0.13835950728127552,0.09184775012298632,0.0037240482761708186,-0.10113231065407353,-0.18466712074738725,-0.22603381401194458,-0.22644372852645658,-0.19607714463938597,-0.14352576087778263,-0.06670769854359236,0.13735554400434405,0.07757855281313418,0.03866518382619796,0.016868101584299737,-0.001781219897832214,-0.012767903855950767,-0.014228280433978294,-0.009472494166568677,0.01990718681829056,0.16924007587553702,0.1758423722764816,0.16256319431495417,0.16503589784763056,0.16472568236517532,0.14852290057408102,0.11247984438077874,0.05606410239991386,-0.015963479994111254,-0.09856790381973934,-0.19118812153309866,-0.2993574046420448,-0.43106422373535974,-0.5809984264318925,-0.6659208612487831,-0.619233605152725,-0.5635160607671115,-0.5494365088154778,-0.5326887900952433,-0.45003774129480056,-0.3210804748484377,-0.20913696752862698,-0.13145811417772935,-0.08015936180622182,-0.040912257728754724,0.013011139981522944,0.1618821534698016,0.28203234005100164,0.23887097618315012,0.22321266188291314,0.2231202551779287,0.22938539316965045,0.2395002774814691,0.2592010747253241,0.3073127955150734,0.41891382307126823,0.5489659368367921,0.4503514909041025,0.32035842042373824,0.2389289527554417,0.16960606425833522,0.09201783342971684,0.026676318257243904,-0.014430378553061883,-0.051282181487506774,-0.11894537879474242,-0.24409693152308132,-0.4124539476416021,-0.57210081309436,-0.6655678601148121,-0.6181021789671826,-0.3739716768998853,-0.10078344508214349,0.060694801731846375,0.14125250880866033,0.18952292392683084,0.23712951323881204,0.31612408843173584,0.4723409848046808,0.6282907188879908,0.4547291821653315,0.2667048120636916,0.14267597150985628,0.06436542721229807,0.025926852660106924,0.020692145944067954,0.03383343886017765,0.03891073968058935,0.00035911543518752373,-0.0857093386226365,-0.16856799868112643,-0.20807261494355653,-0.20836556739938164,-0.184950277894856,-0.14375409912879716,0.11224326286061091,0.10200710163351627,0.10195897725000244,0.09344187092020045,0.06137268563177546,0.02577527649813258,0.006149729821104988,0.011271576651203723,0.036952986359526194,0.14836563297174496,0.5893359326560751,0.6306789213577807,0.591218709750636,0.6520805047154912,0.7015707285496956,0.6649902869830091,0.5869223199346699,0.5041896074496885,0.4059133478643811,0.26592062054080123,0.07089510012754753,-0.1244627823656244,-0.22698459097374515,-0.2130686941670233,-0.1101629712263672,0.035773885614332375,0.18030860172624197,0.3016528891757078,0.39594527670224994,0.45391123311400755,0.4608016445879647,0.4119314748885427,0.3228750760248301,0.2123956100456513,0.08457808690126756,-0.05296855060113497,-0.1792713289044488,-0.2739094239359632,-0.3280017416243196,-0.34364469392055513,-0.33038566366462535,-0.30263950997799033,-0.27332240836920596,-0.2449925439910448,-0.20501891424922114,-0.14285926625367126,-0.07155838506222802,-0.013399428000291966,0.022812240473157,0.04145434904433524,0.053021855682656674,0.06583776951807796,0.07568828833182487,0.08190524954657884,0.08686166702012327,0.08850455639734017,0.08304587730842955,0.07205348509754898,0.06005487128562366,0.052791744169904356,0.05738492750939359,0.08038673335221225,0.12482317369722863,0.17847479824155316,0.21031029765793688,0.1958322617538777,0.15019205372837147,0.11097653577666594,0.10262411764525749,0.09003156544963643,0.07538206096634503,0.06656803359194076,0.100409231913913,0.057056917842378735,0.010875837269966313,-0.007736101760660519,-0.025073694438417848,-0.04113852189194566,-0.0533800011136714,-0.058730655480916535,-0.05342906346226618,-0.03582756343107643,-0.013496142313818387,-0.007570734023778018,-0.040869362163666774,-0.11354303818606366,-0.19852907140625217,-0.2661218205549798,-0.3057063580978715,-0.41895405394481183,-0.5847281104969195,-0.642083491238833,-0.5572533230962741,-0.46701493933203336,-0.3983260315634301,-0.3385428773238547,-0.2808272347677305,-0.22728806392544773,-0.18157643322239322,-0.14924686945308938,-0.14029427111135429,-0.15725183571750734,-0.17980004341422334,-0.1729852025353525,-0.11851799769447889,-0.03030552465643355,0.06313089459669241,0.13831452277293455,0.18239993575815125,0.19188119957707436,0.177857576253109,0.15530413018351957,0.1329916566917159,0.11353150206868784,0.09741175449724299,0.08504570191517359,0.08062394814847948,0.09430500154350141,0.132122027899782,0.17586870388567746,0.21253437973858344,0.2505473511687606,0.2723994451849593,0.25820518207536997,0.22846401893942286,0.20287513367986007,0.18478375702942043,0.17381390912001515,0.16633070918853615,0.15438177474885006,0.13372531350694214,0.11121173251841379,0.09396538055874354,0.07654360439967783,0.04284596236607911,-0.025843956447454994,-0.13517287285113028,-0.26020736299791924,-0.35449909212871683,-0.3782851086557014,-0.31184728784845095,-0.18182225556516768,-0.04911052821374206,0.05704450611539805,0.1354425038106605,0.19406510428270662,0.24254029687668346,0.2882510864480973,0.3329003430688904,0.37484482933103647,0.4089805793222562,0.42340830918497857,0.4002467245610062,0.34457968787891236,0.2924652081303684,0.2698898032234757,0.2794266093793716,0.30605500009220515,0.3264558562344334,0.33048265077858435,0.32330812888728744,0.327890184418817,0.4042702059780864,0.15666716799607383,0.03216544440795245,0.008796386582086035,0.007750370155257946,0.016079070350566136,0.02593264223778818,0.030278266122863804,0.025350796384930204,0.01204157443826921,-0.00593496438815215,-0.025310418949009175,-0.0500308170754209,-0.07886979278992927,-0.10231179710921598,-0.08342603181307379,-0.048129556843564986,-0.034645815277412444,-0.03659878000974873,-0.043833480413622374,-0.05897363204501455,-0.0939733132163812,-0.1646800803894586,-0.2715703546843344,-0.39424448300571696,-0.5024858938147612,-0.5638094708043602,-0.5459214487951196,-0.4333343298060081,-0.28111365369062147,-0.17994020457094034,-0.14224765561215996,-0.14533000900439347,-0.1751737070279058,-0.21978107412671347,-0.26770025810615683,-0.30221948631143236,-0.298601418474842,-0.24387875484771562,-0.16319923050471882,-0.10200427711058581,-0.08071194168909392,-0.09570978425537333,-0.13211776927516292,-0.16908489714200547,-0.18603957208898242,-0.17401844917899809,-0.13377569643478898,-0.07846667001898393,-0.026727145153272805,0.003530414909031409,0.0010079453485743177,-0.02870075311378175,-0.06524856781466312,-0.09184592892197335,-0.09725357834539385,-0.0771268787940926,-0.042366614783068586,-0.017587956291449002,-0.020616052949707486,-0.04807426389154693,-0.0892071909223171,-0.12733012267030863,-0.13274426236322517,-0.01390827648910273,0.3359864436887116,0.33069859107543503,0.26815886467350875,0.2158727863367941,0.18452991833476529,0.17286706952235115,0.17448877722956038,0.18563154858917497,0.20572031874097166,0.23449210366811807,0.2532851057478975,0.20583152394313992,0.12664713693910637,0.08146835591959212,0.06497104830667538,0.065437761227822,0.0807564632425028,0.11784644921485253,0.21371456681964482,0.5316047451921926,0.40016019406449516,0.2969215945513042,0.3583656417202795,0.28195304358606554,0.23289533425404776,0.25887245050449903,0.34010414254198357,0.45040591760874726,0.4670024194768854,0.37241294899070226,0.2985040775478336,0.3004301411612344,0.29481592412546526,0.20072316321138692,0.14799944226863246,0.11573410277658785,0.08834752669971922,0.06137523230018731,0.03216914417349651,-0.0029015663364406075,-0.03279128592122683,-0.05527850877026627,-0.0853116598831355,-0.2010094396289189,-0.1009913253774415,-0.05158762851132678,-0.0688752701647747,-0.09168334769516069,-0.10822534763004187,-0.10862826303265272,-0.10332542398156472,-0.1586916727658787,-0.3761116112773495,-0.5721385346946398,-0.7290677783883325,-0.7630588794223624,-0.7213170482548202,-0.664995621667286,-0.6017000817537376,-0.5311973614050643,-0.4561878760890497,-0.3794704940918517,-0.2963913748942957,-0.1805116017957286,0.09968127557800377,0.4079104524432182,0.36857974403636085,0.33262040328776826,0.3148571002009068,0.3093729019437725,0.31351685959376985,0.32085216667854133,0.32461328501456843,0.3203366350510784,0.3073161033055168,0.28497703991315326,0.253118751095654,0.21209126628548586,0.1615396501814334,0.10696349917074816,0.06390465954000733,0.050665080649906644,0.07161658687797437,0.11403862707238063,0.16091399785914634,0.20333407531820002,0.2406279577754069,0.2777149748475253,0.32312221489188214,0.39084369713789757,0.4749584131873236,0.4965214869149524,0.4469171430890305,0.4022771092175681,0.38119160617723286,0.38432851833124987,0.4165246871039306,0.4372710126193296,0.348509771616562,0.2566106167826158,0.19948574480570594,0.1644658374446455,0.1513330836657972,0.1480607795811509,0.13140405438237757,0.08480302398312749,0.003678428538919156,-0.10205673660127206,-0.20239189862553197,-0.2602226458477606,-0.2523299905903708,-0.1752097042060495,-0.03843374699045487,0.11932150727873067,0.20040768146566937,0.1601950162946803,0.07319098449976183,-0.0047214351992912905,-0.06315825092869558,-0.10554273056009622,-0.1344513543102118,-0.14009456399131479,-0.1073871434070544,-0.04643869537076447,0.009577688991392153,0.04281215640440901,0.052806348517415086,0.043104680032553,0.013617422445706037,-0.04315795275804839,-0.1332803104469137,-0.25184845450096677,-0.3471575889434802,-0.30819951371916743,-0.15780599916797786,-0.04007616985251529,0.016377123884677103,0.042564883816298034,0.06381945993040443,0.09023181755098765,0.09772884994671951,0.0850968922833976,0.06272652275753907,0.01808873176807622,-0.06209245375860523,-0.1679447996642668,-0.25567556549081655,-0.2934941548303233,-0.2961023522988671,-0.29470313950049665,-0.30845375205370884,-0.3436491842998174,-0.3922101765757893,-0.428267475376013,-0.43006290621620596,-0.42877808584919624,-0.4681254902534666,-0.5688560591890608,-0.6426154906881708,-0.6350671570757708,-0.5788846018728779,-0.5141897720618552,-0.4469696978578874,-0.3234945426716813,-0.029209302642276145,0.16392638787913086,0.19712231924222418,0.18788419857129968,0.17044829490457156,0.15206825600371357,0.1337531266910724,0.11748531827546509,0.10751592025595816,0.10618046088021635,0.11097369638595153,0.11501212456317929,0.11304931029527318,0.10440124594064706,0.09187492238333597,0.0793045085447889,0.06985843340995819,0.06893600646387817,0.0956309019288785,0.009568437632923183,-0.01135943236711339,-0.03184138895417358,-0.059818035855033626,-0.09598653759221125,-0.13521772471092394,-0.16523884260148974,-0.17590558414349347,-0.16431161735931776,-0.13572205489004988,-0.09950191939106053,-0.0698008170032141,-0.051096274810337065,-0.047145784803395305,-0.0640137421366739,-0.10177066207607083,-0.1427839928627365,-0.1554572693465482,-0.11832117651918762,-0.02854523137740239,0.1115812737801244,0.28009076699483954,0.35823149324427395,0.29904963931927225,0.23381159168261442,0.203861364033285,0.20339424119775038,0.21536364594780302,0.21743216593515102,0.20398164802105054,0.18528658384810184,0.17254571011467917,0.17117738287600745,0.18010372863588348,0.19188636772749032,0.19440777230093992,0.17546003834766624,0.13315746538416703,0.08023199343187792,0.037201543575014165,0.01643899246466553,0.01717062336236639,0.030872791545108712,0.04920777757626175,0.066530724127601,0.07993256117327673,0.0880985913454168,0.09229829672310777,0.09428058731992553,0.09489546962825762,0.09515186185549573,0.09310601188201369,0.0816792919750458,0.05154961710512772,0.01288175585392081,-0.0109855338077045,-0.009349636835466007,0.01735937030679827,0.05970433909900549,0.10592417490935395,0.1378612788559214,0.14543324086455026,0.13316383456099537,0.10576904676469394,0.06673942396768559,0.023066058389815,-0.014916545517040442,-0.03757021872588812,-0.04123443447157155,-0.035499994075067556,-0.03896189312605455,-0.0696971176083641,-0.14025814606109235,-0.2404163305277035,-0.3370757346442708,-0.4294907423355007,-0.5439809120850551,-0.6890087365522009,-0.8218779146010438,-0.8886081046519932,-0.8987897166426071,-0.8817250978336316,-0.84540438203261,-0.7845514902604159,-0.695551379951428,-0.5689494863278384,-0.37967606257745484,-0.1172806482924657,0.13693590684281642,0.2981132216977245,0.3774367570418705,0.4076672721324835,0.411060457397501,0.4046754611806592,0.4045606093220423,0.4231721941206159,0.4554733429792985,0.47036943747095,0.4391922210362128,0.3863513991308673,0.34895505073490524,0.33970935003834957,0.3513076972687084,0.3697824560889914,0.37551058350477984,0.35245032929226194,0.30214459486416495,0.2437346684362092,0.19314664904591705,0.1557656174051121,0.13071565883794015,0.11669311897267667,0.11402303664621546,0.12208474090028673,0.14139371480723914,0.17804785644774496,0.2645639564007161,0.3496279273299834,0.12037660930471496,0.03902406215056222,0.00489854646187841,-0.018523425686831664,-0.03925168720263313,-0.05559675063524258,-0.06608302360119425,-0.0696389061331724,-0.06677601727377214,-0.05932326370014212,-0.04991075035201074,-0.04564139499592292,-0.052071793958433386,-0.0741486551131129,-0.11549678064604657,-0.16002408690661973,-0.16647618049083895,-0.11666262527983644,-0.02494802864428085,0.08955825359426296,0.19664182551385595,0.27442240286134456,0.32147735232418206,0.3467661879254347,0.3585175666297052,0.36164984889743046,0.3615726071649493,0.3589301577111707,0.3496560238649583,0.3325234076000733,0.3117675141617219,0.29133963299046756,0.2856655086726707,0.31344727577171155,0.39075145938911915,0.500734006232763,0.5366999629287381,0.4558441103991515,0.34555997888126094,0.24992045972653437,0.17426961590360238,0.11428189299338337,0.06853206756434228,0.03703785402696027,0.016988998690684372,0.0027631328417428804,-0.010852388170519001,-0.02825621440208126,-0.052484005575577246,-0.0831232649530716,-0.11526622075287934,-0.14108490583993155,-0.1542163867943696,-0.15431896079396162,-0.14789183180454155,-0.14658087307629117,-0.16794084713178353,-0.2607102852201849,-0.6141533171794978,-0.444472000324942,-0.26034870847574715,-0.21845052207180518,-0.19961689682977268,-0.15497959651043483,-0.09606880400928186,-0.038131545365369154,0.005014101986577429,0.060240488387990315,0.09839027972050068,0.01476823384192308,-0.006314524729074611,-0.01868280279817241,-0.01785609068555191,-0.004868726673638106,0.01879540297604513,0.09728737064702614,0.03781667202738589,0.029839721623363742,0.018578015686211112,0.0077886207380104475,0.002766628248287716,0.004148941987947245,0.010968635461880111,0.02073305344028604,0.03465920961240488,0.06260062207441619,0.08106189501473135,0.05317768645114044,-0.02520630278968897,-0.14463115521742187,-0.2830235586448349,-0.35926434559421283,-0.3283159323032892,-0.2535642653657163,-0.17740874892721914,-0.1093291167944545,-0.05202220389578354,-0.00818750676969685,0.020426971046479746,0.03472912181517821,0.03882034679611697,0.03797214446940408,0.035289229707841034,0.03265662882985821,0.031386929425112314,0.0320319839580853,0.03302884043109677,0.026458333185992344,0.00930823130539235,-0.008420691856012135,-0.016049044626125122,-0.008066997689823682,0.010932456154387319,0.03355645493197234,0.055983656611541775,0.0757323142447847,0.09217568777338214,0.10780289044186747,0.12588866938457355,0.15020146498111042,0.1831834353468961,0.22669319541992056,0.27888757773487527,0.3353810742513037,0.379059300924668,0.3965701411302502,0.39318961793697893,0.3874050103139337,0.39080414945777187,0.40682469648417247,0.437616277792774,0.46833131158771113,0.48360629162367336,0.4881587433139973,0.49370912934063826,0.501975737596434,0.5113071170677304,0.5336394737639826,0.5895453396617641,0.6756809998546708,0.7276405709454644,0.7042887947304703,0.6669586536009293,0.6427413208913854,0.6113186926773105,0.5400010271972324,0.3976757477645389,0.15750166813943248,-0.14778965772462116,-0.39677179898448145,-0.5330414151582492,-0.5856731476953689,-0.5705437959072154,-0.47105887477834635,-0.30347138622491243,-0.1769157502860963,-0.15854684644641348,-0.2311150004094285,-0.34626072618483345,-0.40499755520466235,-0.40453852961188147,-0.4132805302780297,-0.43062791447907306,-0.4448248221070595,-0.4601184758146033,-0.4882462932466193,-0.5460171565782267,-0.6566268515786022,-0.7598483191981386,-0.6553906213981079,-0.4862933566484028,-0.35651072999631767,-0.2507967950863635,-0.15905478672235715,-0.08471573708933434,-0.034080930453149604,-0.001721332451390219,0.02565318392678912,0.06381256565190707,0.13587928621331288,0.2788921388866439,0.48330046847723274,0.5695693725112735,0.4444307176714962,-0.03838274652694767,-0.6596805074055744,-0.7934743562367167,-0.7848919190741013,-0.7498948826641934,-0.7240730616022528,-0.7274424960796324,-0.5859284529551082,-0.17750889381339124,0.008509946767250275,0.08730471188829184,0.1358615133452884,0.18026950621590773,0.23660194746042632,0.3418697277707431,0.564190674004131,0.1630688552307592,0.023572274360794142,-0.024455123435971577,-0.04643022756801821,-0.05943461681748999,-0.06927615448361095,-0.07539838333031218,-0.07315198525078943,-0.06002588980926847,-0.040325830281652875,-0.021233660743450632,0.002259805897286846,0.029805565820747566,0.06355691932752697,0.12709360792370025,0.2587202076236916,0.528554842311272,0.566785309073162,0.4154256444540123,0.3446433400736917,0.3297103295213217,0.3540242473624784,0.4023175632001243,0.43163081485735116,0.39409378461971606,0.3105135172847453,0.2395285848371472,0.19640644915218458,0.17140333772059227,0.15247777551171743,0.13209313222277494,0.10626484290538683,0.07629158273433512,0.04856860315816038,0.029038222340963128,0.024309954296824303,0.041828265276692964,0.08603672788894713,0.14760394606098834,0.2013901048380945,0.2226378984564125,0.1866764182028065,0.06547572740368669,-0.02448534537686527,-0.002040592135343941,0.1839868231903231,0.6754766911259611,0.4730605403334005,0.3500086363166054,0.28807261045378163,0.2495645751142908,0.22341575705558198,0.2050741098244209,0.1909133725464461,0.17771222734238354,0.16068045629275488,0.1355768834927165,0.09884962837612532,0.05140040805464641,0.0012153289986401709,-0.05133195551567831,-0.12129882253491735,-0.24840285099628537,-0.49004787102983316,-0.6692414924918372,-0.7061855003719848,-0.7765075186034219,-0.8560099423016316,-0.9012358990627535,-0.920704684078683,-0.9073731603034291,-0.8386221194923045,-0.7220099417112933,-0.5846951734651527,-0.44409963122516255,-0.3119955437951626,-0.1991502598391464,-0.10312124723835692,-0.0033551457948785787,0.12197596959860052,0.1363070140217131,0.039638946575330604,-0.06176032877840708,-0.15194039849169225,-0.21277681418097716,-0.229195127823134,-0.1952682538493805,-0.10684786313824622,0.04300874847300027,0.14542596072572406,0.1369396845107875,0.10679145230360272,0.08292099858361424,0.07436424079444691,0.09825778839701155,0.2002827070223773,0.37689193238516183,0.4629726412063738,0.5002642431037118,0.5204178867784643,0.5276417619591509,0.5244488258233134,0.509937727955772,0.4687547182556317,0.3849211422394103,0.27875981525647325,0.18982895239624198,0.1377862770594615,0.1123041089470327,0.09521025526985823,0.08126836214614312,0.06903049272762034,0.061512254467666054,0.05860124069474078,0.05858943280591188,0.06028152192369803,0.06395552960103695,0.07083230541568826,0.08208659167946793,0.100712610815167,0.12746450326596273,0.1604400850183364,0.19962941084921754,0.24105590402653945,0.2563060585239642,0.21118940575961512,0.12915830772902936,0.04890428287738262,-0.014666044165126395,-0.06100142815377496,-0.09049126211318563,-0.1032082941929339,-0.09252718842742155,-0.0603132937567003,-0.023266756122740324,-0.0007112487597039504,0.004173645276815191,-0.004120813958381248,-0.019309979864157892,-0.03393710385209256,-0.038331505978662014,-0.026303863997832525,0.0014717683791041986,0.04163107854310254,0.08922766680608844,0.14214685547338876,0.20170877618820543,0.2634231979195874,0.30947593845425236,0.29958380546544305,0.21256596102973896,0.08319345090975179,-0.051073886141882595,-0.1789519392366307,-0.30272412637557194,-0.4126655734532028,-0.47537100160724405,-0.46797912529591906,-0.42737691032212993,-0.39639334433740175,-0.4086030764676749,-0.47791729211471035,-0.5767865335928933,-0.6550722214329024,-0.6884505073337611,-0.67488039544336,-0.613796036996443,-0.5082567226597202,-0.39059895778086906,-0.30416208233626957,-0.2547028294707373,-0.22274311928304408,-0.19088528684998132,-0.1509122744646367,-0.10068644954873149,-0.03800719475084034,0.02948248980401962,0.08093552259551284,0.08107990574135297,-0.013036307324543736,-0.13011010543995447,-0.16936176874633857,-0.16345285397156228,-0.14389785966431493,-0.12424580692389549,-0.11179991045340767,-0.10667348577260664,-0.10485334487686769,-0.09783945812875547,-0.07705909584669703,-0.035777458650955246,0.03621186057132664,0.1764659187843124,0.418939231786982,0.3229486869591265,0.20312247654073728,0.13678662314479798,0.09960684380080649,0.08782064945660192,0.07793620113844725,0.07184228228779813,0.06959152971428406,0.06976905192112812,0.07290556433538288,0.0795581407631223,0.09193211895325315,0.12339744309985748,0.19102569723199422,0.3448059848890858,0.5023779818092804,0.37134676824928825,0.2717153702131264,0.21503478878982488,0.1686861896945398,0.11916480018010456,0.06875658921487628,0.029220040782891615,0.013876089308519671,0.024401433581130352,0.05002171031382743,0.07876573593670505,0.10498015155910222,0.1277375877530922,0.1464905874441128,0.15788209022546346,0.16245534815866636,0.1682436857840858,0.15043621916370697,-0.0389003751315832,-0.07732966204768778,-0.08770013249896207,-0.09342269689886211,-0.09684553733868519,-0.09428497582217527,-0.08756095163681901,-0.08407305108796732,-0.08861102777714902,-0.1090224687031664,-0.13133789361682052,-0.05212831393193115,-0.028947513159531757,-0.02975898838937003,-0.03737564413500401,-0.05113335645144609,-0.06852259587285718,-0.08482296027244274,-0.10132916579908194,-0.19454171730771538,-0.25485849508152053,-0.11612125136132216,-0.03873451951679721,0.016368833866095885,0.06400075503842569,0.09887602580754058,0.1148773528910801,0.11502093649700158,0.10754861217739264,0.09963744769947419,0.09591013360070674,0.09952505372316174,0.10576792989493859,0.11288899948082241,0.12513210805501335,0.13887266318367902,0.1513967058999789,0.16201491085540912,0.17044629557939353,0.17499699777944094,0.17441843910010393,0.16895214830629499,0.159351993973287,0.14949035077843006,0.1433939836135173,0.14148432895421845,0.1343234831116293,0.10057769254334169,0.03006518596484001,-0.052938995032659725,-0.11993335437727459,-0.17381532268763583,-0.22632986426358734,-0.28440786224486436,-0.3510829769732766,-0.4269867112948431,-0.5119859028889512,-0.6061405034818987,-0.7113545275499116,-0.8222507161450342,-0.8144210786218807,-0.44602132526917854,-0.16271744742428618,-0.06491668258694885,-0.04543850209095694,-0.04624285821474927,-0.038631852686761566,-0.010631443194841248,0.04170639714747539,0.1190663076000597,0.20429938349417623,0.26167103931668523,0.26259216610692643,0.21472634096988133,0.15936455099762054,0.1407322057766044,0.16455007011476314,0.21970991280711186,0.2991685916702766,0.4078713641312099,0.5543677781936579,0.7079563914350565,0.6973473896143121,0.3262632633307862,-0.20745581317595665,-0.6130972688639608,-0.8106531918605592,-0.8275934709515143,-0.7433725437791112,-0.6319823243735657,-0.53112965890261,-0.4485528587255081,-0.37709810901265683,-0.30953925546757866,-0.24069671393630465,-0.15868757179191362,-0.03567969569764628,0.06959351328724758,0.10343403432372757,0.10528267407383166,0.09129338871004684,0.0685903110658081,0.047539091568568434,0.023409131816768125,0.0072437197258392125,0.006736053690552395,0.02210202134853302,0.04790783219547625,0.11639105316403375,0.2957833182969828,0.5580744283299067,0.5190461754617343,0.5478201876769592,0.5308720312302327,0.3161476295157442,0.19255866456625556,0.1374833878397873,0.11985578467914769,0.11771485156470915,0.12029026809186633,0.1718727683545888,0.43550318772168073,0.4242948393979749,0.23356433495352366,0.20355615633981528,0.2040586758175877,0.20298718264825644,0.18642255981082462,0.1551356490239856,0.1200391960836607,0.09196100265780634,0.07534137900127917,0.07095891914229004,0.0782655096142468,0.09641719180577069,0.12426775947842673,0.15196437722147124,0.151212099912029,0.10932530081918444,0.05691000353088753,0.004689932886236297,-0.04933766706702011,-0.10244248060476,-0.14765076707525868,-0.17848630989163447,-0.19447642551110925,-0.20195124981056561,-0.20100624224596553,-0.1650547685948919,-0.08456066774962555,-0.020032174597714458,0.022499702366431854,0.061660733926298075,0.11783625128929162,0.22696195469148964,0.214901871681423,0.09885233421074108,0.040830027426024665,0.006627152556253574,-0.013991469683242953,-0.024212664260729364,-0.027982052637589596,-0.027359918100218976,-0.023894386213282777,-0.018717207978123256,-0.011571559949675608,-0.0012024095012803798,0.01461271856910389,0.03964857544635855,0.07246615157208991,0.08695013954662545,0.08127383803382754,0.06737685887771216,0.05174471846999563,0.03625100649983127,0.024742865542943977,0.01836621002868715,0.016526524206167088,0.01730785254900334,0.018112122292933037,0.012585698798499374,-0.007985779003601702,-0.05249271196288809,-0.1154680157403665,-0.17640719727367063,-0.21575318238889643,-0.22787891368222638,-0.22040651876493195,-0.20293030149582825,-0.17282267770527787,-0.10970042151517526,-0.019391542521120138,0.05032141240246259,0.08365886400002663,0.08866175619249753,0.07801249490722273,0.05648799957299317,0.029005451296639853,0.002919329008291006,-0.012630452316942568,-0.016137830034491867,-0.013529720901323174,-0.013605538205688834,-0.021800066257673355,-0.04303188976506068,-0.08402761453585435,-0.17026352019225313,-0.3903024239867014,-0.5149629251967819,-0.3444635399379104,-0.2692453913638152,-0.238888777014735,-0.23253985168590266,-0.25009699447566497,-0.3024613915372703,-0.40435024533978636,-0.5451946763406327,-0.660581299644415,-0.6817468513029932,-0.6021638857132732,-0.38670353325714585,0.012209893354939506,0.2728420537837455,0.3036257960907532,0.2845507434645634,0.2846404947798673,0.33673569257133923,0.47382954384374576,0.6749796853238031,0.7533982989621365,0.7302765615725824,0.732565967570834,0.7718347649157676,0.8084770151496355,0.799240226706615,0.7469844636811559,0.6794037119433901,0.6065179062377808,0.5255004438879025,0.44000543374104717,0.3655725168233185,0.3121280586213739,0.2817088917690462,0.2731390529594418,0.2882379755209834,0.3451003431267737,0.46616749350911596,0.5600282444590842,0.507310176510074,0.46438006241530233,0.48197100163025863,0.5693575361401763,0.7198985843063466,0.728488307876115,0.5214798176477041,0.35828540514253054,0.25818902506848834,0.19230908567771587,0.1466266237489141,0.11568594572829852,0.09904115563347393,0.09702475454589177,0.10015658581795842,0.02868025987372446,-0.0661911178376989,-0.1331412557342598,-0.19510095502519428,-0.25740986632725654,-0.322134819784019,-0.39278081707246676,-0.4684190447641163,-0.5300785423848431,-0.541423847287472,-0.49017619325127915,-0.4092759134243098,-0.33658521046511053,-0.28438806581106046,-0.2513331661948492,-0.24070441483435337,-0.2745967425279538,-0.21624148815820324,-0.09415482340173222,-0.06714355168291886,-0.06501922177970759,-0.07344014662433483,-0.09893954790723981,-0.12942344407402212,-0.16521253687680756,-0.20362274454705753,-0.23733948573077607,-0.25685475763578586,-0.31970418604060696,-0.4474768799384439,-0.6176431979074876,-0.47828416584109185,-0.241948209385029,-0.07644961422963507,0.1316218008586852,0.631585298606664,0.29333596515074495,0.1806187537040012,0.15805813603230917,0.1679263578910435,0.17350034934568076,0.1769597420890865,0.18745896252479205,0.360739542453868,0.7983598604376771,0.4820904013694273,0.3550661968169146,0.32325076484570847,0.31830414425429143,0.313199945900193,0.2975899984808991,0.27359939001648564,0.2482710817341051,0.22783436359897488,0.21485777086734242,0.2090008826066977,0.20763446625652499,0.2075861535363377,0.20621744779224827,0.20302628529840178,0.1991903729090063,0.19606941172251946,0.19483673923293213,0.19475714396463267,0.19568581300326857,0.19713794638324433,0.20008280095091635,0.2049646823977654,0.21088698597711775,0.21446653891221137,0.21218693241146128,0.20285821815257185,0.18674159172792457,0.163143915765595,0.13101063418045208,0.08951884823603698,0.035799911505382476,-0.03845421435564308,-0.14072105873345692,-0.16772945425033794,-0.11592131469013953,-0.06814217500653993,-0.027971154646910124,0.007367471935850012,0.023080990086931465,-0.035319559440842876,-0.13104627535553295,-0.15864202566497257,-0.1679220300431499,-0.1753377690773794,-0.18565708354581587,-0.20100589979179095,-0.22426090036693652,-0.2577651712016747,-0.2921940715229283,-0.3071831601366425,-0.3036136055168123,-0.28949599599599657,-0.28043982584848653,-0.29565053767425276,-0.35899819533671734,-0.46139549868224117,-0.42702555574407886,-0.3254403207349203,-0.26107907715385875,-0.21670938321915728,-0.1770457205559695,-0.13540480893933898,-0.094212802899382,-0.062431543430165624,-0.05429152234305376,-0.08057939306582014,-0.1043042175308204,-0.1089030376466218,-0.10325885920044489,-0.09135513419635763,-0.07287032582072624,-0.042783015927372235,-0.005841968382115906,0.01269445320140219,-0.025230883147711946,-0.1600299569598592,-0.17324193264708057,-0.1665034340778755,-0.1623247474055329,-0.15633411717538948,-0.14436882613656052,-0.12459750662567612,-0.09939651021778317,-0.07617779137390575,-0.05968796408590242,-0.048418705837166065,-0.038434832540901936,-0.02496548368421298,-0.0008111849304481623,0.053164218781821246,0.1820897522413321,0.2560682150976178,0.23771046168124293,0.25866927804454404,0.32988428030317696,0.20860550204217085,0.10168862323755641,0.06301777108956196,0.04540568044472151,0.03396129326416876,0.024576808982553634,0.01742951410769311,0.01368928349904987,0.016581181288752297,0.03189139716598178,0.07250699670163196,0.16583108139685002,0.15729232773444488,0.09181110483214364,0.060395621075042136,0.04378818575922951,0.026654470112500588,0.0029892207461943536,-0.025231849257484916,-0.051675814422462864,-0.07045442124010862,-0.07368784265689167,-0.05315902756929586,-0.011086568340836652,0.0349910881973034,0.06864951460319023,0.08295416813753814,0.08231709105218966,0.07052478233728134,0.0458896497218406,0.0036417629285884316,-0.061867731331049565,-0.1489517545837702,-0.23655654006144783,-0.2963533756479673,-0.3168318249432,-0.30695004524073743,-0.2786970637742448,-0.237654209627462,-0.1889049254627895,-0.1457545281715714,-0.124628782671004,-0.1349894686859416,-0.16356207035294185,-0.16697150016682388,-0.1266698204581352,-0.07457483582994208,-0.038858051568239314,-0.04226829694453779,-0.10804701984889924,-0.23616687355480756,-0.36884498762300494,-0.4345425574094924,-0.39418123673148264,-0.21738490610788225,0.11436579580174551,0.49380199035388894,0.7315422631114306,0.8166111623092731,0.8307624141691332,0.8235039421009691,0.8143368224142741,0.8057087499633437,0.7937537079844353,0.7772265764878645,0.7510266673793059,0.6876068355125181,0.5863191901682882,0.4940565681531738,0.4337799363214684,0.40742364469120007,0.41176367053154544,0.44561264628920316,0.44048799843861475,0.23164756128427894,0.06154173053649496,-0.01907880263106471,-0.06363666681755271,-0.09800138296833776,-0.1379089143551753,-0.21200891220933718,-0.42722806146989495,-0.2169924058180267,-0.08662630061727385,-0.0674777564594051,-0.0767203066956466,-0.10057347654001032,-0.12912636198198998,-0.14693498741711264,-0.2407925655756155,-0.4921804859177564,-0.2860311468967941,-0.09364495923462253,-0.002110270399205537,0.07333166220430277,0.18254909527519478,0.17228640245539262,0.10347545440181975,0.11568074670145748,0.15645469031382955,0.19734023273420162,0.218503170432663,0.20841910268596367,0.15768599337331266,0.046104638949981014,-0.045100866079290605,-0.05458837496029679,-0.01732202842554857,0.050720286743992975,0.1418739480835177,0.24370498088243836,0.3461474782791694,0.45965405887568184,0.6075322940176826,0.7446951659065358,0.669921048001146,0.48472136148664174,0.3564348072988826,0.2854358263993164,0.2568873872107543,0.27445700010133545,0.3920045941115184,0.3263018518731536,0.08756699683608711,0.019364253800428433,-0.010239766073768234,-0.030003243881370337,-0.053007176890175825,-0.09953270717104432,-0.23677167722911938,-0.28034546593850446,-0.20839547311570267,-0.19078263247715319,-0.1911453922916822,-0.19690838509036093,-0.20404043990818166,-0.21327447540879155,-0.22949352557147212,-0.2597448067698332,-0.31685443614765396,-0.4246804155299816,-0.6112800222144259,-0.8027593216713068,-0.7833773510929642,-0.645334617595137,-0.5142196880827489,-0.4030493969071369,-0.3097345366723879,-0.22831377453820537,-0.14860762958520432,-0.06947129895240985,0.004159628201356835,0.06797691953667236,0.12150480541998604,0.1670635833603173,0.20692001433611504,0.24186198490488023,0.2710949415407937,0.2938857852528877,0.3092424908124787,0.31916338466670785,0.3306024266446061,0.35532289412754475,0.39944923935981974,0.4530863071199966,0.48108473016414316,0.443743405200974,0.36592497546020253,0.30057083815504493,0.26047693246939757,0.23688752435326718,0.2226179928538957,0.21566954282249803,0.2144341376341212,0.21587001012314166,0.21587743821098998,0.21310729245401872,0.21010837830235862,0.20968925267340488,0.2117652918853513,0.21021622535013343,0.1970730528823102,0.17052288847354732,0.13638474613359755,0.10378268963940086,0.07214190928882844,0.032167466618990996,-0.023757764970523666,-0.09509466229824835,-0.16879626274999415,-0.2163376631126001,-0.21247595031525635,-0.15622557155584313,-0.0746594378146687,-0.005203750156971508,0.035933275088126666,0.05719919307730619,0.07114118524646666,0.09163480566036909,0.15885697916858635,0.345234740873504,0.08873811563157283,0.045050505253798764,0.036054193097469114,0.024240133442638635,0.008386466570667302,-0.007814400067858352,-0.020728629374585788,-0.028693952362025713,-0.0326048362562882,-0.035213509499290224,-0.046626218982621495,-0.06211295288023551,-0.07349058873504379,-0.07027560878864735,-0.05180140484224274,-0.041390066597078626,-0.037179797549220836,-0.04067573848344756,-0.05374253832494701,-0.07212203890782953,-0.1509705122880164,-0.4134786863372917,-0.1958257764679771,-0.1071125456982124,-0.0699187804889573,-0.04798406583220394,-0.03152766418369132,-0.016401196985356213,-0.0014291724403894227,0.013228710784278347,0.023149194924462043,0.013843978783120657,-0.026731828498280256,-0.0877480222602421,-0.14453163142854789,-0.18358345943277038,-0.20666737241275038,-0.22379580184812187,-0.24626908861403468,-0.2844145034064901,-0.3412234423644878,-0.4078274936025759,-0.46759980888172126,-0.49648632236094115,-0.4643732034978599,-0.3396357819116668,-0.06715458106867778,0.1762861371044691,0.1349482474676642,0.004424176522994055,-0.1194548286461731,-0.20302107081980095,-0.2372863173706914,-0.21980429088257047,-0.14578404555853078,-0.01838314142010144,0.13106499288452256,0.2533286866196948,0.32393301265244223,0.3489858882754357,0.34297289296186767,0.31719271642898583,0.2746172441052566,0.2141197011227778,0.14010887436829944,0.08096522130686869,0.09088936952823887,0.19954534175909014,0.3471619031424918,0.45206333229880047,0.4996817025299336,0.5132042085817655,0.5228157252555492,0.5500699025817867,0.6149405493145244,0.7042205445790464,0.7361233934844954,0.6911397730076141,0.6510987972586878,0.6506242685668421,0.6860678512691359,0.7471412127915585,0.8245123693421541,0.9021263437576454,0.950919605734514,0.9459878491355713,0.8461496056338141,0.6072463060803142,0.3426607776691966,0.17142777392334455,0.09966167292862177,0.11818933157148587,0.2517216371034506,0.5247272025336277,0.6748061026767748,0.5873406379609306,0.44463181627977466,0.30847191670599117,0.20402218299090352,0.13383939627740002,0.09006950865533968,0.06232514342603681,0.04276227527906046,0.027922606584138202,0.017020633561060483,0.01206862476029777,0.016606391931448496,0.03462213016957751,0.05895109878722488,0.07667556398945272,0.08338228131166678,0.07919396519859118,0.06004654120622314,0.016773881528898447,-0.054055479540526225,-0.11752914756911509,-0.15032431691399115,-0.16990920451541128,-0.18005142697843585,-0.1744146123244734,-0.15689986721297597,-0.13377667179535502,-0.10805230453647827,-0.0833632237151924,-0.061978203102380426,-0.04472960827646741,-0.030760408329424765,-0.020793204455423292,-0.01768513451636535,-0.03389903746060424,-0.057384876468155,-0.05691611867657501,-0.06425793857432711,-0.08623312536917031,-0.13687273449264023,-0.2522159332705467,-0.4718548318544318,-0.5752212806814976,-0.5160295081117465,-0.46133733188753095,-0.4205426577240274,-0.38316917312711435,-0.33984311531025757,-0.2815393065541054,-0.2080720082392423,-0.12948463189838721,-0.06901071838125207,-0.044869216803322384,-0.05126309891632563,-0.06403291659412272,-0.06734451278696713,-0.058595884694949696,-0.04234469033907133,-0.01955614233411876,0.0022289113388377743,0.003448121917372809,-0.011884503134698831,-0.030988331629242635,-0.04836090594622526,-0.06141553620528501,-0.0719776217630064,-0.08192487714267774,-0.09175427953581781,-0.09930741941498077,-0.09894528329093374,-0.08847573890313884,-0.07512592663736037,-0.06448596595323397,-0.05377726216995339,-0.05266707939868615,-0.056886367432028705,-0.06031800423820964,-0.06170129996491375,-0.06261200559821728,-0.06491930998990694,-0.07040572354287537,-0.08404824684903636,-0.10928210267621928,-0.14548979807903312,-0.17606595951978932,-0.17397377858224938,-0.1428922361361325,-0.11108789382011808,-0.09382875466922926,-0.09393319160157021,-0.10925401026614359,-0.1306040885776902,-0.13917562442998752,-0.12771977714411228,-0.10349111707586989,-0.07668299279377394,-0.054481167104462255,-0.044972455449693444,-0.04792754890096905,-0.04742465896481059,-0.034565892609447306,-0.011109883959208235,0.017108078345967826,0.045612975621099595,0.07029107332872296,0.08823825736664748,0.10126172119727198,0.11314327968436298,0.12537171952243092,0.13567891523537765,0.14169839844614535,0.1428372438609884,0.13889814845696208,0.13376996183561674,0.1285074718822243,0.12248647915424178,0.1179368286595494,0.11454427630727851,0.11221045608187363,0.11085689278003864,0.12955045381744534,0.17659067244652113,0.291102326826874,0.16563108149335168,0.05689627360043769,0.026569111898620622,-0.000317797683129303,-0.018457515304745098,-0.025635768245367906,-0.022702874069939212,-0.012398699178595858,0.00155567602770998,0.033254246167295935,0.042859700301344096,-0.0018707940754934403,-0.050220864095204404,-0.10568973374943343,-0.16742924296464895,-0.22443557602613526,-0.2274134281275649,-0.07792957529285059,0.12110776955810629,0.25216118018093653,0.3377688790777848,0.3923299215293049,0.3889132765915675,-0.20899629247719018,-0.37878214467355037,-0.3505645679830501,-0.2898298388052549,-0.21199512385913807,-0.1263338696368852,-0.03774779140854847,0.04746016152512455,0.11766277541094126,0.1653017157313595,0.19124893995239808,0.19939898837166414,0.1932486938136796,0.17405576827392458,0.14730842751890166,0.11985458075969041,0.09673201500537952,0.08034541832144251,0.0678775414119439,0.0529941421654703,0.02960815854565636,-0.004968231354239944,-0.04605867725199555,-0.08185038061800064,-0.10245637429841502,-0.10411242845588702,-0.08805357455052269,-0.056853980266736666,-0.009223379015216547,0.058241047884597316,0.16070129932073202,0.30318798068464314,0.23932228022735386,0.13606998550412922,0.08929524510816582,0.07583779253957658,0.0949340603870304,0.13922646731716162,0.1605259338294167,0.13915091967552898,0.09628219466608194,0.04623258940933111,-0.011220977756473348,-0.07958103248050862,-0.14494742527779392,-0.18595190970985845,-0.20272904438315054,-0.20618701479041204,-0.20618697609480863,-0.21463793350675497,-0.24961048793279483,-0.3258572634739521,-0.43530666891482656,-0.5383545823651849,-0.5822083839002635,-0.5634748881197422,-0.5062886630603952,-0.4155473062905994,-0.295718537918073,-0.19964689888406195,-0.17906648033168157,-0.2279311190862433,-0.32225584213520353,-0.4295811809344549,-0.5023366150098052,-0.47831241619390835,-0.29162134885955404,-0.03023092545556627,0.10984904532217923,0.14459460534894303,0.14084745809239999,0.1339466497202721,0.139196976867658,0.15826684745048164,0.18123813600914682,0.19175023919843712,0.18401267056469195,0.16976701455261395,0.16993990901070966,0.2090388030790119,0.34251433571109074,0.0570121198448884,-0.14092390455276227,-0.23238026966984907,-0.27320972032451113,-0.25484855044607857,-0.16224855464570262,0.0019358101005617506,0.1962025755229732,0.35524744510917067,0.41044642213972365,0.3537330497838256,0.2726696266072851,0.21895531238650873,0.19485361587036068,0.18958670492563617,0.19694442628600337,0.2221350647604886,0.29412065506863894,0.5281676839437887,0.4392340387096355,0.2195372447588998,0.15414073037100903,0.1285827810026995,0.13112156857078858,0.12964046841649465,0.12063631069690423,0.10406230487068932,0.08320740271112997,0.06901285331716267,0.04794038197949384,0.014038774957051747,-0.09526735950388036,-0.14893523056611907,-0.09861629623333776,-0.09782291817675626,-0.11230758818855784,-0.1570320572955639,-0.19532660979121574,-0.21797007337525398,-0.22194727592779967,-0.21023713228927718,-0.18989094391418582,-0.16720161682569623,-0.17201321872688496,-0.1968323199269972,-0.21586253315743364,-0.21621885172124308,-0.1994379785212278,-0.1707963969872224,-0.13260823129383595,-0.07270671770089834,0.03905223379835273,0.11190822142348475,0.1074164758807828,0.08461062428033811,0.059292380282971596,0.038420094056145854,0.026438672210690545,0.024803684530543393,0.03285414720609613,0.04773694371218809,0.06592161656183643,0.08950145102867686,0.1204526094858095,0.15877445356960584,0.18492230156604966,0.1908239592887258,0.19579848330677413,0.19868561610233043,0.19984964809163636,0.21466407596153506,0.2562606058509134,0.331706198221972,0.4226822929655468,0.5035240048314897,0.5804201681730625,0.5673371742292018,0.3052598650785344,0.11627434761722796,0.030382053385453727,-0.009562237398104302,-0.028561284004013858,-0.03953595012523944,-0.05098153627052396,-0.07316913856969506,-0.1162790234807488,-0.10025264704483763,-0.07183209133791195,-0.07122120292395961,-0.06713836959758819,-0.06132129181643561,-0.05629798902450212,-0.05410942299048013,-0.10596847273027488,-0.22704441329743985,-0.1938548473135253,-0.19631561122072397,-0.22873650440405033,-0.27649329804912043,-0.31564015159004594,-0.1802307471684392,-0.015444509218493122,0.04351873870221026,0.06497505167930695,0.0705766398388072,0.06637319465088362,0.056448231454656064,0.04394038664206969,0.031874001307124304,0.022416048459328868,0.015810161754198034,0.011546705094134165,0.010167551399990812,0.011248320552335688,0.014792514897031567,0.02161472129712377,0.03432754877527826,0.059000636700362666,0.10960935908684276,0.18719103137483573,0.21443980901987877,0.19023660661520092,0.1569964045584858,0.1143895255245999,0.05319233721268798,-0.03557726556922573,-0.15407281374924559,-0.26523723616889255,-0.28828711384209527,-0.24192602829666005,-0.19138668399265774,-0.15788338280578337,-0.14038585981918958,-0.13631882628847738,-0.14203270849584226,-0.145570692632712,-0.110872585056231,-0.052528285878228505,-0.014486970037269434,0.006447321092351883,0.02192700405483916,0.043588658107134484,0.08289001087220924,0.15636314326218023,0.2975698307137461,0.5166457914318967,0.5330886472131152,0.3683434113357182,0.24267103660155687,0.16861670675717116,0.1305912117698019,0.11672333713766758,0.11838147124153889,0.12180644631050631,0.1021418460981732,0.050625949337409264,-0.013115285454732244,-0.07299366388330927,-0.13085872238419183,-0.1885515347755161,-0.23936941894275865,-0.2719053366396591,-0.27852146122593413,-0.2564997787468919,-0.20822713829534567,-0.14637517435362604,-0.08610504740743867,-0.03448112052362951,0.0049380218618449235,0.030705854358159177,0.04024396686566733,0.03520110233300666,0.01741667914754368,-0.019837704010057397,-0.10065104417538782,-0.2616480284214277,-0.3342326521360697,-0.257436087609029,-0.18359660584763085,-0.12660983850511368,-0.08064377756656595,-0.04085010628228559,-0.003940924392932551,0.032383837037501494,0.0644189445147796,0.08603006519084844,0.10497882077172369,0.13416206262617164,0.17515272576535335,0.22182065108647786,0.2714247299817132,0.3185473545581268,0.34449302293506123,0.3426848115150434,0.33293684608716745,0.3431683248558446,0.41308255723277326,0.5436641327919064,0.2755405860515067,0.13007466445141955,0.08210451867885668,0.06195481748733607,0.05144244844469673,0.04405655049673348,0.03591482583217513,0.022781693916677764,0.0048649614671558115,-0.005571967489508023,0.007200291223224355,0.04882157394254933,0.12635440417344082,0.25427651352432906,0.4303753653542643,0.46218775270114915,0.33873871253303894,0.26671523081146514,0.2532333071822248,0.30321700316019645,0.5670097015832731,0.3700327404602495,0.13948283374748005,0.07964766420420245,0.057860621837754804,0.05230035696602928,0.05759121606251861,0.05324126698081594,0.0007690408378108984,-0.041824124510284555,-0.057707802819001376,-0.054634772604894306,-0.04001630020056682,-0.014258616847458867,0.02585697886166452,0.08104171549960236,0.13556074682475064,0.15010807066531334,0.11597878682420676,0.07129396280989624,0.039712021683609475,0.017603001304268635,0.0018148204241674709,-0.003697141631941126,0.002882387147658925,0.015862554936396753,0.028640667054950032,0.03865137281706403,0.04747496204588368,0.05555104461055281,0.06043555285845038,0.0533240111665931,0.022044276462645382,-0.04342736518912217,-0.14508442437052727,-0.2604883946832243,-0.35771512852304715,-0.4207255583537493,-0.4547311422299833,-0.47604082140219023,-0.5050714574902915,-0.555306505748998,-0.6218351634382075,-0.6863038009274177,-0.7231480215227833,-0.7037308120164666,-0.6106452383026634,-0.4933556322780344,-0.4319654529391617,-0.43856492429787935,-0.422104438124846,-0.29591801012612895,-0.16312116241600644,-0.04775946322330645,0.08462495467359006,0.2267834935331758,0.22097837987900962,0.16924341719987746,0.1411019251611008,0.1407828916616635,0.16754017847851796,0.18480236502032238,0.15709672989198842,0.09904708094055745,0.03157887138785513,-0.003319303182814076,-0.004549359794894351,0.00760375618231579,0.02323975794063484,0.03925874348630502,0.05674810240661847,0.07980803623383846,0.11241922954280723,0.15470634119226387,0.20305867615630002,0.25462483358234617,0.31081899195461204,0.3731786645029098,0.4420571482415894,0.5162486691720367,0.5820087293870023,0.6122397482106047,0.6039278440450959,0.5866993045864685,0.5753840096807703,0.5653928490340173,0.5445696611095958,0.5007667388735545,0.41934074091474444,0.30538119595011465,0.20402836051600262,0.14288893675364678,0.11482804848661589,0.10752463557041421,0.11338607869123446,0.12753094022443368,0.1442036941893811,0.15842428453260143,0.1680439631090621,0.17555915097314537,0.1836100295089464,0.19017876204703457,0.1887842418130482,0.1777763200712458,0.170565254079599,0.17197329591284904,0.1741677971320556,0.16594547405000573,0.14391589966181464,0.12034722459653006,0.11006571397065469,0.11767832910224493,0.13826956346981145,0.1685046023393207,0.20939394194653493,0.2594116112455118,0.26153633068831605,0.15205091243189897,0.033429982356552444,-0.08380460238116881,-0.22584845041663845,-0.3938550155539398,-0.5592592090570294,-0.6901052968611444,-0.7727988585585267,-0.8097139354872864,-0.8104930374376905,-0.7770821068199627,-0.7027413662261368,-0.591623535976018,-0.4980627013998082,-0.4967455842350277,-0.5892185690183946,-0.7010244730288879,-0.7714690433929182,-0.7871818598967704,-0.7436687263784295,-0.6252447664801501,-0.43411405418195137,-0.24216013996823474,-0.12562265341009055,-0.07701604652248509,-0.02931683013093297,0.09337994461985549,0.29312334223031244,0.4353207150782343,0.5108050387092187,0.5583201135808343,0.5995199920186156,0.6397536691511665,0.6642290006695349,0.6538079295486494,0.6099971267047425,0.5429574675165424,0.45750502416377703,0.35846045315622344,0.2696365091217892,0.21418419441568382,0.1901013622297194,0.19473956671673093,0.24680090338255325,0.4272897048746475,0.5311578062043358,0.2887577481217691,0.1898785576930835,0.13958086144387913,0.10599157541096352,0.08032901773032562,0.060659430175431774,0.04825201670843243,0.04565019769167846,0.055113993503474755,0.08106167488320291,0.13347936426129245,0.23538373396013648,0.4285735667674926,0.6445956351638407,0.5741733255251843,0.42031744591353737,0.3124757822787871,0.2404084592584363,0.1892910875496058,0.1502890759039464,0.11698870486444515,0.08864792948857723,0.06725525868523229,0.05333700129677697,0.04528710510747475,0.04093254820591912,0.039622343140506,0.049163816498955064,0.08087922052953453,0.09440486701950306,0.09498903837244006,0.09508313450785988,0.093643213002521,0.08837194395777555,0.052886432697284276,-0.037960988215792774,-0.09094738844365638,-0.11257210121240517,-0.062472287415552705,-0.036269096463543274,-0.02840115774558241,-0.028334740600770823,-0.03276903314104814,-0.042799525539295745,-0.06507290583679054,-0.1203068094800951,-0.22975358560626563,-0.2593680517303153,-0.2410484797615027,-0.2500513309934576,-0.28209333056502434,-0.3280837170847428,-0.37880849849333087,-0.41410114743354487,-0.40470438292707583,-0.36389905378104753,-0.3417880212435904,-0.3635337908295124,-0.41356529198110076,-0.442597846677635,-0.42250703280049173,-0.3551712987504858,-0.25579303424073,-0.1459095092558785,-0.042654443725343764,0.04398900196357847,0.10865155875894579,0.15233393437744056,0.17467178179824347,0.1698918638803655,0.13776122946850175,0.09664118663248494,0.0653180636927009,0.047127862330691196,0.03824090854023196,0.03512422111731482,0.03700076110941674,0.04716811074317764,0.07301359330838639,0.011972371790631986,-0.006249850983994653,-0.012200433847801496,-0.014392566599488113,-0.015134093495172066,-0.017213462138401112,-0.03024822881453473,-0.03398339634757765,-0.024874960062532644,-0.021092121933840583,-0.01342715908100845,0.008823297135990752,0.05354638768850097,0.09648441605488932,0.12249943891900006,0.1252796316834574,0.10900787056969029,0.08863107657487003,0.07200918097917568,0.05976709548863221,0.051535494328339,0.04719056974483098,0.04741735747743908,0.053409580212701376,0.06589047652264768,0.08445574823734071,0.10498853164741312,0.12103374627663215,0.12414816753192216,0.0891194476327122,0.013692085870958775,-0.027127845004544647,-0.023362371381469522,0.002964612002690418,0.030762627766074295,0.03912000405319446,0.02443443319674301,-0.0001450080784151136,-0.027409753674667286,-0.0552975087471406,-0.07985475731885913,-0.09679119003161672,-0.10388287040839468,-0.09997645436137063,-0.08837432166078636,-0.07520582592458905,-0.0657784122888562,-0.06090351731931733,-0.05924902669191107,-0.05901548303284986,-0.058910126381080334,-0.058764093177687785,-0.05936964028191218,-0.06154375870902949,-0.06499646198339126,-0.06838438088571985,-0.07006457448545092,-0.068173252219698,-0.05890688537830547,-0.030103160767056256,0.03543063850923307,0.09436162372869952,0.123552435270546,0.13747195959551894,0.139181910550768,0.1263429393425895,0.10087349183624508,0.06889487490519511,0.03562641249672961,0.0020368860824961934,-0.030790585448358793,-0.05616517525268493,-0.06540380898210606,-0.054885764539425806,-0.028850261779141174,0.003248062375648523,0.03256403284144793,0.055305229132400525,0.07299560139265801,0.0879768391720331,0.10171508931970992,0.11521689285392497,0.1300419381884659,0.15045956638026656,0.18440253959228964,0.23192257500676314,0.2753423467091702,0.3021514755750505,0.30982003733150587,0.29372291481335455,0.259937331243676,0.22513917249039772,0.19960066008256505,0.18172127771810936,0.1632665490968815,0.13938409048070766,0.11843641378219778,0.11012898271110097,0.11994989182530844,0.15132394279118486,0.2013767936749693,0.2502663067931022,0.2494264038864478,0.14732187042987172,-0.09369532700606857,-0.20945941281112154,-0.20536171822830437,-0.22239400357342515,-0.2807628313545271,-0.37916950869828064,-0.5000886342534598,-0.6056520154634213,-0.6635134755209527,-0.6650869722802153,-0.618432994034684,-0.5393504737293399,-0.4469085103191166,-0.36353727769098687,-0.30747433239402666,-0.2862923954941625,-0.2925486401511081,-0.3130338203033786,-0.34268957893134155,-0.38202510326677397,-0.42123339820550626,-0.4386562082260087,-0.41382904096575107,-0.33416925181071405,-0.1947710580899618,-0.005160292405193322,0.20655378416459258,0.39952790032568475,0.5081808814958021,0.44808995209470337,0.2903258237531412,0.17339180333179477,0.10890951571338221,0.08099789835360044,0.08536492231467943,0.13071727350432916,0.268135540874768,0.6586967833859466,0.6515785395424492,0.5350531313579879,0.5513150524857898,0.6324183703631292,0.7330129546822745,0.8149019122886231,0.8588874340812326,0.8476720222199022,0.7729486523415383,0.6854039905642922,0.6378912402142907,0.6208794240151582,0.6063650113942978,0.5755643565218903,0.5024797003971928,0.34471728534484225,0.07086017872918038,-0.23994651557514687,-0.43612695361086057,-0.4696718557024079,-0.29612853822826585,0.1178690390558646,0.43443959327469606,0.5293760925095049,0.5385681955318303,0.5297948583092453,0.5267296784334086,0.5376584510723569,0.5644076529766929,0.5824337386174482,0.5450555129439278,0.4475626284029994,0.3119986193983023,0.18783764740832623,0.10821429530083436,0.062359768208104585,0.03446780053623254,0.016123002562628275,0.003424634662626648,-0.007762763740234829,-0.02693140870513892,-0.1794230360287985,-0.0649426514124556,-0.056488805680349266,-0.06680023760136998,-0.08449861073430566,-0.10485324847019885,-0.12383852872463069,-0.1347342285518488,-0.122924548107524,-0.0823593845365153,-0.03841098786024458,-0.01140032065886248,0.0019466534424231957,0.010894298649676587,0.02136554039353377,0.03690631469612088,0.052726399891663715,0.04493136750731811,0.020344890241520912,-0.012789540390399931,-0.03793468674593699,-0.051897795047797936,-0.06283433231678405,-0.07221726845329954,-0.08086759574446976,-0.09285558718916703,-0.10140755415716383,-0.10661774523339464,-0.11576744767409411,-0.12624719570615495,-0.13975727819728953,-0.15764047296371936,-0.17854887822686985,-0.19599853213747373,-0.19305754320865476,-0.14389827131245195,-0.07308364357589693,-0.027614574414397502,-0.008794298105994325,-0.0063247901094009035,-0.014208317303490604,-0.028919831244733837,-0.04791469606500699,-0.06746209519411407,-0.08378098812550461,-0.09508050736200355,-0.10498555514497389,-0.11603636916802121,-0.12391806299748795,-0.11667598318112277,-0.0857217499216301,-0.036775404124226266,0.012978729929441732,0.053146134075758716,0.08297969152029383,0.10653773140648677,0.12798354740418652,0.14584974221828717,0.15199384463345986,0.13318025223395777,0.09114751350731636,0.046955663608594086,0.02172896986819594,0.02462122605604969,0.051827840589164516,0.09231877778764962,0.1312835807244537,0.15822780107266185,0.16991123999954316,0.1681883701820709,0.15804461028535188,0.1434746933722453,0.12777053439917466,0.11474080751665046,0.10419819429904616,0.09429664513221393,0.08374894363519278,0.07221345941180324,0.06163418802852148,0.05550343884508475,0.06025883339234312,0.06905335997476719,0.061575304546331595,0.046867680356522376,0.028851097987999178,0.004456232206595669,-0.024045079749853548,-0.05186262454387206,-0.07681146620191089,-0.09958137965254418,-0.12216537480125364,-0.14617385124512547,-0.16703503497278155,-0.16958683153322548,-0.1637797871226722,-0.10021729730352381,-0.028631369624481998,-0.012994416555904404,-0.009270828710074206,-0.00939619926632809,-0.012153585416831916,-0.015813836803763023,-0.019444471047459784,-0.02060315363127063,-0.01600089972459152,-0.0014186785607428834,0.0316273774211018,0.0975163796351185,0.11437336128770767,0.07881973285446393,0.04822117675137075,0.024267208901009665,0.0053525467848219615,-0.010176196441342418,-0.028576645025381632,-0.06931437097383837,-0.15497175713180142,-0.09720736777781436,-0.06766276534734342,-0.057177354171523004,-0.05800259620845076,-0.0580411190933802,-0.05233854388614113,-0.04284604054018922,-0.03797484708423334,-0.03235789505651404,-0.027081070850853275,-0.023938260992637142,-0.03069003735710107,-0.05378009964273314,-0.08610951347957634,-0.12253806430413852,-0.15521426516351575,-0.18065492480554313,-0.19519306109051823,-0.17447221121470669,-0.02657652142530184,0.1702759410121729,0.24996652010289605,0.28662924163336195,0.3070668459286508,0.3124221607186169,0.3018530117331468,0.2792495960457701,0.2474643837306664,0.2089175824195856,0.17176295995379073,0.14265132731969357,0.1217314344343207,0.10680479799499222,0.09725098286918446,0.0968794732841724,0.10960656292803655,0.1367697823562073,0.17266983397428828,0.20744056246790668,0.2270887625434563,0.22256933691101982,0.19963687849622902,0.1716393092738032,0.1510878349934275,0.14357093212126543,0.15042515950546032,0.16957439942524083,0.19723248052501424,0.23281951868732131,0.2767556199688102,0.3287892431242741,0.38808643889812666,0.4511554893792138,0.5115685292705888,0.5481964978867957,0.5375270444710993,0.4366811302392983,0.14849130600260302,-0.3693674067172602,-0.7159238085799987,-0.8092723655349874,-0.8066887031488446,-0.7522061922680173,-0.6379994890424753,-0.4585349098440231,-0.2475867494947496,-0.04902173587396031,0.10978780305451485,0.20296347613336238,0.207474118808032,0.1525653650110973,0.09257610466672585,0.051594710992842956,0.03159691733175569,0.030546666274629045,0.04713990949805777,0.07996080504680543,0.11854734736705355,0.14352598175662876,0.1299588825558786,0.06579750316947627,-0.05674900550503462,-0.24275730862754233,-0.46687466178342063,-0.6535163078907094,-0.7505126110315476,-0.774570021389864,-0.7512918368183243,-0.6950447866022036,-0.6189082137146459,-0.5436452290377786,-0.4872981609484319,-0.4571368761967798,-0.44619930989759904,-0.42390025076549187,-0.3027707630211307,-0.10046797915242744,0.035549247335672655,0.10234482547311648,0.13552049903560034,0.16106988128571298,0.19105219950848001,0.22374915588090002,0.24944403063634582,0.25972012519159293,0.24587629076650871,0.21095551273741414,0.1679196777731837,0.13450515699358945,0.13602660607254177,0.28174983071587845,0.1486580258729472,0.0922881164722327,0.0721348733791379,0.05876995770050371,0.053323500915124555,0.043344210405957075,0.037869820294028154,0.04656786804941195,0.09301671369995057,0.34586346441422494,0.2237204063320206,0.18708925290573528,0.21075578997910438,0.27130077075112224,0.3458934842979801,0.40069845263023024,0.4470532546793589,0.4986849264110963,0.5425805803574401,0.5688558113127686,0.5760340276531196,0.5665185840252079,0.5463298422655697,0.5127443668558654,0.4663329744414741,0.4135144081610232,0.3666441573385112,0.3314672569804233,0.30598906906930173,0.28082920365697694,0.24577792142260854,0.1926957602064735,0.12320236049599487,0.05089949463064254,-0.010718253977358257,-0.05803946132946504,-0.09602353602958015,-0.1321001208205868,-0.17514927313236733,-0.23633407015235994,-0.3309543708370896,-0.46802530187639163,-0.5215646360103998,-0.4110016360437754,-0.3447705904231742,-0.35023490062120494,-0.420836215571852,-0.5456910430142431,-0.5424839810760802,-0.3454244936398044,-0.1871821150670925,-0.07913938426492884,0.0033853012139963973,0.07408933180893856,0.12648626337190472,0.09432244017750378,0.057705600137193246,0.053255936078692966,0.06266418576239942,0.07092737678781053,0.07249104240584324,0.07229424913625845,0.07619049119634674,0.08874215801592195,0.11445617463810402,0.1600163968911222,0.21313451329723243,0.22981517878876545,0.25760567459650974,0.35884567045976096,0.2940787343430073,0.21745087434471644,0.19486576617761953,0.1845343752994981,0.17260911158228562,0.17825707916690647,0.2489130494244003,0.42803185967848784,0.35169299784485886,0.24677265660294248,0.19107301748900735,0.14827315271997388,0.10771802586666443,0.07034104503146377,0.03911266278513993,0.014524747972946754,-0.008720569796654887,-0.04069067142648944,-0.055809510825665626,-0.048232450896338,-0.03782865055282013,-0.02353578223602849,-0.0058822808967415085,0.013757315480858847,0.03619672492878419,0.06426300982133096,0.10237232730058879,0.1527545775271195,0.1792139506764875,0.16032174861099796,0.1518995156251087,0.20975294752919937,0.5165106883710234,0.3653762732780329,0.26705259405179127,0.25735779457318797,0.2664331325310263,0.22686783044679537,0.13317155846462264,0.07638425986318703,0.06433953800961957,0.07217155102826613,0.08216227963903881,0.0843865386287322,0.07144617679477475,0.03675175696851975,-0.014765234856697607,-0.0665843380335248,-0.09855190341593735,-0.10261149198607297,-0.08866961989756361,-0.07905039818661373,-0.09601593444887588,-0.14813904545200557,-0.22069736841875412,-0.28543758196112734,-0.3194622281535675,-0.3148297703936661,-0.2745741338864344,-0.2111551220722836,-0.14039329002537457,-0.07726374588730894,-0.032696781685486204,-0.011510464488499315,-0.007972313866181354,-0.015023024469274475,-0.035306421453483686,-0.07527410505056754,-0.1352203248187313,-0.21204417766641764,-0.30139169977334146,-0.3888952369186382,-0.43987206729946116,-0.3942730878354236,-0.18560480296091178,0.12622023740149782,0.3226164009471596,0.4032595369387496,0.4451345338388512,0.4579069248318847,0.4219153090598629,0.342244950176502,0.25628921130173493,0.20518815320298386,0.21175855357679849,0.2675175903955904,0.3473932986475077,0.42926033720421797,0.4971564384944411,0.5363204422455733,0.5244519507873515,0.4344580088014553,0.2754585268658618,0.11068751854802818,-0.013309946210920184,-0.1029677776551982,-0.17811509005274467,-0.2438983224936986,-0.27120804326354,-0.244608446905952,-0.18486274849105258,-0.1121371409240809,-0.03708310390177343,0.03391683441370887,0.07996327666910323,0.08630646595142343,0.07237827321171503,0.056035454402907345,0.04746647654751493,0.034001989189615923,0.016621511156137754,-0.00511469143738938,-0.04721211325364971,-0.1313815329407011,-0.24674600580092276,-0.30986446029773435,-0.3169757136285195,-0.30205407399373707,-0.286467315286199,-0.29330406907761003,-0.3323833764013273,-0.3906650530401226,-0.4396587844437609,-0.45888001017992897,-0.44732889399361025,-0.41494796361923897,-0.37017293353222697,-0.31707279350143325,-0.2579650428387991,-0.1966244493606471,-0.13845247083250453,-0.08813375059047289,-0.04826378250797302,-0.017208008932996458,0.0023054447222999003,0.031047368916555334,0.10867730269230204,0.30260672443869335,0.48520332488967777,0.511223183975713,0.4404397556515757,0.3701306560172871,0.34517424004046005,0.3709832570807546,0.4728009073760965,0.6321136669392341,0.4123925399546723,0.23836584693312815,0.1800653054091749,0.18664961312162442,0.30341587690889543,0.645565452313005,0.30616519483107413,0.2380245612685105,0.2550424032951424,0.3082850368789028,0.3248931415554061,0.30455875644504904,0.29895820555853164,0.3082654776093744,0.3217357606655873,0.33752530431495814,0.3512193653718158,0.3480790132768579,0.3139117340571052,0.26503524070777107,0.22667276597598635,0.20791328460982822,0.21326988584787115,0.2538007708747107,0.3548768731369664,0.535634745986253,0.675840892468802,0.6310980700638045,0.5276868136040107,0.4343033603636896,0.35708598201132863,0.29425259437376955,0.2410266570222984,0.19242590326435904,0.14606864868676503,0.10201871556866703,0.0612814009121925,0.023555658182204543,-0.012622274734007455,-0.046168022673224056,-0.07511112816405698,-0.10211713603237996,-0.13027200263272162,-0.16107193420503946,-0.19540383373208628,-0.23253965571067556,-0.2720846490334697,-0.31524172050275334,-0.3615693883319083,-0.4112724586254353,-0.46396134885019324,-0.5209341799522716,-0.5918710001751935,-0.6940084296269025,-0.8086260982309865,-0.7688421742346853,-0.5880817451007545,-0.4592032198901457,-0.40013187249535653,-0.390850486249226,-0.4274040275253984,-0.5266750540803508,-0.6944149170488414,-0.536965091429762,-0.25461196000799957,-0.12010107457299428,-0.049590814199242904,-0.0002523475815373368,0.058710665128714326,0.18340966624178948,0.38042727050612357,0.2601402258024558,0.18002843209388097,0.14429964736364806,0.13026910509192693,0.13340453394377197,0.15374660661992262,0.17725252353386226,0.13063887603421304,-0.07481065738130822,-0.31219645869221463,-0.4977484831541142,-0.6048945951404995,-0.6176443126929473,-0.529068609403914,-0.33327766571634565,-0.06079706074334271,0.16760248260560132,0.27579401102090967,0.3023078918587049,0.29501057786497425,0.280089813874039,0.27530546458997507,0.2917744429752962,0.34609856500276576,0.4721679717960969,0.6337761086299236,0.5068104522654923,0.3332484580436659,0.22365041016317921,0.1424067444346695,0.07607130029467042,0.024941587892477076,-0.00942453427069452,-0.030354903116547625,-0.04920845922123532,-0.08034861536698094,-0.12776037417749814,-0.17876527085427085,-0.21549887771067414,-0.22821622085356422,-0.21710641564132768,-0.18481670204076375,-0.1306669575611466,-0.04688895988581964,0.06498101366019762,0.13056645663923727,0.14008973413036205,0.14804010793954475,0.1799675514928045,0.24257079731348938,0.3229794666086292,0.40618575939259455,0.4799015096710347,0.5440786687967645,0.6027504558921905,0.6535733637603706,0.6676407813764661,0.6041067720933472,0.5111203301768916,0.4384408818416052,0.39008378742914906,0.3485549487539074,0.2949218166449493,0.20988577226974856,0.08264736902680425,-0.05930098261673554,-0.16376662622506485,-0.20896094806537682,-0.2089713905624036,-0.18417971930227062,-0.14820086397384435,-0.10749927860408555,-0.06832983118852562,-0.03789294892284382,-0.01825533536700439,-0.006160986218465926,0.0006820555971973373,0.006289083944913619,0.01449043829708304,0.028460308705200357,0.05431448896393297,0.11934430922818699,0.23840398892319853,0.10390450190378835,0.059680060389426706,0.05783684009425234,0.05502865414458261,0.05095178693032714,0.04565344511737823,0.03954230572337674,0.037595229329583355,0.055578379047436635,0.10911648134699854,0.2610745170699023,0.5199352405023615,0.4444265053931249,0.31778818325801317,0.23126488343193446,0.15990830270244652,0.09663165232967542,0.04685419366515827,0.019105477059846863,0.012830043417967162,0.02243365801709029,0.042597063853892614,0.07024889863221169,0.10517559308466894,0.16012164244444554,0.262482006128966,0.20235456642235844,0.07901512065960127,0.032230660392432116,0.006769532579558899,-0.016306189815999853,-0.04887565125458003,-0.11185772843398455,-0.2400125190457334,-0.25633508410217215,-0.17939570581461756,-0.13387338667360765,-0.10263788345311461,-0.07551977336795566,-0.04910300574329734,-0.0237412938462768,-0.0007307807930601255,0.018924301097994287,0.035857237833470286,0.04994245032305056,0.057553694981679386,0.04745582683824411,0.023442825977680413,0.0067986062305603195,-0.009468069169320562,-0.03785443569032908,-0.08603556622411385,-0.14851855990207252,-0.2168180388159893,-0.2827782975982163,-0.34635802107699903,-0.4146082164578236,-0.48463824465514804,-0.5466376767550776,-0.6157883332835414,-0.6994646360723625,-0.7694312796961866,-0.7982280642042706,-0.754179244558741,-0.5289827183947031,0.0006819546870232394,0.4517047278740081,0.652481403375587,0.7352502568063671,0.7610898895379316,0.7513508351861233,0.7161075507929237,0.6603275818277389,0.5662357537627111,0.4477924328087116,0.34634884841767083,0.2800552803234087,0.2482660838385777,0.24657163971161117,0.2746263839693692,0.3270490419597462,0.3730023213566217,0.34580862978486004,0.2113652578751907,-0.03778477435707546,-0.33255505092297893,-0.42988678711587247,-0.3707761131556149,-0.2819562580585637,-0.2077138526751924,-0.15937500095181098,-0.13873612821730208,-0.14437145599585355,-0.1731064211266535,-0.2185468818146947,-0.270417206167893,-0.3177844316346658,-0.36203219619323856,-0.4254533717756558,-0.4983738064069194,-0.30385519869290833,-0.13733318651818896,-0.0738246455076814,-0.04765174101449928,-0.04042313901868264,-0.034794479337156514,-0.03018195121444642,-0.025661709814809613,-0.020303575943676547,-0.014687777842766082,-0.0040441915166212405,0.016492510131705967,0.04719546288866199,0.07334365990228037,0.08235283682067389,0.08716811500617004,0.10516172400740266,0.14835234013109574,0.2188194986073171,0.283498005051464,0.30383270387946265,0.3016019937845816,0.3043850424856957,0.31675082393572473,0.3303525808805791,0.32912453632731387,0.31522669214073695,0.3125756605825202,0.34660754388109066,0.4305955826878929,0.4588011955151733,0.30556089784384305,0.18938653333478325,0.12788884401216366,0.09260006308069713,0.07151081871269625,0.06072228401482009,0.05545400420986384,0.05029993031769833,0.042217635676369006,0.03306979499774747,0.02782428375486246,0.03056290064671889,0.042184063309484966,0.05931841922387473,0.07827568722244463,0.0979341913373038,0.11733286087642857,0.13233097098519347,0.1356654373018916,0.12286166584246978,0.0972278733652469,0.0655266893246717,0.03728572570683339,0.022739063294704518,0.027310536704271905,0.04703244227367296,0.07254626477565247,0.09549341823218097,0.11159276438588352,0.11959527607092636,0.12240695956581493,0.12180300176780345,0.11536104023082804,0.0948912226672081,0.04769835995800934,-0.03526223748014056,-0.14747990497324642,-0.2699688404415628,-0.37812661163647804,-0.44021471685215624,-0.3651597275807752,-0.08951744099914523,0.08052272737705057,0.14650506153717738,0.16552467786949687,0.129232925654126,0.02053070107849798,-0.13468746349721772,-0.2802767622621895,-0.37949891084732224,-0.4141648201256985,-0.36380065699688213,-0.2030926081818041,0.05438860933586456,0.29722729531927305,0.4250671111236959,0.44800444522219107,0.4171453343950519,0.37879007156165634,0.3551695656749324,0.3515081177903756,0.36380199267496344,0.3669504913599382,0.3166903720358458,0.2544568301058897,0.21896416381892603,0.19892636527887558,0.17345161850463683,0.12089634291347422,0.03591977378716941,-0.043282977893154585,-0.09321553140039845,-0.1225791643449065,-0.14795866646271305,-0.18643765949080582,-0.259499717612815,-0.38260246375244567,-0.5198148821446911,-0.6155310466948323,-0.6602036041315598,-0.6550802320436163,-0.5923599237865849,-0.4766907353248963,-0.3435715902097941,-0.2415214727752988,-0.18565412755979108,-0.1646962092930322,-0.16499531646395382,-0.17965597161676622,-0.20967064309001407,-0.23776968621949537,-0.145052569201468,-0.06130140723141242,-0.026330907374270456,-0.010031883027754533,0.0007294713937435862,0.01261288338590563,0.025577973875035152,0.0439701607269888,0.09063094998143399,0.2762741525602028,0.1960428522741833,0.09087760165013378,0.05652277439763575,0.03892985573385557,0.026712478983820287,0.01684019879152702,0.007060249780851725,-0.0053754465943726135,-0.021053723909873794,-0.04464868015852048,-0.12317650957888764,-0.08297885725777465,-0.027378746167426818,-0.017255921705450095,-0.01417689312144713,-0.012997112188915503,-0.01220809507209379,-0.01274618209026275,-0.019607949313849217,-0.05560014400029477,-0.0966843640898184,-0.14086372857237062,-0.21069431240455064,-0.2945639188362015,-0.3545763022631466,-0.3516027456685594,-0.2739177825702587,-0.13726468960704383,0.024758209178695697,0.1753494244663039,0.29359308643379883,0.3014135547454011,0.2488778997207709,0.20197728688545205,0.16398364979574392,0.13693124419307973,0.12515454518444222,0.13115438950076946,0.1477938649968686,0.1612893107370898,0.15937662123903004,0.13154649041188196,0.07066298731857923,-0.015301750842110187,-0.10319768199049387,-0.16795079629659626,-0.19551408822354413,-0.184218922134439,-0.14203321809600306,-0.08425696486636275,-0.025223823178083873,0.02503966191496052,0.0645184262686973,0.09465613999597165,0.1173830237522387,0.1442542640995844,0.1971930594798705,0.15674219881802798,0.08330462253367336,0.05770807664250997,0.04988632179135547,0.052252595452986744,0.06158681182216878,0.07495910805521423,0.08922764455044277,0.10081240109204356,0.10637724189304791,0.10431709065424054,0.09438144394265478,0.08172530625556529,0.08313253805646505,0.15266160334126652,0.3105710141368543,0.276137222046074,0.2783300195010403,0.3161406572384215,0.3638055071709576,0.38355988473621216,0.34014476750020134,0.25519920952325886,0.17957427176958451,0.13517837388998985,0.11772489162009278,0.11423933440351508,0.11122011008179362,0.09380855651025158,0.05102273552175236,-0.015339300332041296,-0.09269028852671779,-0.17086885962599668,-0.25819926270410604,-0.3786616180748254,-0.567413256709981,-0.7586614625819637,-0.6128134917539142,-0.3696124463617899,-0.22033699239029086,-0.13352623846488307,-0.075492683035206,-0.023979870158973474,0.04694785100017068,0.17298069196872867,0.2397857413691685,0.193451748739897,0.14548293718308136,0.10419003900199127,0.07708274777369359,0.06644512459437557,0.07100679046676726,0.09026681619830525,0.12339380022135182,0.16600030749416156,0.17598368162721625,0.14286635646620227,0.10363919850929477,0.05938275692716171,-0.002411578750920581,-0.08295907277250887,-0.16977148600365172,-0.24335208380764223,-0.24274309953944204,-0.04021676419626579,0.03769612201161326,0.01838166812094594,-0.04159626989555787,-0.12146983793698211,-0.20544420162140667,-0.27879390621788047,-0.31832951282628946,-0.286406430201529,-0.14226509919625785,0.07868350254016787,0.24726694623501108,0.26372967873854447,0.05201050538535723,-0.42281158831055426,-0.8387990381983801,-0.9426646860409744,-0.9064388560470733,-0.8470807909534684,-0.8167482739353156,-0.8701555128429274,-0.11452639025702566,0.16569286589354665,0.18792832363156967,0.18261738664883,0.18805775443286812,0.20862775312309426,0.22757652290748415,0.2351630580414347,0.23241970504392306,0.22526337129763976,0.21835199838092234,0.21360952870673877,0.21431791648049628,0.22764322890887673,0.26732096863188254,0.35539478841333166,0.4954073701795376,0.5896031202394174,0.6303439730272069,0.7208189383378881,0.8305585641599974,0.6349080086077268,0.33033466309362786,0.1548048703895969,0.055211957940496006,-0.0030735264190288165,-0.02646174692851149,-0.020347080479010522,0.0019726845528665457,0.03373517624377244,0.052156492402902745,0.04420605894060397,0.032008329177590805,0.023150985435041276,0.018063426137389794,0.018985004160948542,0.02036496149676989,0.02065601172480279,0.0187861620868516,0.01396148545308196,0.008782868365317146,0.000981482758058804,-0.006924947435326419,-0.003788377475103573,0.0212594916212757,0.06649722195208856,0.11176478066030568,0.13697304859066395,0.14666733149941077,0.15659261630304355,0.17555037548563565,0.20539676806342677,0.23934493165851312,0.2672710977814835,0.28028968587019915,0.2724491355591113,0.2481938858218728,0.21911995490474623,0.19903226643150002,0.1980152230613264,0.22155664647126497,0.2650748242545075,0.3074680452824686,0.3287913044933613,0.32558220318652104,0.296937560093451,0.2426083115592696,0.17098185786014777,0.10527902860413318,0.0637933804653852,0.04500942807756039,0.03730342927505569,0.02812533342306383,0.01125910518061079,-0.015301858406106088,-0.05660640214283248,-0.1202465012893137,-0.2160241469314901,-0.3405146517510155,-0.4703993271695014,-0.5787078200349246,-0.652661098003099,-0.6905623010038444,-0.7063187267940302,-0.7246373236149075,-0.7613974109290663,-0.8082719987099383,-0.8446481136162249,-0.8649078148154238,-0.875597640917413,-0.8742597837815885,-0.8394849257001293,-0.7350847282714124,-0.5397655874916031,-0.3058630403370294,-0.12559685808178853,-0.03347447823694668,-0.009207216831550505,-0.013485412458067015,-0.010311226243076121,0.021436526140652352,0.07975610890215679,0.15040231411399577,0.20968244695856947,0.24569972696334771,0.2647577828570677,0.28156666359277954,0.30599726624506945,0.3382937043686736,0.362776332982657,0.3429213779950983,0.2795195200528501,0.21649621072017614,0.1704747280235285,0.13809012101095605,0.11383253200414568,0.09589287095333676,0.08882807262489036,0.08902163707311109,0.0890729566830753,0.09643643821723775,0.1300599893160538,0.20223077665561554,0.3286974096442496,0.4116616593308199,0.4287439777881831,0.47454532509807773,0.5510994521980472,0.6215531814328732,0.6408994358971252,0.6000564114740983,0.5303803066908517,0.4489977582632124,0.3707984238416745,0.31009598185204384,0.2668093616533946,0.2346112413594267,0.20988601833541198,0.18994383387101385,0.17809918349392162,0.17969005809282307,0.201536929126996,0.24244931086618368,0.24790319909991754,0.14588878998488244,0.03539735242620021,-0.04425345506065943,-0.10937974419028469,-0.16911973409572148,-0.22393680111594177,-0.27196958998084964,-0.3034721110174903,-0.28789311464089634,-0.2178884780633404,-0.14135821553286107,-0.08381597727612257,-0.04399421722719907,-0.0184698098326759,-0.004048341504179088,0.0021070855300796614,0.0009426623317036816,-0.012966739706138276,-0.04167974787097937,-0.06136629867502575,-0.07132273852295927,-0.07693401314724309,-0.0781789151960689,-0.07260504969471097,-0.056777919936880146,-0.024404552646201474,0.03501253705752761,0.13965468897857164,0.23231204265422076,0.17179985874294812,0.09116216421002328,0.02531986405307597,-0.04664621533922419,-0.12997057869155515,-0.21537893593532056,-0.28035613614776417,-0.3239270048703868,-0.35912177196626055,-0.37289236381647173,-0.30947129954510216,-0.19031413374193348,-0.09843922355685208,-0.04166551972366209,-0.003019972766394401,0.026693522419111063,0.05408118500178019,0.08449138036976392,0.12076057855099609,0.16146332635348076,0.19914500885704856,0.22233775946822348,0.22299960408584912,0.1973216023029187,0.15238342623056636,0.10303158250666372,0.06299653272396642,0.03779674463722191,0.0251970726811355,0.016385652495812406,-0.0013761217093134377,-0.044783099972577955,-0.13375212375385384,-0.30740333190434194,-0.544068168077979,-0.4697722375742345,-0.3246537552884592,-0.2432615481250815,-0.22626979951343926,-0.19439620874224012,-0.15589158683601329,-0.11829578872808934,-0.08478520582905678,-0.05591010485848799,-0.03162861742335995,-0.013750259284752998,0.00012924079662240704,0.011672810934129715,0.022084603770594076,0.03643226481221527,0.06512183322692111,0.12181327388142078,0.16654072926099894,0.15013746170359335,0.1299798113629981,0.120054801250804,0.1147874021599354,0.11123540572432684,0.10756283580707089,0.10241698260657955,0.09664060449876283,0.0911801133169528,0.08617677543318056,0.0812380918617855,0.07737143427497327,0.07684606447014906,0.08344337690876603,0.10325107056185479,0.15762281854916116,0.3575290770238338,0.4121472964835466,0.1981550130231389,0.1389440733427501,0.11719444198250177,0.11068188216321058,0.11397273703234034,0.1268407801676505,0.14959969828407263,0.1712076903494048,0.16578533063078588,0.14990756340744937,0.1595117377366562,0.20268674637582698,0.2340293405874138,0.1795170186103815,0.1226288249343297,0.08452211239408274,0.051233958999461995,0.014449448662867004,-0.032000059518908046,-0.09073782345773701,-0.15414497759537407,-0.20009389478468434,-0.19213838305830205,-0.10261307603851216,0.042838689931188126,0.17125286071114063,0.2491466570887815,0.28554624059965583,0.29222464643361784,0.27597966825298936,0.24042814017666184,0.1859653797334795,0.1152973824659421,0.04497584446772846,0.0013942154080056769,-0.006800798847761269,-0.005771296264329881,-0.012906103894407241,-0.025713981141499743,-0.03554417103227931,-0.040363953132295176,-0.04045097425769321,-0.03309809265090468,-0.013610499895225047,0.03077396347609315,0.07510583815801708,0.053899498535213995,0.016728008203144625,-0.019046160501295043,-0.04893876826381402,-0.07060173864305636,-0.08287930298923542,-0.08689421985785296,-0.08461061948188249,-0.07792846022534859,-0.06784685171273401,-0.05997334301239806,-0.06292372109932946,-0.0661478290106237,-0.038438389771063224,0.0107179141836301,0.06580716656138749,0.11814197296407693,0.15394021336700248,0.16667703467002715,0.16553820565970628,0.16253979684996583,0.16081492857217422,0.1624291567925293,0.16609280722988143,0.16849794218556988,0.16123423759498978,0.10911257968674183,-0.12505888081764846,-0.19538730818364827,-0.2031047734344435,-0.21900355776928956,-0.26000991875324514,-0.3446766140376528,-0.4589758256265378,-0.5108492474350208,-0.43289976315301737,-0.2875620303124063,-0.1906366062950847,-0.15072119125343006,-0.1483703451338092,-0.1671432285283186,-0.19296302893573522,-0.21630395458551674,-0.23245332208279704,-0.2438469043976595,-0.2586977423080625,-0.28392944265894704,-0.2338061814398618,0.003956233826464013
