-0.748386717342708,-0.7092168513265368,-0.6587459081464668,-0.5945479790069562,-0.5142943204352992,-0.4398767826527557,-0.3847606980248288,-0.34562026563594767,-0.31763383481222035,-0.2965784686441591,-0.2940478098282865,-0.3058574713611013,-0.29647804946384293,-0.23191205203241427,-0.10157339436865845,0.0809923341960882,0.25312058179001107,0.3576865129949736,0.3522681322577931,0.1956826665452708,-0.13838166519576647,-0.5166165100358564,-0.7528393954962234,-0.8456052949516929,-0.8765894709577994,-0.8797117659176771,-0.8739296657357577,-0.8697351966245063,-0.8744183517741917,-0.8840376976165404,-0.8969156113880012,-0.8993433774079984,-0.8734317609638095,-0.8176163174330394,-0.7137725056158607,-0.4973074745428245,-0.07511098752954853,0.3146990526227781,0.5001300290257759,0.5760624013487284,0.5855297043327904,0.5329232325802326,0.2618832233656279,-0.46727195201683175,-0.6458094374486929,-0.6469419391718245,-0.6342400278682307,-0.6207697034523737,-0.6057507467079307,-0.5945059238490941,-0.6075331574837193,-0.6744191106903934,-0.7779905213197201,-0.8665422892474725,-0.920739727727197,-0.9493068931750213,-0.9629107645171996,-0.9664896881284063,-0.9625906362191274,-0.9529439748017423,-0.9427534063664806,-0.9373692518754569,-0.9356818574637007,-0.9326986685312924,-0.9234223835283824,-0.8825260224517579,-0.6926903224076176,-0.1996311072819711,0.28416779922153124,0.5441427598361905,0.6735605507798167,0.7484455201583066,0.7984590220713211,0.8332106994782216,0.8562419100165991,0.8729865909573525,0.8880243314413121,0.9032920928699136,0.9199011414554308,0.9380650508099152,0.9559591914151451,0.9697637182405892,0.9781949473098063,0.9820135554209553,0.983051023488204,0.9818988840123929,0.9778426637785594,0.9678956489005254,0.944177034274829,0.8862180300003455,0.7458864292497899,0.4318119679860874,-0.06837088565393773,-0.49160569877407545,-0.6742690930109924,-0.6986848713226488,-0.653738146942805,-0.6040522211073269,-0.6028923783842539,-0.6763593106732742,-0.7800843825292073,-0.8668125002117626,-0.9193144458642076,-0.9382524186810828,-0.9368839630409291,-0.9294444908717748,-0.924649990299296,-0.9219337569581871,-0.917048542050968,-0.9082105185792321,-0.8990907172222966,-0.9001039206201753,-0.9098093856730467,-0.9210586302285607,-0.931537592668475,-0.9394809906084979,-0.9398359395155123,-0.9304158617478828,-0.9140520252884431,-0.896735570018317,-0.8823913461152573,-0.8710058582862935,-0.8595846679840654,-0.8472184730621689,-0.8344002052175866,-0.8192793170023717,-0.8024142267247083,-0.7895920464693141,-0.7863338216157637,-0.7903655502101065,-0.7907002415815685,-0.7840948827697203,-0.7774140995308084,-0.775105022243256,-0.7755340277147172,-0.7778776496336427,-0.78155751612918,-0.7828140499021081,-0.7360853585989662,-0.5799031138409616,-0.428046293820138,-0.3756406957586473,-0.4255161359413208,-0.5349007785473945,-0.6317080030022989,-0.6837321846472677,-0.6837361369235422,-0.6107436335357675,-0.4629725907959279,-0.3058217159326136,-0.1681449583215363,-0.03314744211414963,0.144600161082498,0.42304143826128143,0.7097599594178255,0.7954932470228863,0.775767126565059,0.7517979405610128,0.7477273224152138,0.7614232035605548,0.7834312735856402,0.807425227479701,0.8299176949688413,0.8453672182067002,0.8534401416525377,0.8514573656203143,0.8411724650105776,0.8278307077945236,0.8157590155909377,0.8086264918537801,0.8104934272679392,0.8190281576814663,0.8251750224633261,0.8153689675626611,0.7862920198347095,0.7509159460848459,0.7154793734301494,0.6680788786730082,0.5940179212765571,0.4886714348313109,0.324026029542986,0.0694777529373018,-0.23574880988473515,-0.42987968927767145,-0.5227280524726522,-0.605027300802901,-0.6907769389682248,-0.7776219017149916,-0.8534837454480789,-0.9068424125166211,-0.9306067828210085,-0.927359779980582,-0.908723744602766,-0.8892931273641155,-0.8773007750428576,-0.8737004945449265,-0.8768077702746375,-0.8766735372484713,-0.8589153421955404,-0.8132691187252024,-0.7322879692104564,-0.5913282017424155,-0.2671155016628457,0.5274108192795718,0.6468430945922505,0.5710877174519737,0.5892834122103465,0.7261342444951692,0.8871763029380692,0.9463430877834733,0.9387970709506585,0.9197956431622014,0.906156490056803,0.8991031224490019,0.8990662303872619,0.9066204701091534,0.9205345508445869,0.9368362283540442,0.9509824899583322,0.9607279585076417,0.9661708758462645,0.9680488397266037,0.9673783890132581,0.9639209772629225,0.9559357606216482,0.9427695922499374,0.9262983283294932,0.9130347200659723,0.8994694348336493,0.8283550338239026,0.2952859684549192,-0.47734351535763525,-0.6839414380430984,-0.7315139910403159,-0.7425438218114473,-0.7466057234575917,-0.755029900503413,-0.7682403982954891,-0.7842797493068007,-0.7919476446197239,-0.7859209392805223,-0.7763496066738258,-0.771994962613803,-0.7733641835188122,-0.7747277336759355,-0.771813299797046,-0.7776274311079148,-0.8093398590357602,-0.8519482639436531,-0.8778320620811755,-0.8934118248069615,-0.9075013257082204,-0.9189158848681406,-0.926648157025979,-0.9342510226501032,-0.9441061301402713,-0.9545652420443503,-0.9595632803504024,-0.9550044127693689,-0.9463090860201576,-0.9424501285581882,-0.9450678525013918,-0.9502135543821081,-0.9533831656554764,-0.9528087019301713,-0.9493300987003923,-0.9264020118904825,-0.8492690160988602,-0.7086824958633485,-0.572824973111271,-0.5063223955952623,-0.5252364594420738,-0.6008567730538299,-0.6859733546878354,-0.7461524662645291,-0.7779651606496936,-0.7912876976949524,-0.7942896933045452,-0.7886790622757937,-0.7721766184609495,-0.7401689026217205,-0.7032317987623193,-0.6874085005427104,-0.700778476280449,-0.728341792542812,-0.751766041632547,-0.7671902378387239,-0.768803626714539,-0.7573026043207987,-0.7397388435412486,-0.7302763868711866,-0.7503243217594949,-0.8126118649585498,-0.6269644342469861,-0.023065470308162733,0.1809312125704608,0.24749616092152965,0.29271925722234976,0.35433131781157096,0.4509419914822431,0.57608810390067,0.7087643232103192,0.8094216005747251,0.8624799796432742,0.880200450466391,0.8827869497025336,0.8830710420479462,0.887326413769271,0.8932142574755012,0.8979964445700691,0.8992786722923582,0.8977840577724915,0.8945672455389233,0.8912514927758557,0.8907380891577048,0.893587539014025,0.8969355540156662,0.8980587594155627,0.8953634945812217,0.8896695431025577,0.8781375251078296,0.8500959966659261,0.7747265345782512,0.6207927368101142,0.41420355998161185,0.22853496459255665,0.08230903032855656,-0.04739295612368297,-0.1430037062782206,-0.19462727825572113,-0.2354220461281494,-0.29775789133215985,-0.4015581769539059,-0.5434896095790975,-0.6836772723439875,-0.774654505214044,-0.815659433466523,-0.8357367436662428,-0.8512263797483313,-0.8558243439546538,-0.836500037165989,-0.7803640372204953,-0.7055415517744708,-0.6521557644111085,-0.6332812740501252,-0.6435454966420205,-0.6700238231748195,-0.7037568056637513,-0.7354744870568266,-0.7597463003774899,-0.7756667041415463,-0.789830532452438,-0.817923669559847,-0.8742129892129853,-0.9382332943666325,-0.9615907457479154,-0.9258796465809767,-0.8452181889873269,-0.7311903288934991,-0.5891683631031855,-0.4154779083492483,-0.17856844244977432,0.11730587894196651,0.3724399866000741,0.5317781818230437,0.6320006808013084,0.7072662663953317,0.7596672511019997,0.7912309111291153,0.812032450465448,0.8372778069395022,0.8769237228316407,0.922219901298424,0.9563982646639134,0.9730222059220576,0.9801805992018039,0.9830305784232989,0.9817047894280602,0.9761895358569878,0.9675133731683312,0.9525714128675108,0.9256032248379228,0.8942124929813625,0.8703706662671161,0.8507663860783412,0.8204611834235267,0.766203689095287,0.694261079359036,0.5953499373956924,0.43036199057186114,0.1410418210601539,-0.2719126609161482,-0.5955797416187029,-0.7521136990354315,-0.8142023929941299,-0.8337758880793901,-0.83270165784732,-0.8264944363113774,-0.8196384228697579,-0.8080657937268233,-0.7837603775967686,-0.7483336048262308,-0.7052001257835652,-0.6511631976023186,-0.5626468820339098,-0.3699702690395197,-0.008846317002307074,0.30108280679590504,0.4356068445740658,0.49101905380162303,0.5172421575210134,0.5241876553052374,0.5053496611958045,0.43845962223421997,0.2753321696742332,-0.0002776498934400979,-0.2187645366837688,-0.3175228016800252,-0.3570927753729499,-0.3661776884140174,-0.3569094269568997,-0.3390061805171844,-0.32499309959329137,-0.34249864778297556,-0.4247371499261862,-0.569892505005876,-0.7315247799619975,-0.8407781139256354,-0.8915699764720169,-0.912118933560659,-0.920990554090306,-0.930668267562129,-0.9430645515781015,-0.9473829383695038,-0.93535585237829,-0.9098763385467038,-0.8749931117239823,-0.8347965303924487,-0.80196791872698,-0.7931217575994156,-0.8137300184933065,-0.8482388695975916,-0.8802259815220643,-0.9008842314187396,-0.9085166293248267,-0.9038285365573758,-0.8870537956973514,-0.8559182905142593,-0.8160329590034066,-0.7738293296360589,-0.7257219199991543,-0.6642005153305989,-0.5898562380112848,-0.5017434817005196,-0.3820403196111916,-0.1490724015862119,0.2671294759224787,0.601164676738786,0.7587656151373188,0.8178024770918281,0.8293670571893226,0.8140462812916466,0.7815487198441041,0.7335604434491638,0.6697285827950162,0.6147208145230701,0.6019519260901381,0.6119326867080722,0.5958085105284399,0.5457248180806844,0.48841878171990327,0.47683237482678414,0.5033791646113984,0.5415118032616305,0.5372360574032904,0.4739453358996286,0.38872452467054863,0.2886539945090546,0.17068662951001468,0.0193690339955279,-0.14351451810237875,-0.23913898973643405,-0.19617605986283904,-0.0015740476803383402,0.280742075916916,0.5375204471547779,0.7155124738185012,0.822391064266714,0.8896931940085391,0.93970553516924,0.9725466546981775,0.9864243618731262,0.9854272503345882,0.9768634904409531,0.964858329852584,0.951591539587585,0.9413539143011652,0.9383931771245678,0.9397559827019968,0.9400422546694913,0.9395874238256828,0.9393003682122191,0.9399500599483495,0.9408190393487303,0.9386186036451021,0.9329237779437645,0.9230404849308951,0.9068465859908222,0.882688482575954,0.8561646935417283,0.8388598669852766,0.8287741440134659,0.7185755614326679,0.08927641608217889,-0.32265273403480166,-0.4353577121611695,-0.4129353715655959,-0.2712697578858544,-0.05502142227502326,0.18209812503115053,0.41148023435362086,0.6152237655641508,0.7707266477766586,0.8631226048733754,0.9050938416020194,0.9256751884957389,0.9379748681229563,0.9309534995007961,0.8698982443010521,0.6113729922951402,-0.044962574416188915,-0.5866132413794575,-0.8127101062280071,-0.9050569514751222,-0.9388410894346676,-0.9354601701281589,-0.903188714895443,-0.8537526940711408,-0.8127971914445511,-0.805698745283055,-0.8273811524725576,-0.8386041034780796,-0.7706711059005024,-0.6417239531134626,-0.5089409264269836,-0.3976916689326257,-0.34359556723427753,-0.35783252116578035,-0.4150761225079431,-0.49025560727014794,-0.5429699893017285,-0.5501120080765692,-0.5194410724470471,-0.4634674173402738,-0.3925163493663833,-0.36350636486557214,-0.42432970372817247,-0.5364827953744913,-0.6304802816994346,-0.6857258024492752,-0.7123777483440275,-0.697887921268434,-0.628678278485281,-0.5382457167415936,-0.485802128899976,-0.5033927674723501,-0.5954159052816387,-0.735218402778209,-0.8564215654568672,-0.913502543790639,-0.9220938423205083,-0.8929294409482124,-0.8332484213866828,-0.7744263382802183,-0.7627208336621465,-0.7997160001508737,-0.8362029525133591,-0.8548288341324368,-0.8680720323826118,-0.8804277536621689,-0.8903490255494437,-0.9006554324475171,-0.9151931589511206,-0.9182412598065431,-0.9014071187677752,-0.897866684581285,-0.9106051322778989,-0.9219367620157707,-0.9185702477308587,-0.8989909997543731,-0.8597477486100148,-0.8061578454329311,-0.766544243252955,-0.7647415855947822,-0.7930857644455594,-0.8127175519730285,-0.8158812045262948,-0.8186549209679101,-0.7515994727060832,-0.540481190800691,-0.2569001431412543,-0.018758423733719085,0.15426173318404096,0.2868108762016456,0.40901662823355805,0.5358811346705606,0.6586537680632198,0.7659506660043481,0.8417331497862683,0.884024862610954,0.9045396392290433,0.9183967293554294,0.9358273200444911,0.9548152335040683,0.9626125940597408,0.9463229618496214,0.9136131621547465,0.8929586560576843,0.8929906348191169,0.9029507497208339,0.9144314522932027,0.9284904117873065,0.9457186375584384,0.9598262781519417,0.9636627103415075,0.9561362411054275,0.9385380451559158,0.9117662009775802,0.8743580912179508,0.8212908520384838,0.7402334447192516,0.6119450417434706,0.4290455135515761,0.19072278798415354,-0.20697238518954558,-0.6834945436215826,-0.6799418116588543,-0.6196649156379196,-0.593585475341684,-0.589038777689358,-0.5828555552894013,-0.47807305268355077,-0.16627595402577022,0.0972007701953847,0.24745071862429607,0.3333468476070452,0.3804104639372512,0.3940357538031308,0.3941927617900541,0.35332145338932036,0.23122206001914383,0.10484026200035372,0.018277560269229953,-0.04193991745291489,-0.08941787459907963,-0.1406558596424398,-0.19725536358384022,-0.25284017885385623,-0.30499739201965176,-0.34803189497356696,-0.37311504354894526,-0.375161942588068,-0.3600797524375268,-0.3375401775937246,-0.3106466036532604,-0.27110559677609786,-0.22594835804261118,-0.1811684161805606,-0.1447202812618416,-0.13981089669820615,-0.17575623153564643,-0.25274297404637397,-0.37542005288625696,-0.5452910599434017,-0.7272574465261854,-0.8614919692112973,-0.928596062607027,-0.9560276813415302,-0.9674100627384541,-0.9757473155988517,-0.982078183487674,-0.9819445701891253,-0.9774396540475628,-0.9677548300847698,-0.9264679837312734,-0.7998747336860652,-0.6179171728420182,-0.4848578540475004,-0.4412803250614531,-0.47764812645152427,-0.5606548838621224,-0.6357457970965585,-0.661474834340376,-0.6447625417046026,-0.579326118498138,-0.4458983000711824,-0.27760488495491514,-0.133483342551588,-0.020609397221689755,0.1107120565316745,0.3123890727241683,0.5811083277194687,0.776386656573847,0.8499825512921209,0.8723096583810752,0.8868448852482536,0.9091039358957177,0.9370742036093714,0.962119893628256,0.9773944921806962,0.978474175301873,0.9678172114330054,0.952173461862881,0.9372813859216648,0.9227606147448089,0.8959639572365352,0.8306459196692793,0.7226381973426634,0.6186739400603127,0.5544214422182443,0.5270862686402603,0.5164530664920164,0.5016157071004677,0.46469084780494735,0.3879321308316573,0.25163219876685244,0.03657884732652109,-0.2159343119483041,-0.38998386716783157,-0.4464189530041542,-0.43879772230155084,-0.4178329761665138,-0.41413366426619214,-0.4471131575597108,-0.5251950579692318,-0.6298737130922145,-0.724552629814858,-0.7932881421081169,-0.8395497501229959,-0.8697305778046817,-0.8887221039446105,-0.8987758960670099,-0.9003036895920342,-0.8923706008168822,-0.868039132795112,-0.8141334263669018,-0.7125012854372242,-0.5336225788182184,-0.2703876092446634,0.036431172510693534,0.28549011939397667,0.41538441421107386,0.45586141648469874,0.47346891882565406,0.5194316152918733,0.6067042231784673,0.6924403344720471,0.757197784878695,0.8057645233298967,0.8441157984102046,0.8724070370994823,0.8793626484679788,0.8269777445218838,0.5297950080929181,-0.13077089216748117,-0.5112164971259179,-0.6416160346254905,-0.6897421902133891,-0.7017733819594352,-0.6971078295612692,-0.693149000732251,-0.6997362892008475,-0.7218002515729033,-0.7509873054340355,-0.7696635818729607,-0.776771942037904,-0.7718947913219191,-0.749831183693014,-0.7102315386518722,-0.6521556281802116,-0.5745611591377671,-0.42461800773597386,-0.1778687343903453,-0.02630570486641875,-0.043006865091740676,-0.18276300712875423,-0.40158665945604993,-0.6205819822233655,-0.7563250837005975,-0.7697402364458787,-0.7096072776115486,-0.6285592751550629,-0.563208142556048,-0.5425715627444123,-0.5960059946443425,-0.7067272240632074,-0.7936293406215303,-0.7929285735200826,-0.7550406346803098,-0.7305311524856954,-0.7205646100052296,-0.6987992333546262,-0.645655517568678,-0.5758436491044234,-0.5211304372297049,-0.48188920435977145,-0.4446990442453628,-0.39873957249898007,-0.35515891126240945,-0.3757521682478299,-0.44768492960512585,-0.5004046021479007,-0.5366169491736124,-0.5717448126632658,-0.6019385601108167,-0.5931102898942087,-0.44179962902670034,-0.1069234190439847,0.13126932636070276,0.2000029117865023,0.23021885305826678,0.27620148923207816,0.33641934694360365,0.3914431124730986,0.4287219917308745,0.4422300031790352,0.4256841783561893,0.3712994911664352,0.27706988549114714,0.16664981099178028,0.1049615013950621,0.1543424427396915,0.2989785640807847,0.44257591267999774,0.5369472950759966,0.6147723273969189,0.6975331159782667,0.7592807987380741,0.7928635367993032,0.8078139655900197,0.815608608522504,0.822304935850116,0.8270374908642165,0.8203182442478516,0.7895044994158107,0.7255909153053612,0.6099643146672364,0.4327878729732694,0.2507566095741421,0.1426956445756001,0.14190977524812765,0.2612567586482609,0.5047491695191759,0.7575361613599497,0.8980283824121846,0.944161188760078,0.9472119394139943,0.9336584143505148,0.9179295016691477,0.9062982785077734,0.8990360922674514,0.8933893026224895,0.8901431704713405,0.8890202237849447,0.8876170321695704,0.887180123952306,0.8884050451532985,0.8898495620240582,0.8896318676816668,0.8906898323583761,0.8892416844700695,0.8782258758737179,0.853896804894783,0.821140184996463,0.7875756697935239,0.7459164943253024,0.7071802248529014,0.6875805422098563,0.6746278394820645,0.6513013611657776,0.6120977535135568,0.5474083314467353,0.4578447864549483,0.36193190970269606,0.2741408363901108,0.1748874069388648,0.006997947086901531,-0.3335679629297834,-0.7072680491903182,-0.8324849757828116,-0.8497308715680393,-0.8507444858864639,-0.8564955725258233,-0.8664263323211749,-0.8669161037570287,-0.8599851125866159,-0.852926019470763,-0.8458426286913024,-0.8360951713919734,-0.8200979742617409,-0.8017831886841044,-0.787534762713956,-0.7848343268895612,-0.7878283861140887,-0.7901975754008387,-0.7897074470162992,-0.7889246143759001,-0.796633315782969,-0.8131260676866455,-0.8306904500774046,-0.8436991567522644,-0.8472883967241598,-0.8408381326802278,-0.8274164447012552,-0.8178516478747386,-0.8149429864151779,-0.8015036059588938,-0.755754562795839,-0.6699273242009791,-0.5566616775593201,-0.4281349285458306,-0.27848274014939867,-0.034875990003110695,0.3577419937627942,0.4219657789251199,0.38540598188499736,0.3663942930086448,0.3701456151917453,0.3940994137377206,0.4469280464481485,0.5271060827702236,0.6127861002424582,0.6655922607364049,0.6642675984689111,0.6030448986284873,0.4530023543869304,0.23664218260149042,0.07433279794995502,-0.02010986787987684,-0.10083855960248565,-0.18136985024359936,-0.2718763492007018,-0.3829898410219034,-0.4759187887201384,-0.508168128273538,-0.460374200434709,-0.34140628750006535,-0.19488643564179053,-0.08761633004288795,-0.042851108894270115,-0.044404397540044355,-0.05259644107101084,-0.057169737208734424,-0.058953612055184526,-0.05356295807575904,-0.01334635155121185,0.12662975525237471,0.5121911322556214,0.8146690303515493,0.875789365337775,0.8952182443076964,0.892439131580413,0.8570926149522865,0.7603369432397609,0.5522688590085127,0.2175363842241686,-0.134769914948836,-0.41936312796523834,-0.5817022344005346,-0.6327917206770391,-0.6411911794070194,-0.6490121049932697,-0.6735899452229619,-0.7187786563889003,-0.7697521439574816,-0.8057817289161147,-0.8201627131941366,-0.8116854773752235,-0.7707751034088336,-0.6926253044015962,-0.5962070053814745,-0.511237324266782,-0.4406492102996036,-0.37009375034711234,-0.28709170753446334,-0.19850139558824667,-0.10783814581316985,0.02567022615234009,0.2760509676970678,0.5777422124085576,0.7594772424698781,0.8496257135032325,0.8963805959612723,0.9208464138347753,0.9324941300583314,0.9366377012686934,0.9346945928659098,0.9256125754455642,0.9060146028788063,0.8699152159213649,0.8063674147514739,0.7001678211145465,0.5387792353831116,0.35152781925885696,0.22096185609878072,0.20242136239157046,0.2650872152662063,0.3236403456710901,0.3070918621428792,0.10311610451016275,-0.23188481983922274,-0.4048741670356325,-0.45850398154423166,-0.4097737092407297,-0.2796303274255057,-0.15515005877182603,-0.11415040861855602,-0.12485480347328966,-0.14188986311699553,-0.15975842046440467,-0.1860994623211947,-0.22550047311861754,-0.2834316314286149,-0.3578434737572707,-0.44124130511368587,-0.5232551587776623,-0.5937713513139933,-0.6623709595368791,-0.7390086445476346,-0.8219927854177995,-0.8934824089894765,-0.9382029158879226,-0.9493640727272169,-0.9337475348862275,-0.907577586494232,-0.8876616491639782,-0.8770942183599463,-0.8774222242330363,-0.8936698747985085,-0.9128207238334016,-0.9070000755407511,-0.8645346388028505,-0.8022839750582904,-0.7073787624945868,-0.49365480966941727,-0.14701989951779101,0.15873441173934316,0.35879226128473696,0.4720137394679538,0.5162022047345052,0.49748070535349215,0.42596669147747807,0.3306721487198765,0.26554616026727484,0.2437115915485663,0.2440557838937527,0.24012459597057348,0.17003711315584139,-0.09697890516886919,-0.5692880684965614,-0.7644224313828223,-0.7860816603805448,-0.775452078778681,-0.7700336826213526,-0.7854560248325938,-0.8213722365579254,-0.8597083493794475,-0.8856318748317688,-0.8937474868333177,-0.8793734764008198,-0.843697764156916,-0.7892760701343045,-0.7185477668764062,-0.6256100509954847,-0.5084701901779791,-0.3667946707645127,-0.16287600703616995,0.2138157222239434,0.6412534278997523,0.8428874902078263,0.9204003366376455,0.9526692785995128,0.9642088315939661,0.9635884164701316,0.9565731749726264,0.947130486283465,0.9393842602067394,0.9342614078834344,0.9320380574877416,0.9316484337130684,0.9324812546266521,0.9361659391199996,0.9415440760951845,0.9463823855245586,0.9465965145655655,0.9343186999050782,0.9064506734236527,0.8679408037429346,0.8262553365198247,0.7905524498207018,0.7448538957315983,0.6079972895961904,0.048667900009349174,-0.46035476706009437,-0.5844465712918876,-0.6084857226144724,-0.6184319659804317,-0.6411023352349157,-0.6972557256135774,-0.7697280624722349,-0.8095403880352853,-0.8163226568927064,-0.8189935460786238,-0.8309166094962267,-0.8560271783940092,-0.8927951142455788,-0.9311419615865765,-0.9546892177684733,-0.948011728961998,-0.9156903420779601,-0.8489143445705948,-0.7292451459628293,-0.5507305510794553,-0.33484921302419274,-0.11374675373470602,0.08669267367567049,0.2790867229812733,0.4524736905581826,0.5883560298502176,0.6936460277843184,0.7925389234952749,0.872297969810801,0.9133343712606942,0.9179542195354851,0.8981878863191957,0.8643021141760797,0.8197491469974065,0.7670965844200519,0.7138595310595759,0.6614366366801557,0.6002769732037462,0.5042885442453947,0.36087362461490285,0.2074435129926499,0.08271246771828014,-0.022501110481085045,-0.12022418398610965,-0.163096670516197,-0.11660988802551375,-0.030044126300421213,0.02285418964966853,0.058741406145141825,0.10733475807301446,0.17650500799284835,0.268155407429326,0.37400583701379936,0.4824446130546923,0.5876831191706622,0.6849713618332036,0.7406922586410485,0.729646127648067,0.7020310792984221,0.7182243322722528,0.7545591635904423,0.7489510860996603,0.6783129771611955,0.6009181144713408,0.5238404765044721,0.4250262234693285,0.3026378466849347,0.17269876306238802,0.06458012092094038,-0.02250852315131822,-0.10059256577274851,-0.18374656353786578,-0.281255224628641,-0.40594101527052356,-0.5761482319727214,-0.7639274659836626,-0.8792752285139811,-0.8784917642897323,-0.8054739623247766,-0.6900114936234799,-0.5378069435809826,-0.407612176244234,-0.35349381628641685,-0.3625685120860824,-0.42225996388833803,-0.5060665700741963,-0.5698939692877233,-0.575390022174315,-0.5408587878927719,-0.5039074390528092,-0.4683986920178443,-0.4047343823431726,-0.2568064510324752,0.002248752781397894,0.2856402931577703,0.4748076074991437,0.5582635032030202,0.559412701221878,0.4670156021793566,0.19987109270696082,-0.3586899268961915,-0.7843523210832307,-0.8850801026354446,-0.8925931060882147,-0.8711864230460729,-0.841469578861604,-0.8132745309408833,-0.789366505628982,-0.7664083032744047,-0.7372663419918472,-0.70282831869999,-0.6646554547299534,-0.6131815169720413,-0.5030944799073387,-0.2776096834225842,0.022695711980049972,0.26856612008524905,0.4219827362172827,0.48253944431453666,0.40937180353046565,0.20161201074901394,0.0032605822372799584,-0.13145332307139487,-0.24378910532223,-0.35645225854212303,-0.4557352812235427,-0.531534798989979,-0.5944233619837775,-0.6558171275463421,-0.7184335388442117,-0.7381429485147684,-0.607790235542364,-0.07563370818536573,0.5040983223772556,0.7018652461045916,0.7790692091135483,0.8221804340086896,0.8393378625988781,0.8103552519933674,0.5839516409527934,0.026024851289136498,-0.34641349301501234,-0.49273777311346356,-0.5477795219918984,-0.5460472483212957,-0.48153465491888836,-0.3711658613845063,-0.2702616193239635,-0.21330312382113445,-0.19722523127771266,-0.21196803872868775,-0.27091579536180876,-0.36273122922622997,-0.44799572158853357,-0.4877157084979962,-0.46894871013987155,-0.3827458023297806,-0.2527294774761259,-0.11983111617107695,-0.004950378786468862,0.08707847791223565,0.16243485006537334,0.23888262691893633,0.3335626403059063,0.45293888533023785,0.5748511460650411,0.6518653147989246,0.6881354093554602,0.7122951291886006,0.7311666929801179,0.7421607617845759,0.7456442924037808,0.7350772322393766,0.7095162691702055,0.6712921653067272,0.62735278691371,0.5835056120640759,0.542226972230023,0.4933215387444674,0.4286854323018848,0.36158875583271977,0.3173465934496416,0.2947030165847434,0.2880369039989673,0.2729017296741947,0.23512918272520303,0.18976990851726305,0.15775807035840944,0.16367241823616457,0.2131812311952726,0.2795473611721786,0.3462678181932937,0.39715451292159343,0.38980314729699606,0.2957933442400485,0.18846330784104123,0.13979232325235105,0.14124235754481343,0.12189497762854377,0.011433060701902666,-0.21927978800754558,-0.4656361597253935,-0.6489153481237362,-0.7411470982527799,-0.7778499119239244,-0.7933578036635545,-0.8008446666960645,-0.8007687417723794,-0.7742704706887931,-0.7035797709173098,-0.5902718847857789,-0.45833303104057305,-0.3177957857305713,-0.21942110182439456,-0.19248313637465042,-0.19750257812260802,-0.1913215500682056,-0.11448395992370333,0.06055670469531573,0.2801379729676843,0.4100810414356435,0.43130034077363333,0.32458205264652745,0.13042969189594422,-0.11318571633146712,-0.3021710746979866,-0.4104803563250211,-0.46284403703250443,-0.4845938919089023,-0.49414309304204507,-0.4786167301421584,-0.4179849478552353,-0.315388013952359,-0.21056223826902137,-0.1183146452995335,-0.021254107118373063,0.04866484505360763,0.030515381954907814,-0.11109110597831155,-0.23156060902718825,-0.26983424229878833,-0.2622902525660595,-0.2694947729849746,-0.2802152492173242,-0.29096842470946,-0.29947744937313575,-0.32627298548915284,-0.41004861936683784,-0.6094320616463781,-0.8239097207818369,-0.8400779522819155,-0.7770539334971727,-0.7069769379601324,-0.6476731547720538,-0.5856181969884362,-0.4974003228061805,-0.35970201628652093,-0.17339305613436515,-0.011589131836302686,0.09020520873468535,0.12618126440053093,0.11320986473124114,0.08394216960142205,0.08274533119753479,0.10897644126626811,0.13189218810804731,0.13875550488726876,0.15316728756863765,0.1952147414178457,0.2516934772559635,0.29694792100374473,0.3490550720977991,0.4188762017417199,0.4984932710431198,0.5758746480756666,0.6486513603339477,0.7056481393778229,0.732558699892182,0.6973351761761543,0.5989247659001967,0.47232203315320914,0.3692675366679336,0.33420396812215786,0.34125027579305045,0.3760401810553017,0.43136526415846405,0.39628808221910583,0.16799927121997227,-0.1235303357488164,-0.3733649200601831,-0.5160887040431672,-0.5746887032505998,-0.6197859521386075,-0.6755407435151891,-0.7410680075798741,-0.8079032422733545,-0.8593514627478516,-0.8888141278187002,-0.9042906082915352,-0.9162622063337782,-0.9317111211904082,-0.9451659084644439,-0.9442093539179613,-0.9148639311933461,-0.8402434161212786,-0.7047765338915248,-0.48665835880323466,-0.1641686167144369,0.25005922658498886,0.6230073936287361,0.8058322497435404,0.8621942654274992,0.8795004879473269,0.8913488252571937,0.9055795607196042,0.923652985409154,0.9424990556129444,0.9568049704681358,0.9658611572835323,0.9721043978825163,0.9761387102791906,0.9778782373526683,0.9768709752148159,0.9736508280096874,0.9698231187392602,0.9669801663148705,0.9641063416945672,0.9542359424214076,0.9135632359643828,0.7671512651167464,0.42328411587712994,0.06246165800706129,-0.09314657613650358,-0.05751643834427644,0.0796761558696212,0.20399488523783826,0.26608668603370417,0.2710190363625326,0.2312585323577406,0.14745125316456825,0.04958786805999149,-0.016098819969768988,-0.01186009049827469,0.0676818334392889,0.19019227770812663,0.3254898961475598,0.4477284505638502,0.5382520911585404,0.58824536920297,0.5827721654247016,0.43680123931907056,-0.34901197892464236,-0.8853863758522565,-0.9141800934972384,-0.9107546721586379,-0.9077630697157953,-0.9039516330640124,-0.8955280105638895,-0.8827787387822733,-0.87245093046236,-0.8675226374154177,-0.8661445423870735,-0.8658222174222825,-0.8626730035974951,-0.8529018115984105,-0.8376422206130104,-0.8211555821183246,-0.8070784464561178,-0.8006846530002508,-0.8024110936971972,-0.8066168600466125,-0.8057226066519821,-0.795819553166744,-0.779123050384256,-0.7613508224151253,-0.749444428189098,-0.7479518533790233,-0.7549827102856277,-0.7639254683358309,-0.7678709033157459,-0.7629483231568749,-0.7522345212599574,-0.7417926152116054,-0.7345281319696566,-0.7299286736425042,-0.7227221656579047,-0.7116399770674173,-0.6931499226027019,-0.6194714331086926,-0.2931990538931869,0.08414292118325477,0.3099145922967877,0.4244394008015935,0.438119181959275,0.4036101551569664,0.4064349695561144,0.44260733676439407,0.4605415890773288,0.44451807168112256,0.3973710898830008,0.3577496605874512,0.3368963059359174,0.34738089587555054,0.397683380888946,0.4700245220115344,0.5177313289217648,0.5219681829444068,0.5052297575038828,0.4948623419646051,0.5074838835208091,0.5620377592114402,0.6422891577292494,0.6875627689240962,0.6777105273254124,0.6403862214354139,0.5946611153513339,0.5508465344168024,0.5231613814627902,0.5322636330421321,0.5841945940949352,0.6356206011020056,0.6025929864437344,0.48007616659634483,0.3721035574803831,0.3214382109050007,0.34188866818777736,0.4235178103183328,0.5380648208317986,0.6543639926207171,0.7477168687543353,0.8179890137374409,0.8692455808189115,0.9048192890230474,0.9249438191664472,0.9310448596897662,0.9317861378683219,0.9316616941714828,0.9272097921975314,0.9173566866444613,0.9037346906267946,0.8901115307862268,0.8780893501571432,0.8595943868982957,0.8264497593945962,0.7745573987520876,0.7073511963028474,0.6345259789331553,0.5456600907142506,0.4641170883870259,0.45544568741783503,0.5637220639106121,0.7280320448375266,0.838084202882673,0.8916681706876577,0.9101107215346694,0.9096799592437821,0.8981428982562746,0.8825102681335585,0.8603103097329159,0.8352179693554922,0.818817836473371,0.8077230669095807,0.7929380346766981,0.7576946141503877,0.6567576615556426,0.439486100953995,0.18816474204419897,0.03338655391745382,-0.02257610207297997,0.007759482785468275,0.13768420615779947,0.33333986627561085,0.48526147441311157,0.5318303984986581,0.3456700674791817,-0.36068176562581405,-0.7954735624671768,-0.8805682604157015,-0.887691440042061,-0.8732324878739832,-0.8630499448528386,-0.8583818965588491,-0.8577686545210771,-0.8533792758530271,-0.835137886180211,-0.796039159303561,-0.6547288441565028,0.4391469929309709,0.830459738309045,0.8610971328544808,0.8512997925605369,0.8223693388362946,0.7950358198751892,0.7832155264126199,0.7797863552299357,0.7742913860790249,0.7708512713680231,0.7760695112198176,0.7990660581827952,0.8327587177761032,0.8613642105833837,0.8640964881801882,0.8245124235890848,0.726317622091799,0.6111486770334674,0.5575206886964729,0.5684934213785974,0.6038845776181516,0.6493695097341827,0.696484216827365,0.6800211983566712,0.3622448017278317,-0.12988584289731303,-0.43321799204498057,-0.6087054604431484,-0.7126008565819288,-0.7577603192293875,-0.7644954832362519,-0.7580712869369042,-0.7597758040028562,-0.7737601109928022,-0.7955023004731331,-0.8240061588829267,-0.8083809870628018,-0.6850647561924086,-0.5837234492697572,-0.5624034285169203,-0.5893637972539071,-0.6138937969410286,-0.6049700468891592,-0.5677105328393097,-0.524323886961019,-0.49000322513071004,-0.47288034012322944,-0.4757098810049594,-0.491592446578927,-0.5176374394464816,-0.5468104689202321,-0.580267498249441,-0.6209103612383656,-0.6698542050527082,-0.7238503371870335,-0.7814681336384683,-0.8386587873126615,-0.8837212077656825,-0.9097925687629642,-0.9126224835173183,-0.8993097061943445,-0.8768499459201704,-0.8500773446172684,-0.8356190484063436,-0.8438962607925796,-0.8639485802180085,-0.8632769990355117,-0.8290901781392337,-0.7635478675869187,-0.6743358742342964,-0.5609094704388606,-0.41925778539928643,-0.28596575117215084,-0.18245719722741208,-0.09912074074815523,-0.023471927929035005,0.03932878205955645,0.06394444159233394,0.021951725332500383,-0.08540461586352202,-0.19734544411651525,-0.2604217356641488,-0.20757992902150574,-0.08993626537045404,-0.003950731493377954,0.04114565666701715,0.05470969821147223,0.05392743638978005,0.06025192881100509,0.08837666393087037,0.13651589852955479,0.18194744647774694,0.22453484618721287,0.2531927340691884,0.23654995987718128,0.17319014461918292,0.11338071301978768,0.06902194967485359,0.04231979042031027,0.018568031132672736,-0.011303379845621145,-0.03313801994144437,0.016577241232853184,0.19052707512443884,0.44101851657534064,0.6272014792959598,0.7358054473794033,0.8056359935162457,0.8551124626836271,0.8862265454302912,0.8973452944967573,0.88548467997406,0.8505118050962187,0.799658940972468,0.7516034276503131,0.7291428148111633,0.7374535395467031,0.763668002868468,0.7936648291373338,0.8193737814604433,0.8399775875581836,0.8570566273473269,0.8768520049089004,0.9007103668015733,0.9226736388906759,0.936863651692907,0.9427205141429814,0.9401850278176037,0.9278678382300589,0.9092819452883681,0.8919474968539728,0.8843258927407358,0.8869283244869846,0.9006709354818533,0.9138152747849452,0.8673758698259144,0.47447834879842976,-0.26495873833930533,-0.5814139931408638,-0.6784170635437184,-0.7106247425063936,-0.7277991279474236,-0.7434113897998191,-0.7621983248421229,-0.777935420316954,-0.7791795396302675,-0.7727850616349683,-0.7687767747152408,-0.7765862007109021,-0.7976826413002892,-0.8214887483620682,-0.8328853511221301,-0.8232359504991613,-0.7816466032877075,-0.6877273515052924,-0.5077991418525416,-0.2900444511308951,-0.16302386817681544,-0.14077418646974163,-0.1764579048257702,-0.21362070407099285,-0.19911099181971165,-0.07749403747665135,0.10401316618415042,0.27112085678639136,0.41989110489465364,0.5699894878893066,0.6912810369638381,0.7649720937736094,0.7932614246182812,0.7738541552841343,0.6779187202024083,0.4220032674981683,-0.0945278512289461,-0.5626013736588206,-0.7527612393037288,-0.8199331589679373,-0.835068985864669,-0.8250808373818241,-0.8044494793446918,-0.7845534925763357,-0.7663168324835935,-0.7373001674760966,-0.694259019064028,-0.6416370317955864,-0.5788400860051436,-0.5213973130904286,-0.49499477424668625,-0.520001388834251,-0.5808375192311395,-0.6301803367389208,-0.6223525827979233,-0.5254003132955322,-0.3093725135615812,-0.046960990112442466,0.09470003571057493,0.058256171393219966,-0.11380633864916426,-0.3396338766001096,-0.5135552920327645,-0.6216555501257528,-0.6907171320878218,-0.745028815969887,-0.7826211399237734,-0.7959812182861258,-0.7923084481223721,-0.7838594491292034,-0.7797947239990369,-0.7838819450360297,-0.7868720982500057,-0.7760530317570484,-0.7398373183178361,-0.6835982937761612,-0.6307327699256424,-0.592013822872191,-0.5530735512825716,-0.5114725485049988,-0.4749964600005186,-0.4427072237388555,-0.40332603822276153,-0.31271558680709,-0.09854270673928457,0.1567075938997058,0.30505001599570775,0.3974967633454634,0.4761416995401285,0.5538924219625261,0.6278191916254242,0.6831251431484617,0.7275116026278551,0.7590491695247406,0.7803630922299849,0.7937885914975574,0.7983428267135165,0.7908946183529493,0.7765737101539602,0.7583023155602013,0.7408712925622414,0.7204069434388871,0.68888434721801,0.6471545726587912,0.6190065023766352,0.6490528314306078,0.7563426444503147,0.87823576065966,0.9101972328698196,0.8855402490580367,0.8710701619969164,0.880378705909175,0.8927296757420016,0.8708632765326947,0.8033664120428988,0.7166125733697342,0.6249555835053021,0.5232348761496379,0.41208903366074234,0.07116186359519652,-0.33512515881054006,-0.39940449239263065,-0.42659332622656176,-0.4608093706320425,-0.5125674671695467,-0.5779537222492632,-0.6433644092190095,-0.6929611413410889,-0.7200105239762399,-0.717261360167618,-0.6850052212101216,-0.6334784229320393,-0.581322264021826,-0.5354471837193914,-0.503383622699118,-0.49989007801542723,-0.5220375914988206,-0.541512210753219,-0.5277344480617924,-0.47833764341991963,-0.40591802521326853,-0.3028698359455169,-0.141576920677026,0.11297109438873619,0.46681206225709615,0.7249769507434113,0.8317478412042064,0.8613636076998409,0.8555041404374493,0.7939910653435354,0.6070614996186583,0.4047099358427421,0.36260890161126863,0.4396527573359553,0.5346448441975231,0.5825388648468768,0.5778616844445132,0.5473530546300518,0.5244943188859886,0.5272766346154412,0.5292999299800196,0.5102430201877892,0.48605983392356666,0.4746642898203427,0.4715233240937817,0.46306102555345774,0.44657330599730494,0.4336507693293449,0.42841840230146483,0.4265504766071266,0.43142195903343783,0.4491908758981696,0.4686681426114029,0.4849832607359866,0.49588326257077536,0.4827122033312191,0.3854112125493529,0.04713090686007893,-0.36010096498081823,-0.5087741847642745,-0.5409009774036336,-0.5227040999027907,-0.4169702980671389,-0.216741403810415,-0.08273832021887433,-0.09314802748302915,-0.2523730865803173,-0.46636715857979144,-0.619416986842112,-0.6987325034547912,-0.7336123211926531,-0.7503071677517129,-0.7686139545282613,-0.7385250518276615,-0.6458606844383971,-0.6136812855594858,-0.6372387521527844,-0.6665535449780762,-0.651062112742364,-0.5783741076286651,-0.4220413763518637,-0.10199966485737959,0.2821472586493604,0.5627167855089347,0.7387949625673792,0.8595708553741238,0.937985310988257,0.8933369219450373,0.6357663177884948,0.36998728794644814,0.2433478632452531,0.2582932434887499,0.4290945239645073,0.700373234887587,0.8636906262671189,0.9023664687124323,0.9030688401095759,0.8988640968132081,0.8985561485683397,0.8948558136814802,0.8718236663579038,0.8114718185948092,0.7075402546377648,0.5648308237498625,0.3954986823348094,0.22711994730310897,0.07675885518722624,-0.03275387147503747,-0.08896010199934437,-0.1123366832188301,-0.1730497889046606,-0.3262878681355806,-0.49728205833197775,-0.6127667302075085,-0.6861471895448038,-0.737158142565761,-0.7742269552762998,-0.8023456921657962,-0.8249953801510908,-0.8455243987261762,-0.8615377320221573,-0.8709223869939534,-0.8736766124292465,-0.8667096063161022,-0.8560809677757333,-0.850824227938424,-0.8576434576015249,-0.8684092885400945,-0.8642448808719052,-0.8388984334851758,-0.8069486130214442,-0.7821970716322894,-0.7731957379529731,-0.7807470500430053,-0.8016737781095844,-0.8324850575050056,-0.864167131691992,-0.88723434651459,-0.8938953994154493,-0.8730639287493092,-0.8255456379786775,-0.7716915775533949,-0.723175375329693,-0.677805206667331,-0.6425744314537342,-0.6271026568158214,-0.6253385022298713,-0.6198637422182413,-0.5702278704976723,-0.33195632294356997,0.2880470110876677,0.7075969660588501,0.856317630969656,0.9272525447553196,0.9668428701532821,0.9837912877984348,0.9795922693894988,0.9532131864532841,0.9114459849522037,0.8605667417268433,0.8099610785070928,0.7731772670154375,0.7550717716260948,0.7505272535537333,0.7480634304423355,0.737631005232085,0.7131970632372001,0.6706976682384177,0.6088561302788769,0.5468528283072954,0.515221978781139,0.5237485588630653,0.5593533777808306,0.607278632785722,0.6561978761109911,0.6961250456713829,0.7271754891755547,0.7682177449237969,0.8338225705667627,0.9173142420942455,0.8771731114967702,0.48517925052295663,0.01668998440094801,-0.33624038208658924,-0.5661418979226013,-0.6934631690617057,-0.7574353124687565,-0.7868080322446386,-0.7993190093852653,-0.8102886157593958,-0.8291710464471838,-0.8595254792026343,-0.9011935784373599,-0.9375532226471255,-0.9305107798598037,-0.8800559518862318,-0.8188042410792198,-0.7734853250535473,-0.7546947236951793,-0.7559905333647696,-0.6712327266975309,-0.02226174027689823,0.41679738533945987,0.5745037724892593,0.657527497781415,0.7122877676757988,0.7543233257729508,0.7891341201983881,0.8174168131087225,0.8377239418748151,0.8455501298184266,0.8387074590789703,0.8210389887084629,0.8026431703045797,0.793325455015431,0.7941751261879606,0.7970496693994283,0.7961042050922252,0.7957449644207655,0.8001893116081434,0.7881504423214606,0.5593074988578375,-0.34344524418556405,-0.6651571517829081,-0.7602787495446032,-0.8030719913769929,-0.8279254688440637,-0.8506060723918526,-0.8729395081952608,-0.8899197969748993,-0.8955266982494047,-0.8900002125941046,-0.8752740824117579,-0.855652540471248,-0.8300722061087024,-0.801345280347445,-0.77570003772473,-0.7569274089486473,-0.7464075582659889,-0.7435969008447509,-0.7443658350612735,-0.7456796773596124,-0.7430828075409087,-0.7392108220764422,-0.7376768128263682,-0.7437996503011205,-0.7545610224611419,-0.7597205116214812,-0.7507627619108249,-0.7158745925553879,-0.6390714057735091,-0.512197294562645,-0.38389919108988585,-0.28089983191014395,-0.17831680343820155,-0.015733430176632073,0.23314625045193427,0.49596406533043896,0.675611981910685,0.7470672328917737,0.7603085541689026,0.7568409148336265,0.761636360637636,0.7925642966334678,0.8564287542269134,0.894489081754756,0.7882815697925916,0.6129107216640691,0.5123000731105637,0.5077074475347461,0.5787381670803744,0.670536972904982,0.7297950117320637,0.754029606176825,0.7480905683111744,0.7036002071809889,0.6112660979082473,0.4907025764305909,0.3938617583597473,0.35086488722595777,0.3770392594689596,0.45144499778673575,0.5495584601718696,0.6122217328815035,0.5963213715115467,0.49407814156845803,0.33364497097357715,0.12108421530235022,-0.1549324355209238,-0.3932453371196586,-0.47893813848442224,-0.43711141570189266,-0.30313862726478297,-0.10891927439368937,0.0829198705046962,0.20686867294924632,0.2223399563567236,0.1689070009176973,0.1348936153053224,0.18723073935321935,0.3317971836220409,0.4691452455784159,0.5568975141503844,0.6100433749770676,0.6229062421678989,0.5403327714944449,0.24790808488827193,-0.14122220302580996,-0.39102382842076033,-0.5032657605474649,-0.5385044721323778,-0.508457763510459,-0.361439450499067,-0.03146434595894634,0.1920696704219687,0.21815514061104246,0.15035925095761482,0.04270682358683537,-0.08603183085055838,-0.25923444209734053,-0.4615519385799126,-0.6373741580704445,-0.7363852802265619,-0.7642936603631391,-0.74792063765163,-0.6995024099005855,-0.6189568353919407,-0.4942309787916103,-0.3003300698573907,-0.024514401566039158,0.26820414159168365,0.507084017202913,0.6487988746806712,0.7096507998391592,0.7146412076467468,0.6855340359545219,0.6363353658877956,0.6156401621894448,0.664630983622089,0.7411220500776575,0.7963998050452087,0.8343296840990172,0.8663704550068042,0.8896631308169225,0.900975896865349,0.9034535250757009,0.9030564380347147,0.9033715951929536,0.9063057341132111,0.9131849574387917,0.921928794615953,0.9304051078102975,0.9367233311986288,0.9405015877354191,0.9406898434206048,0.9359505586097451,0.9229708357387719,0.890929728729505,0.8263523215903776,0.7088271569121024,0.46681514947674035,0.020941912259046982,-0.35768605898413197,-0.5280778539704922,-0.6007489859435028,-0.6483169211777725,-0.7100353813228639,-0.8048883201215177,-0.8926423002782997,-0.9130113918682403,-0.8893526809271846,-0.8552541607820741,-0.8242631133530925,-0.8011060606756014,-0.7896295745600029,-0.7879996087849394,-0.7917101637433082,-0.7975491182822182,-0.8011415522998954,-0.801916033308284,-0.8067539802030721,-0.817180302798005,-0.8316874263438492,-0.849340263171484,-0.8663771889708326,-0.8847939076224317,-0.9038278689982668,-0.915782622055289,-0.9105134682930645,-0.8877515050192543,-0.8609922419574293,-0.8426659549200979,-0.836463689025981,-0.8348290723373808,-0.8264424467526938,-0.8058943594671786,-0.7793848995172497,-0.7553906186532271,-0.7342898489999131,-0.7044749309450815,-0.6601025172175294,-0.6260347191511273,-0.6332372307511638,-0.6950581147961054,-0.7775881288522188,-0.8175490411336642,-0.8069660610991004,-0.7867778235396821,-0.7792540346927501,-0.7958756522685284,-0.827762533808476,-0.8439240862991789,-0.8220099522535541,-0.7535279726423633,-0.6782912257051014,-0.6494540778980709,-0.6921549971932383,-0.7222627461282632,-0.5566608610315853,-0.3379754723058579,-0.18179735578564016,-0.0188691346929052,0.23137736215182791,0.5558459244530333,0.7887149703164192,0.8633030091694506,0.8109802082995218,0.6394643356292763,0.4539715186634401,0.38321887534399945,0.4378627073464111,0.588336524823321,0.7859771192025008,0.8820438515277302,0.8502454256016009,0.8061313659024372,0.7958146064575298,0.8254352627345325,0.891003759072999,0.9609205952134016,0.9452951114835152,0.7905294422975818,0.5846272760649325,0.4041395081738189,0.27279278190003414,0.19668409630221115,0.17848442890168334,0.2039929146553977,0.19545312977542492,0.13032021570188967,0.03556502420906886,-0.08943030820999152,-0.15987804894678845,-0.13176592584226937,0.012397568244297654,0.2305272769559383,0.5082411248984133,0.7253580528778423,0.7121944543268672,0.5512031812495944,0.347058129185858,0.19504769954036916,0.2737550845398362,0.463548991178096,0.610210886543453,0.7151707332839023,0.7905537807334123,0.833479025408632,0.8534076849274349,0.8602410052601297,0.8540282171319771,0.8327139976845116,0.8050178477909218,0.7802343806260077,0.7620950746752558,0.7456230784865221,0.7238984314538447,0.6958305198163229,0.6670818579750466,0.6426481024790409,0.6204950360750355,0.5988112220554953,0.5744330252773211,0.549209653735038,0.5334373130623654,0.5303832344382563,0.5303653134839273,0.5323936283610794,0.5175673815991237,0.4705697886023246,0.39878723570119096,0.32629823209305503,0.2508172587858323,0.17664392771281623,0.11748082340357036,0.08767870401335424,0.09719782967274009,0.12651249667236028,0.12916578885605534,0.09035554254340862,0.037315069862134655,-0.00817112788330693,-0.02633342764596546,-0.013797353162556711,0.020003627776813002,0.04692502441570256,0.04379313029457198,-0.0002698036679400941,-0.09862874412491612,-0.2595639814607793,-0.47420626826412854,-0.6439186537533925,-0.7318889245480108,-0.7809043961927326,-0.815604348803777,-0.8408390285314946,-0.8560402031695296,-0.8632797969469661,-0.8703151206376547,-0.8783883111866334,-0.8784160828264674,-0.8581715427288318,-0.7932458898250679,-0.6109660868402544,-0.18438681379675018,0.23173672807088896,0.44766465008517814,0.5666152411097335,0.6276540146156712,0.6468368744941357,0.6534840161635449,0.651764402872767,0.6442017954592821,0.6368767935598117,0.6373209882313411,0.6526120867728962,0.6823265875666181,0.7217613753038278,0.7580460348668517,0.7760424032332839,0.766386200521868,0.734212768155098,0.6977547604670367,0.6753668994448316,0.6724950585837519,0.6528277870748735,0.3975179970033455,-0.07308570242499557,-0.3560184096102966,-0.5290394715319702,-0.6598230421652276,-0.7494008700756667,-0.787153108768893,-0.780423271224626,-0.7530124190902673,-0.7305853183450709,-0.7232683997068917,-0.7330339883995969,-0.7529862377641856,-0.768936686906583,-0.7518409637363581,-0.6824153578113588,-0.5691303595295744,-0.44060576933638734,-0.294721779241358,-0.1291361381439531,0.06621914218426107,0.3144818199496801,0.5285011884480383,0.6311988859269088,0.6869696670352281,0.751108458579762,0.81298234885145,0.8539932065716227,0.8717859050710296,0.8652121321727498,0.8328301045062096,0.7681502648998406,0.654561582814699,0.49249367537083116,0.2855803384348929,0.006246752908909793,-0.34466778441882995,-0.4351665317624819,-0.4226506725399152,-0.4112179218686191,-0.40238903486122085,-0.3859830803543113,-0.3663133259712579,-0.3316562018749801,-0.25919041013524446,-0.14604486300885058,-0.02122396253995874,0.060407364501960804,0.07014215012033877,0.014062792161572638,-0.09344037573948093,-0.2253905351093761,-0.3638304782413742,-0.47955166628893736,-0.5629760294551679,-0.6088428445940027,-0.6172799807951032,-0.5921809780318026,-0.5419766770210918,-0.4770237590989088,-0.40637377365968286,-0.34288543269293675,-0.3157905023071384,-0.35738827499478537,-0.4797166617161987,-0.5985105085776542,-0.5971602559589726,-0.5470566680074708,-0.5221120207698,-0.5343397311836416,-0.5730371027709963,-0.6304838736960849,-0.6894600900267593,-0.7129194143078489,-0.6828082151592718,-0.6229528771807109,-0.5995917131888888,-0.6161327048175042,-0.6604190943127913,-0.7135797220356624,-0.706765954372954,-0.5945984104103104,-0.46089797373413144,-0.3543946052166429,-0.2635260703110491,-0.18148642738711965,-0.1115589780628803,-0.081818111395579,-0.09577316860663185,-0.137390513631782,-0.16910638633846053,-0.16357018563588233,-0.10731066155555254,-0.03070952832963296,0.02339233599593663,0.09298717058854868,0.2056669217718714,0.3545668951679827,0.5166570105458379,0.6301184494460137,0.6754299520349405,0.6473768206267398,0.5904437666211888,0.5353319774134446,0.490823322848337,0.458054896414269,0.4444426605840088,0.4432950539448264,0.40749336528880076,0.3232480692328227,0.26418256035163146,0.28200073752300836,0.35647044549387535,0.4827528571147267,0.6403028485805778,0.7632851850633684,0.819353159023813,0.830429112589556,0.8258239251517754,0.8216994646000411,0.8232214053893493,0.8331121548576431,0.8523056472289375,0.8772210334773851,0.8845524186376588,0.8638422341218022,0.8404776112605274,0.8436180518419134,0.8415746990514519,0.8300817002648951,0.8314638636230612,0.8503493806496297,0.8780565363139813,0.9049208987112031,0.9241710771199357,0.9300928607143397,0.9223725656629522,0.907357189976315,0.8705615316162206,0.7942238555168527,0.6746323283136884,0.5398041170330738,0.4144990188539482,0.27618106697001965,0.11218744701462353,-0.06460295431820352,-0.2605260130827131,-0.447455780804578,-0.5842649054972162,-0.6399687033574019,-0.6278735041264581,-0.5334240656604925,-0.3669860972910439,-0.22639914859319726,-0.25796489986479315,-0.45173020905863753,-0.6561164650482378,-0.7471478068961307,-0.7566203488248489,-0.7207109646679738,-0.6451678313132602,-0.5145542281989859,-0.33042408272202595,-0.12714387967708626,0.07264072760718478,0.2811048670242048,0.45426013141757393,0.5319425056794072,0.5448926708645927,0.5358668091853371,0.5208364104765285,0.5113364455277417,0.5241653870055009,0.577135662225378,0.6513378093845112,0.7197984373551867,0.7687689259051251,0.7953057912637641,0.8026726023425051,0.8023344954091205,0.80389305302461,0.8078000324063287,0.7945355201644585,0.7275221638760128,0.5583157292152234,0.2471468681540323,-0.1444956137889859,-0.3774923073426499,-0.44892857549795034,-0.452143350415054,-0.4354299732280821,-0.4236371553095812,-0.4140153519912424,-0.4059507350118673,-0.3902634365570561,-0.3614672498000034,-0.3150062568117679,-0.2687317245113985,-0.25050232168802483,-0.26439126516922,-0.3035468880173848,-0.3559510769536133,-0.4210941728623087,-0.5142481839154568,-0.5221256404616977,-0.2700003193109944,-0.21672641645680354,-0.26732862543142777,-0.3548517526542622,-0.44086289788153216,-0.5168565611084585,-0.5831964669648355,-0.6329146794244292,-0.6646255662729614,-0.693456722496734,-0.7133392692601036,-0.7141515904215708,-0.6861503203356257,-0.6249304978207467,-0.5423734890639438,-0.4602325892315408,-0.39431106322151177,-0.3454417249001504,-0.2889419599716182,-0.19184744935466108,-0.06639439466240192,0.061309778383417404,0.16370104952883568,0.22895530461962835,0.2616922367430901,0.2736769476100534,0.2587652698172248,0.21561464363514973,0.14743157442771737,0.046522092135221974,-0.060653095052427684,-0.14398194753422472,-0.21160863295313273,-0.2656603516700934,-0.29646604895005885,-0.3077638924624009,-0.2978463004246545,-0.2816936494977278,-0.2826481572664167,-0.31069728052465034,-0.363418625530393,-0.4380458452129111,-0.5077709280174518,-0.5421253484766428,-0.5056301175507565,-0.3965785647855881,-0.3082898491840904,-0.26490359773091415,-0.23481997138940935,-0.2049211536993818,-0.17576736911334642,-0.15634721087926284,-0.1494207783647252,-0.15512406377839155,-0.1825913294181921,-0.2509849010987617,-0.35529442438698494,-0.46316278639924585,-0.5394354706609265,-0.5734192774212407,-0.573255227593771,-0.5309833354663837,-0.4377301942834698,-0.3363469247812433,-0.2664723036755719,-0.24753057617866842,-0.29642272573841805,-0.41310514560646144,-0.5145820644733017,-0.44589030772269206,-0.2904690007369795,-0.15468710175829437,-0.04531354000368967,0.04705273561006601,0.13003913275804282,0.20868941386759773,0.28948075974713877,0.3647694549039187,0.4398414794133312,0.5071037528504239,0.5648046294909876,0.6090988539407185,0.6471153808079806,0.6862747387005738,0.7293370730685499,0.7709080838727789,0.8101638788543317,0.8443030587015069,0.8712144602409649,0.889275883141336,0.9002560448923801,0.9065694349712289,0.8996200921269197,0.8669772781915595,0.8167630369583454,0.7711702055804247,0.7420804696039653,0.7451853856263928,0.7920038804945807,0.8569647099088954,0.8980577287550526,0.9114801175101042,0.9093324030844088,0.9016731654032081,0.8946781753841708,0.8858145769638643,0.866890581489969,0.8175406499049924,0.6997406469758479,0.4837883662650834,0.23090960018439852,0.042745533604153604,-0.06835851267913925,-0.1380710600450109,-0.2031108039632609,-0.27330603136473935,-0.3190643411556499,-0.3216854455773799,-0.28193547310023204,-0.21447343045665895,-0.14378504062612102,-0.10586607974105867,-0.12057737457356998,-0.17624873279113387,-0.25828360590691757,-0.3544793379602705,-0.4435846927533149,-0.5143194954116099,-0.5689970004443572,-0.6121136247555038,-0.6560185278043524,-0.7018474070347406,-0.7472367437347853,-0.7857329770542328,-0.8146083998856172,-0.8359767646675538,-0.8518443347681856,-0.8646866440545521,-0.8770942190756489,-0.8890493446935014,-0.9001306051250194,-0.9082397787089413,-0.9127842735244072,-0.9083880255384601,-0.8923241592922986,-0.8731855923176811,-0.8620660365167059,-0.867399272856685,-0.8874436679097639,-0.9092326104279177,-0.925435261738773,-0.9337960017009914,-0.9379618113787174,-0.9404012400774501,-0.9402748178349306,-0.9372901454782908,-0.9320569566224928,-0.924146066129778,-0.908841079812367,-0.8821487665692447,-0.846069592062271,-0.8100907679126738,-0.783306904603895,-0.7372935971096934,-0.6272012470627469,-0.39884716574042284,-0.027610111380488522,0.3630746728838072,0.6374034992633918,0.7875599930205446,0.8653969259956475,0.9027337066357588,0.9203830928381641,0.9283870202605069,0.9324864289126533,0.9372638529465649,0.944966992491264,0.9551654282520092,0.9656746747958389,0.9734167973699557,0.9778824747265095,0.9800624519037691,0.9812303025284074,0.9817418042631711,0.9796709457581216,0.967105557331197,0.9137627945836967,0.7423248416176544,0.20714055635908207,-0.4412441456645898,-0.5175771071944274,-0.43801519081429025,-0.28721775491208545,-0.07470528502361626,0.17827077283052606,0.4195200318684195,0.596665727554307,0.7152798251898443,0.8003666663668414,0.8556510097723773,0.8832437663460412,0.8888683235232907,0.8781194249785573,0.8465254161950492,0.7828161501210451,0.6832169224861073,0.5593815596293276,0.42526239090964857,0.23377340341618544,-0.12506786953627538,-0.5536227609896526,-0.73888697700576,-0.7643216761950574,-0.7305426488401731,-0.6650914118678605,-0.5872585882690485,-0.5321417526022291,-0.5324365780701089,-0.5885414075151706,-0.6777884817960289,-0.7670141288027348,-0.8290784051378131,-0.8551436734685586,-0.8575180409093613,-0.8515250331292694,-0.847634582029223,-0.8491520179767036,-0.8559164822218651,-0.8635421401710731,-0.8688758367140638,-0.869506822498584,-0.8649092633708189,-0.85946265202288,-0.8579332424657431,-0.8631301483015225,-0.8745013569494412,-0.8871569123105529,-0.897540984920166,-0.9030266579292797,-0.8980890084599149,-0.8793930120294384,-0.8515916151492059,-0.8280980544558506,-0.806330134841991,-0.7849917077882033,-0.7647303090410524,-0.753716070471988,-0.763842921196182,-0.7860995025964689,-0.8099400083064601,-0.8272755946389175,-0.8312965742667757,-0.8201599425159636,-0.7842017275774366,-0.7406453224604704,-0.7021273841979243,-0.6550907431920462,-0.5652804363457341,-0.4229800768176076,-0.2387916225148016,-0.017648555706125956,0.22224294116776316,0.4172357714771506,0.5489080440666801,0.636084369676478,0.7104146806273868,0.7829878598894636,0.8291377691141929,0.8414228692504927,0.8252727280667749,0.7934287460422886,0.7624871188618545,0.7500663421018643,0.7595173707763336,0.7789074144807666,0.7892521089443885,0.7791757891196878,0.7607969639357933,0.7569096875156154,0.7691712325634349,0.795758253984433,0.8336188360366662,0.8759700865017888,0.9077427923261074,0.9220753904707865,0.9207364716076222,0.9123250629362392,0.9090085406037346,0.9064898100237407,0.8992269870942474,0.9029008850945471,0.9118214382515557,0.913165763328111,0.9026323965532831,0.8831402545095678,0.8645884960534977,0.8638142441322428,0.889726789299129,0.918702629258264,0.8981417970479777,0.8475334159646007,0.8129628659739424,0.8125319842804836,0.8428664523115736,0.8840795837700556,0.9003595844410196,0.8837513456358672,0.8510829444914233,0.7992284812929509,0.6949154376647867,0.46782886322946854,0.19677892916053857,0.07839917109016785,0.1247431522633871,0.23461381016146043,0.3659967327821146,0.4791861337074269,0.5369938766229897,0.5222211613408014,0.4756929795315798,0.44410734547264263,0.4404348727180759,0.46462290602208284,0.5095593239434925,0.5770692305585069,0.6593391040953108,0.7416362257868953,0.8068157054379008,0.8521658497171269,0.8776132722475373,0.8856958290645942,0.8838474351645362,0.8801652204593032,0.8762542535670746,0.8712178081469836,0.8708769904136218,0.8875548404585403,0.9010864902775838,0.680050679983894,0.12674026389948279,-0.22265419351519344,-0.4164922090906531,-0.5330874075128111,-0.5991418223521454,-0.618323803362395,-0.6012346465987682,-0.5697247660641697,-0.5363213282740475,-0.49276924114503845,-0.43383913952498887,-0.3846078675833184,-0.3664634857671525,-0.3632508472734163,-0.37327815111383444,-0.40966810931931524,-0.4712382993899024,-0.5156502411343284,-0.5067115323295409,-0.486947736414373,-0.461619126821317,-0.40112451414138434,-0.27491310353040854,-0.1005354677694623,0.04449757937420195,0.08646414215342099,-0.021148762346056702,-0.24317896900542013,-0.47246297806396764,-0.6445799952730094,-0.7453331531705156,-0.7803859384934894,-0.7989194882353066,-0.8286024515238081,-0.8423100731932114,-0.815593970807204,-0.7657713117110628,-0.7284697842197435,-0.7175807421913901,-0.7289458846598775,-0.750630402717345,-0.7628565856309084,-0.7542650756347494,-0.7329928028423639,-0.7141864295065232,-0.7008132251900935,-0.6906590679382796,-0.6755103610142363,-0.6491130662075834,-0.6204282560061557,-0.6031513173440798,-0.605081015694328,-0.6216022408991252,-0.6522695255292821,-0.6958615815844265,-0.7255745186806226,-0.6988496937346294,-0.538753045076492,-0.3143473700882043,-0.17731752624810793,-0.1329441829783643,-0.13727344376137054,-0.16521904933071124,-0.22538390133833983,-0.3237450894447919,-0.4392381340853662,-0.517093488619017,-0.425433171208406,-0.11533276768304628,0.1085595099731969,0.23506652991331406,0.3175600369924168,0.36028163617737186,0.3201961900056553,0.08798513794080871,-0.314420969946812,-0.6187638088605537,-0.7453036473852255,-0.7507187761208302,-0.7066190129464427,-0.6498998206794543,-0.6041744235612909,-0.5781641061115622,-0.5611508558944266,-0.5499402795292578,-0.5560667615998358,-0.5846860379983149,-0.5657884406921935,-0.46047242795359805,-0.3098424011473497,-0.1558903806122693,0.0033702496184978984,0.17787811133477166,0.3565280014290239,0.5011559719512111,0.6015843396384127,0.6600980466055811,0.709048862753771,0.7715484743732937,0.788501721992897,0.7135782743423963,0.6197828127109386,0.5507917656178648,0.5044569457001805,0.4694562920535666,0.4561835071858492,0.4760103558842295,0.5121241890705164,0.557372295266057,0.6180674917654171,0.6914434056892945,0.7620829503015332,0.8160988288598595,0.8547923853214929,0.8810405591056546,0.8953802004224277,0.8936195944262507,0.8802173786564966,0.8684060063781802,0.8681924471779003,0.8801217062078124,0.8991964092432679,0.917664924465365,0.9305415143427939,0.9357116920162897,0.9281601590007628,0.9006669381228756,0.8427406439539004,0.7423989637097134,0.5848670502188815,0.35232192166103005,0.04526968347164059,-0.3013621957803998,-0.6038231642406637,-0.7694034360889471,-0.8171501440502146,-0.8336622616905192,-0.8473811191126003,-0.8586310021901653,-0.8599690102275268,-0.8550843254180307,-0.8520605280867458,-0.857394256472353,-0.8687402091380786,-0.8818434791893887,-0.8931586636304575,-0.8972389802367348,-0.8813723858649342,-0.8380449251871718,-0.7801267035238263,-0.7309995562639611,-0.7228443639329916,-0.7534085379712294,-0.7939220623179917,-0.8245248514342128,-0.8327636167571261,-0.8136103965003306,-0.7842364357100692,-0.7602662963347923,-0.7499914191541271,-0.7514294461407774,-0.7614061153221274,-0.7729841987098219,-0.7868451306680558,-0.806764247939142,-0.8295419637157123,-0.8468647004822628,-0.8546227556483363,-0.8581351774038941,-0.8430861811530959,-0.7935395890538658,-0.7174580796642555,-0.6201267240615094,-0.46195348475157433,-0.19878415228055057,0.11625423034335142,0.3608580019815518,0.5137126722936052,0.6040196711523313,0.6633424048878932,0.706090664517646,0.7404250214077039,0.7681690155694628,0.7875799376520135,0.7988302011703023,0.8065919493076654,0.8136865112073334,0.8183641663935743,0.8202452477980161,0.8208546056394002,0.8166037389749531,0.8030233400777441,0.7670888184455894,0.6617416348855255,0.3355674633105585,-0.2655802785469802,-0.6380271755010127,-0.7725994345561994,-0.8191146133695495,-0.840414697430344,-0.8557883502756555,-0.8678893778728507,-0.8708525647444887,-0.8625129915699298,-0.838378166307394,-0.801637270670328,-0.7556463836041366,-0.6981388942934998,-0.6105003771748297,-0.4332887470757728,-0.03480157452369811,0.5524863788132827,0.8797856193411258,0.9666382200266134,0.9786451366409845,0.9736106955782121,0.9675621509257035,0.9648126855002086,0.9682019759817206,0.9787592740251468,0.9922602492929726,0.9972359190277903,0.9720934467707845,0.9016147303000027,0.7882092025796732,0.6026507349031404,0.14595488630647432,-0.47124629174332927,-0.6855431842231283,-0.7260732851045686,-0.7222642276662821,-0.7095059215509816,-0.7004918898408238,-0.6975320072965663,-0.7018692576122362,-0.7108626555600086,-0.7142761919265616,-0.7141705666869127,-0.7129739551152984,-0.7114339944952152,-0.7092859913726804,-0.6888038867691655,-0.5922714313342821,-0.34742769896462605,-0.004910183681696127,0.256391764837534,0.42329829393461016,0.557261140703016,0.6571943740375927,0.6868857250921131,0.6908437734385202,0.7027119436831996,0.7222552262464501,0.7396467098935112,0.7326153370560424,0.6693142832864171,0.48705964887482955,0.09435270924413497,-0.4442360053319071,-0.770870765390479,-0.8879984941109573,-0.928275728337504,-0.9404280252623475,-0.9380876282430751,-0.9234157861864271,-0.8939884759209672,-0.8531907798797819,-0.8099946435821378,-0.7809459301185361,-0.7792536527158612,-0.8029457228852678,-0.8426275723194645,-0.8820625712127903,-0.9173403873683083,-0.8992346939094905,-0.6961651251267189,-0.42398362358761627,-0.23673854219454232,-0.1154902817915551,-0.03545131905239425,0.013777383372875762,0.03360622869799232,0.04997345567867527,0.09102857650543758,0.17865145514130046,0.32615358035787084,0.477236743896682,0.5463894063769844,0.5585076351514596,0.5609533548612154,0.5806254099211274,0.6034637031988953,0.5984070920316781,0.5305710022834376,0.40223409343652416,0.2554362150234021,0.12106534519513695,0.07146184572491665,0.09796898083306856,0.12574959511057485,0.06890147245415276,-0.07925823481958173,-0.18481592670222027,-0.23069680013835803,-0.25660543739245006,-0.3010081488641319,-0.40097912743305963,-0.5115925318623468,-0.549851746475538,-0.49365083400278476,-0.3440243463579987,-0.13419180925986535,0.06519750362834259,0.21805462266874914,0.33934500661958217,0.43003467082943686,0.4842095786609103,0.49784284227295644,0.4919229937682111,0.47972264368330364,0.46077889057288707,0.45060434195234816,0.4690732392873886,0.5163236159148155,0.5726782937964655,0.5924894459479172,0.5896584238545919,0.5912875341170011,0.6347738182458547,0.706853922268349,0.7586145377832915,0.7759401176386884,0.7639301547870659,0.7295866467817904,0.6891687246668969,0.6769362782179178,0.7278509249148671,0.8024205409449928,0.8464447965900668,0.8639737588988745,0.8620915820761471,0.8341632109324602,0.7771235653479966,0.7161207251776369,0.6766480895147199,0.6634328020366227,0.6674148175609578,0.6880992315376683,0.729034002800426,0.7960652249113989,0.8702622034575492,0.9045367863763856,0.8813415337945344,0.7958455734598018,0.6456386118486356,0.48564574619954903,0.3701101660619852,0.3331034417180114,0.36643048579372967,0.4104023355503742,0.4308993775652375,0.43833463127653216,0.44181902517888577,0.4455330187405769,0.4421091481423364,0.43731400552353633,0.3765138059653925,0.20110310409188945,0.025277595940509018,-0.08764142150565571,-0.14168374808436845,-0.14419549348477226,-0.10856375107112297,-0.05036154548227805,0.0030438078183320913,0.02699467274230067,-0.007810005462305373,-0.11097708892529429,-0.25362615254607346,-0.38161332120609354,-0.4560711648145035,-0.4467892329263498,-0.3245385716536773,-0.08338146200487098,0.15734522023534936,0.30178364957056875,0.357362873898351,0.38181669573783966,0.4156725261425543,0.4459976437861197,0.29576957498324913,-0.08367827311774804,-0.29662672275855617,-0.4174351042736602,-0.5142086698787458,-0.5445148699004493,-0.46913607399149626,-0.36132214862293577,-0.27173219088344686,-0.20093494519494015,-0.1124502190378219,0.02628853122409014,0.14299907690661776,0.2220358142742268,0.2980781681872818,0.38115009841515524,0.46761393488018016,0.5467230415441531,0.6100981326766177,0.6604987581208517,0.7064858895243783,0.7534278804776278,0.8013700415605489,0.8458158306176008,0.8746203311323999,0.8745330704302294,0.8419933796449858,0.7997588511515618,0.7690907914731129,0.762069035050621,0.781154564509924,0.8080689900625739,0.7306677298453557,0.1721032870506886,-0.28950194012419855,-0.5125696697422346,-0.6734261582444726,-0.7983388828280349,-0.8455327349548888,-0.8189198937013322,-0.7705119395996517,-0.7345904885655178,-0.7312564413065318,-0.7611417118748296,-0.8020409694287864,-0.8385166603367428,-0.8668060909557046,-0.8860471257942998,-0.8914909175906195,-0.8696146808979913,-0.8132636872027617,-0.7440844978708979,-0.6823325295477181,-0.5953766087791338,-0.4327899028014181,-0.12283766225352057,0.332964646085156,0.6852179171987531,0.8371798384751113,0.8994686104527138,0.9221765270980938,0.9176819032040926,0.8764737872773024,0.8084782263497343,0.7315652984179349,0.6545769325320228,0.5805401729706052,0.5104585611276572,0.44039761183512394,0.3656244817444029,0.2566687787097411,0.06365691471415325,-0.21684393525370046,-0.5276593882628053,-0.7554873064493015,-0.7948834623147933,-0.749968915495537,-0.7169769078952956,-0.7070124246281364,-0.723934116938619,-0.759868909497173,-0.7842463925530923,-0.7823816761627855,-0.7842245808834514,-0.7953986108380229,-0.7944144500944718,-0.7692527131921623,-0.7123514585388616,-0.6186208353121405,-0.519959153809591,-0.4477658289070017,-0.4114950682802621,-0.41112409768464414,-0.4470826534240642,-0.49210441240588787,-0.5084914716959419,-0.5103883811050849,-0.4975308124367346,-0.49475828062817867,-0.4964132734227389,-0.4796838842378693,-0.4265888639943594,-0.344143585405716,-0.2601633306396457,-0.19462669329314028,-0.17984590103438672,-0.24773277613647304,-0.3681679949976356,-0.467601335397439,-0.5193316147675716,-0.551730235312218,-0.5907905241769045,-0.6186015864181544,-0.5261209519170483,-0.2685917795313374,-0.10138374533402558,-0.045403915052916285,-0.03323289918595931,-0.027681788583822947,-0.016238090675991225,0.0061922319505158625,0.05436248701438072,0.1391001289742125,0.20993390437672502,0.25752259128425464,0.2863360165790629,0.34935068141111025,0.45444284545976776,0.5731681707816404,0.6478907305006477,0.664329410069025,0.6573757230617255,0.6527315001014632,0.6582461970263296,0.6730499549851053,0.6927275671304888,0.709896410503039,0.7220142597780841,0.73527358164786,0.752271567082163,0.7598820958402537,0.7426944575431769,0.6970718504403025,0.6197459210196573,0.4993825042613922,0.35043244379458155,0.21154789336788277,0.11020108508399072,0.053651961458222396,0.031271251432295595,0.025770797717071983,0.03642504100935683,0.07670280092078754,0.1502480858338697,0.2197318133859055,0.22681114528399282,0.193745420230422,0.13272285999088448,-0.0029205677881072585,-0.22516740062919174,-0.43020930845895167,-0.5655408234729857,-0.5748521797923448,-0.4492338143432016,-0.25930786060887,-0.12273096189303885,-0.10646630819911357,-0.18157956192366081,-0.28842507508598236,-0.36271675135482456,-0.3906722114110879,-0.37341172084031493,-0.31961978377516737,-0.24596817025874987,-0.1815122896065466,-0.16162030284859324,-0.20118185585131385,-0.3038763043650364,-0.4154498609291439,-0.46225868459372277,-0.4271942970995724,-0.33146218190008836,-0.18384152425724237,0.012471481799904116,0.2080038269736487,0.352251924629633,0.42535446265861165,0.4569167151999468,0.47299320304277437,0.5121500635785016,0.6133753376077545,0.7671567028421438,0.8817048639914706,0.9068023262823985,0.8944973328343463,0.8753944328329988,0.8607186041162043,0.8541224932627657,0.8520758530435267,0.8536809937758926,0.8575107185822939,0.8649935043384773,0.8777282391654643,0.893327430154407,0.9065905527825241,0.9109559886698603,0.8962571940702647,0.8510050497072866,0.7720226786665056,0.6837767154586258,0.6152469440280731,0.5671595246218959,0.5261037301245423,0.45506836190832306,0.31341589384226204,0.07755113483973584,-0.2549131628389661,-0.5932836485323156,-0.7629748108702541,-0.7816495503156123,-0.7600797739346369,-0.7402813212183564,-0.7249393598813649,-0.7131572942863513,-0.705024946444487,-0.6950568350997806,-0.6801007722474275,-0.6581691895949516,-0.6325599925708861,-0.6069612498893686,-0.5947426437976928,-0.6159710844306224,-0.697136647619744,-0.7956036052328264,-0.866078784439852,-0.9009763924687056,-0.9166048755947779,-0.9229054372784851,-0.923197484698546,-0.9161098445146058,-0.8896024759882676,-0.8192467221574787,-0.6974664872368349,-0.5300411848406319,-0.31916633759287477,-0.07651149089411656,0.13955436106614394,0.2922118754397614,0.38865134835394155,0.46039419956468175,0.5231324414995837,0.5874140737987976,0.6552898183259619,0.7164532902105892,0.7544999709145858,0.7591976351171253,0.7319665665149037,0.6782111268640311,0.6002640599663311,0.47238040953207044,0.22732245447817132,-0.2809667394213506,-0.6675234614836026,-0.7256046456146952,-0.762616006986766,-0.8119942148981408,-0.8522054821171319,-0.8793072476554425,-0.8962188907078829,-0.9059850068447867,-0.9109009388358905,-0.9120962811241985,-0.9075977774827833,-0.8958192823147615,-0.8794130506001234,-0.8618179869850643,-0.8439888142726194,-0.8235191260518777,-0.7970240090868433,-0.7560453015638897,-0.6810229880802813,-0.5308883016758005,-0.21030519643642914,0.44890004118105215,0.8708670817223716,0.9332499197614943,0.9442492385395759,0.9468293947083755,0.9427990548572769,0.9349352898072817,0.9297455542630009,0.9300038739790014,0.9334305520340821,0.9372446853047753,0.9401966266384442,0.9436538850236516,0.9489233691061059,0.9547772273420876,0.9598014879697186,0.9636519481551755,0.9668989646391224,0.9697511441704543,0.9693786053940476,0.9556368164826385,0.8864312398590097,0.5751466291003782,-0.10013644046988658,-0.5194536016925431,-0.6832221376074542,-0.7493118136072439,-0.775426356041362,-0.7885368630308134,-0.8082094716990854,-0.8426598498734672,-0.8816398536744472,-0.9095239239785583,-0.9200132500318657,-0.915208525512984,-0.8998123877440621,-0.8740259575135001,-0.8327856231736134,-0.7653873107128197,-0.6523192758928628,-0.5035464592557867,-0.38243166859500827,-0.3345776078698907,-0.3748900052113476,-0.45745523455894543,-0.49021543389375316,-0.48748094256761837,-0.5149418053749699,-0.5990107888364229,-0.697867340218229,-0.7800707299845463,-0.8452356699878495,-0.8758470372385601,-0.8783312205843359,-0.8715600551418557,-0.8699292599671624,-0.8787191935401985,-0.8969215885858101,-0.9229312160538579,-0.9491257824265359,-0.9573412628072631,-0.9096154201106909,-0.7783984102660203,-0.6271177568494961,-0.5556725036706832,-0.5599697602661546,-0.5906008733624597,-0.611876349117849,-0.6010837945521816,-0.5087952618923538,-0.2937526493163807,-0.029288022580922415,0.1956875028179913,0.3969367938848826,0.5624145150599597,0.6413037170607623,0.6451225979210268,0.6227225803156026,0.5970907085480773,0.566124467894165,0.5380317064223776,0.5225671630171981,0.5373406867273598,0.5878640634565881,0.661652537954999,0.7341041722827446,0.7758443817751057,0.7828900157122245,0.7646920842449645,0.7321517940599925,0.7012211578875877,0.6625813762140725,0.5900286255189987,0.46473742472503865,0.29576725366392714,0.10289723526152467,-0.041915064559866974,-0.08521551277265078,-0.005961279491942096,0.14241470175417567,0.2790809077692837,0.3710407039882983,0.3973009515664304,0.3708493082184302,0.31331648875807144,0.21202931628963914,0.13589174365644752,0.11478145037941617,0.10882171788435767,0.04535779462739426,-0.11716802524736178,-0.3509604961061935,-0.5164807316724382,-0.5833422595502221,-0.5903068715397433,-0.5678328449671126,-0.5252189515519435,-0.4555854112341997,-0.27082559065010237,0.3239506794804746,0.5802971890878228,0.5766131807573291,0.5376355095141869,0.4767710327778469,0.3661952729639368,0.12872522521028085,-0.12972810865919002,-0.21351895327363518,-0.23141696469554562,-0.25803956781659665,-0.2899755169978382,-0.3172952857575186,-0.3378504587819976,-0.3541448932568151,-0.373541377556602,-0.4115923126547357,-0.48232945835912233,-0.5807289998378371,-0.6888443170790337,-0.7796335010149473,-0.8220998803119877,-0.7752436585549298,-0.6774066717016657,-0.5755326936717717,-0.49021481167110004,-0.42182905941719245,-0.36445760595628657,-0.27557775854531086,-0.01735047750540192,0.34284974048327066,0.5096471309377608,0.5962031499491763,0.6439079656484961,0.6733734843820134,0.7017584120421729,0.7333142637665185,0.7608617811468461,0.7806793342254887,0.796125134962092,0.8134672679497666,0.8359531080868379,0.8614753460042952,0.8852415061022846,0.9046619315019228,0.9189466873239549,0.9293149475574449,0.937178188451634,0.943971163011692,0.9491081026304212,0.951929625109348,0.9505766519234925,0.9400861058161464,0.9125786154966895,0.8528587035634865,0.7291315834303329,0.40401623836888945,-0.30847655452788264,-0.7565906685060363,-0.8665409863692891,-0.8936111864091009,-0.905372074731469,-0.9073324057641097,-0.8993195605814919,-0.894100006565613,-0.9035306548543405,-0.9246708676080523,-0.9349520472892398,-0.9239677275749135,-0.9051551524967565,-0.8898048694165096,-0.8777051242424045,-0.8703646150983996,-0.8659083620416342,-0.8651129148997896,-0.8659467522948372,-0.8655705156803134,-0.85625046198025,-0.8277895834434176,-0.7800996548671534,-0.7253165904566208,-0.6767447182732131,-0.6447064000669377,-0.6426031795126893,-0.6670309802259685,-0.7089922113124275,-0.7617111417150234,-0.8113161589683762,-0.8105565498981446,-0.5495884714900585,0.31463927288347787,0.7603434223230369,0.8793765473264126,0.9146504716772781,0.9213035675424652,0.9180165430224998,0.9113275717484254,0.9015831315964328,0.8835084621126015,0.8502965987684498,0.8010110281519186,0.7416728874010818,0.6806392424233456,0.6179472563426057,0.55827702060633,0.5078882934092089,0.4629178078451797,0.4111503232051245,0.34039732941648293,0.23037386876343688,0.06279814088063776,-0.14565421457781033,-0.36953171617075753,-0.5609574168893193,-0.6996426558281443,-0.7912090316344396,-0.852086127061517,-0.8879482349729119,-0.892563313340195,-0.865725878801923,-0.8171819558664096,-0.7592799271145363,-0.7035518835564396,-0.651894790564998,-0.5965357684370713,-0.5536237691349498,-0.546472730351033,-0.5863432421658148,-0.668244016818412,-0.7544013170362609,-0.7895459294274335,-0.7915877884035759,-0.7929900735909905,-0.8007548845390126,-0.8172213159548124,-0.834410953770814,-0.8442599231111532,-0.8405319260500607,-0.8162107989819559,-0.7700196268136675,-0.7217648392040702,-0.6962344173296799,-0.6994621032254869,-0.7171399391671377,-0.7252143887422299,-0.7037926237227551,-0.6668268089219711,-0.6281212132257565,-0.5903956770527851,-0.5465072578823262,-0.4680432538389043,-0.2791917783180593,-0.014289267838054318,0.23548633771924446,0.42535428818298715,0.5491087189132644,0.6149320536221599,0.6567502822493194,0.6984549482588244,0.7404899830827205,0.7706085743088329,0.7911271966440041,0.8068282589607426,0.8224888587396945,0.8412686202285584,0.8638862365258495,0.8834970857622448,0.8911896249230024,0.8848263798305827,0.8740459669351713,0.8647176435908891,0.8342130412236808,0.6889524637908759,0.4290396088624389,0.20794236610222988,0.07300660314213923,0.028791006983473172,0.0821083224256018,0.1794172683584815,0.2589059269111851,0.2910474180861566,0.23062493328048708,0.06441755813352076,-0.18828397985376313,-0.36711574300164923,-0.35871340011968067,-0.28119556967088566,-0.22671599966333225,-0.21088110156204534,-0.2251681203758296,-0.27115070862659746,-0.33386394056394575,-0.3529930657819377,-0.2523114473666986,0.021474412950902556,0.329487548325168,0.5322115993256926,0.6416461277856842,0.6902494446124752,0.6974967020482052,0.6803397635258954,0.6613719096620739,0.5999489829424847,0.5471419445235414,0.6011273124381409,0.7139227004119013,0.8045086281013824,0.8218392792686678,0.7608692057658324,0.6569243287179698,0.5530505261667881,0.4683692559195768,0.44088302147246106,0.5038883839992825,0.6154870427810675,0.716075091543278,0.7835607135633156,0.8272919990830536,0.859592872159446,0.8855302635676263,0.8948840802501306,0.8670655520823066,0.7890479225755159,0.6788800969966161,0.5611333589855121,0.42722304441182657,0.24246228670264225,0.0049275660007792755,-0.25974161344189745,-0.502962395631003,-0.6696453626248958,-0.730138569166007,-0.7113217448304116,-0.6248095837573963,-0.4132041096548017,-0.04291681060656734,0.3049470069782614,0.4970208118490651,0.5819604820763257,0.6036274590760645,0.5714113377691253,0.4640013906808371,0.21940535201888398,-0.18086548688406548,-0.4590783765129574,-0.5572236181134628,-0.5916213315753452,-0.6124717736927903,-0.6238519520920816,-0.6250244773562281,-0.6136713890865704,-0.5805292798589952,-0.5040898701202701,-0.3813296940226595,-0.2237005794405743,-0.036315603521140494,0.1956714857557052,0.45391638419982766,0.6555730462137854,0.7557998002736935,0.7493129982010838,0.6652157191975246,0.5685490535435387,0.46922966580315134,0.30918266376398695,0.10191963926660039,-0.08691088120073029,-0.21729678963062862,-0.27651376812466033,-0.27984233581999673,-0.24647250576114832
