0.27263345272712924,0.20129336762527922,0.08481665205818636,-0.11817793507702923,-0.3662607186179594,-0.5439110398170474,-0.6090951450151222,-0.5697486123387102,-0.4625470531043603,-0.3542406346343152,-0.28712736656961146,-0.26018121981342995,-0.272463462923666,-0.32623446381107124,-0.4329079866340497,-0.5910648294796468,-0.7503268609956871,-0.8499645867594353,-0.8933980775853214,-0.9118821358235736,-0.9244641511868861,-0.9367328845782816,-0.9490473946784856,-0.9584099039388411,-0.96196792213537,-0.959457629726881,-0.949247210743274,-0.9231952584195822,-0.8556331671379381,-0.6733505733868397,-0.16487641161144345,0.603837136930679,0.8901598611915277,0.9543821482614114,0.9686473172362955,0.9686713242090996,0.9635951547957419,0.9568605129684001,0.9503289965839088,0.9434965233529266,0.9306032197029384,0.9063329857449309,0.8758518498297896,0.8570872421710588,0.8569201893921916,0.8610230000673307,0.8723526409684375,0.8919204060231477,0.9003546240941283,0.8864119622880884,0.8729809029790131,0.8728581985906088,0.8846736759344721,0.9009717486506126,0.9159378547437182,0.9260576129041329,0.9319767226343586,0.9337353662819742,0.9301150489122891,0.9153686928023087,0.8670504596542922,0.7179195395859806,0.38673520005825657,0.08953785977335685,0.0740467985381474,0.23866391877640566,0.3971436706275497,0.4778145564062366,0.4686057550593357,0.3345236740638395,-0.03204427575818624,-0.5373373046584193,-0.7833326743849001,-0.8559412911596359,-0.8910374591950032,-0.9255721204103811,-0.953409836956954,-0.9668322246636307,-0.9722630459484776,-0.9786985807639511,-0.985130472190211,-0.985913698638553,-0.9795366421845606,-0.9674346904762468,-0.9534515591349196,-0.9415904097783346,-0.9291953014609582,-0.8833578197991138,-0.7146513694219038,-0.45488752853224923,-0.30304184511628257,-0.29211975729834333,-0.3084275961407594,-0.28653572000517386,-0.2090384252639998,-0.06013793544338764,0.14345906165270267,0.32494849996379727,0.43547711355630714,0.4787183295052166,0.4739992551843337,0.4613227891052187,0.47122169305551004,0.4945455279507909,0.4946987669510555,0.4220767506692533,0.27103652684980006,0.15343754012835778,0.09484057929039098,0.048256098713079364,-0.003893957608449441,-0.06291628620154638,-0.11276825039949724,-0.14391094640015314,-0.1456302991138267,-0.09915161912015687,0.012802179942930479,0.14892763124451738,0.1909439606963553,0.14464032801185148,0.1002136021850525,0.11584084777882377,0.1766272232081321,0.24254245842355904,0.2882664216039485,0.32336197805323186,0.3832083415101157,0.485827921685583,0.5948923500376192,0.6878053835395881,0.7511748680796068,0.7743199593619037,0.7553789166053625,0.7154906332568338,0.6781628976982182,0.6485595560990655,0.6225836526242454,0.6003753640008819,0.58642900799461,0.5813990822101913,0.5871982631084979,0.6081310808143473,0.6564063064536392,0.7295405712042117,0.8049629194868668,0.8544741084088856,0.8696591471150206,0.8626089726062356,0.850598955527068,0.8547903150111463,0.8853221635700667,0.9266157813712225,0.9459984531623561,0.9286273652028518,0.8856824981287563,0.8294881670654184,0.7665936228985931,0.7071796020072363,0.6531344835279878,0.6014813777949874,0.5376342315593692,0.43651078707698665,0.24112339063057167,-0.13263936738261395,-0.5612462022477503,-0.8046265761268078,-0.902302147074069,-0.9391466107654373,-0.9534649623377441,-0.9589756355339382,-0.9596970147403628,-0.9570617928153268,-0.9488795360300021,-0.9285559018665385,-0.878886836513563,-0.7450808450676263,-0.37980696749550485,0.18378263381779492,0.5265788063144752,0.6659831509169607,0.707536166187604,0.6912318340107318,0.6251276592968147,0.5118243499184052,0.38228014989938874,0.30506445347876665,0.3625639062234636,0.5511323443003975,0.7365663396726296,0.8682937599519489,0.9493425064180999,0.9858621326570202,0.9813887752037173,0.9439105070265074,0.8951959750695295,0.8608982085405893,0.8380895982139382,0.6852400943636269,0.22128343236108108,-0.18318715641754557,-0.4309661244305046,-0.6024709860782365,-0.7237272910131766,-0.795375516569622,-0.8283812785813729,-0.840713653359719,-0.8412700067752487,-0.8332472561465456,-0.8225690442713655,-0.8234795945469829,-0.8493372508417892,-0.8642002119801222,-0.8354443411105971,-0.7905558048519534,-0.7381351071952064,-0.6582081083791259,-0.5172152285179171,-0.2800505761054072,0.029039883924119905,0.30596664291389614,0.4895372585887177,0.5968922365242062,0.6613399702913069,0.7127673059032432,0.7707730069351368,0.8397350281845005,0.9011758917828055,0.9303075053572979,0.9249657618156564,0.9026047039184897,0.8783238079097575,0.8516714159984383,0.8083853414775996,0.7252187478962516,0.5703174700786342,0.3421947772872249,0.10895518195846846,-0.07737946629599983,-0.22720491416890357,-0.35969793697462527,-0.47333145912829616,-0.547789670253554,-0.5659088732411087,-0.5372372598836723,-0.45788933656694236,-0.320645494730798,-0.1304206059886638,0.07622753161699829,0.24649549780247984,0.3474983199552631,0.3935858404588699,0.41545098815438636,0.4546633203673886,0.5191669696340786,0.5900430053740787,0.6441998276145489,0.6675487333798228,0.6864588105770463,0.7544554074459507,0.8533878234691292,0.9247709126484389,0.9552050241114906,0.9619282412949071,0.952122017149972,0.9147259929736647,0.8318960549185763,0.7117605781149937,0.6247086830931394,0.6038896127357655,0.573588164845803,0.36605811944413447,-0.13244993525028884,-0.5669278804755705,-0.7697773595557104,-0.8550143315743298,-0.8953797008868868,-0.9167372525353312,-0.9281544656112001,-0.9317443024860855,-0.9243957764649996,-0.9028859512025745,-0.8728938561262704,-0.8432982342555159,-0.8105969323295088,-0.7503560016774078,-0.6797882068150697,-0.6570310922433087,-0.6914520987745593,-0.7455374582458236,-0.7837298298966526,-0.7861985497068299,-0.7601874124296668,-0.7221544574091675,-0.6811103031730711,-0.6524607069925273,-0.641900146328411,-0.6570463232981685,-0.6964530406158315,-0.7496138576592936,-0.8021248531854476,-0.834358510772667,-0.838782632543041,-0.8032177637952456,-0.6916790017075944,-0.45091803304792955,-0.10399547060024131,0.20537007629506412,0.4031758940179376,0.5031343961841793,0.5415804556612488,0.5539887756309941,0.5655164973104432,0.5690153748412922,0.570081613084552,0.5769660271728659,0.5880786919059641,0.6042833325890773,0.6021972779032653,0.5698146739809976,0.5279293032625577,0.5062205238996492,0.49817085615912227,0.4989069956425606,0.5302874895988086,0.5966176667196248,0.6032397285971499,0.5061799546543077,0.40167448499109193,0.33291586409936486,0.28885546553646363,0.21974890545047712,0.09851670695946625,-0.04886936177842084,-0.179457153441526,-0.2510135389988146,-0.2783753688911622,-0.2754990468660967,-0.25895199465662927,-0.2302334835495488,-0.18026194800243275,-0.07848137059444747,0.12985978763272962,0.42304622500337813,0.6055265159604045,0.6472804964911737,0.6391830274220057,0.5981281032459141,0.5254576356321283,0.4301457438501179,0.3277987973452949,0.22560092619534228,0.11338655924634575,-0.019003307741275226,-0.16127354668829808,-0.2676539069088149,-0.34427673097833034,-0.3691847881217865,-0.2983050995659584,-0.2118408217359515,-0.15342053800376973,-0.1680868128376481,-0.24616396722033362,-0.23657922238728968,-0.008442010655172945,0.49402992323066497,0.811484952737412,0.9175222205598008,0.9575913380454851,0.9746025971353838,0.9809273055826607,0.9796854444507759,0.969913555996884,0.9480648287633077,0.9150525018752663,0.8870804553012664,0.8844117651488568,0.9027166452896949,0.919168844591748,0.9172671378553592,0.8913403581702494,0.8531278931293695,0.8229433110476791,0.8050698295996774,0.7882103261711066,0.760675404149876,0.7065526295973437,0.583000880444233,0.2879087467652909,-0.21533277493521194,-0.6033734085401404,-0.7788263317078308,-0.8550980768814261,-0.8917028665033407,-0.9106760087855673,-0.9191134573201263,-0.9180608099138858,-0.894098988045757,-0.8078904259143783,-0.6749683395626155,-0.6131462372758796,-0.6346316961838693,-0.6800936503210573,-0.7120807383558769,-0.7274222276218868,-0.7497952427905489,-0.7998031227309189,-0.8727257251913545,-0.9301225111283746,-0.9589030292365877,-0.9699407015538248,-0.9702645424177296,-0.9639038973475226,-0.9544583398358568,-0.9455467712903565,-0.9412608668327569,-0.9443868148958748,-0.9303538994776657,-0.870528892690093,-0.7896992044317221,-0.7287561860257645,-0.695823860534627,-0.6698628615459828,-0.5927904644399474,-0.4308915110150413,-0.26204610027185715,-0.0006029516729390746,0.5063664492512412,0.8661098314140822,0.9627823867314871,0.9803484021793434,0.9824341144477343,0.9806764227189105,0.9788461441962597,0.9777540349017783,0.9751196467402281,0.9647397368118015,0.9391111445858032,0.8687008379356705,0.5872744500541448,0.1617181632366109,-0.0033727832295114787,-0.0381263668786133,-0.08819852070177644,-0.20967820209699237,-0.3659112739509142,-0.49619622251630324,-0.584388311463098,-0.6214947658629723,-0.5951359501887716,-0.48911161589622093,-0.30233588416604074,-0.08603000974107217,0.13754745426934817,0.4127816154899547,0.6888474894578311,0.8235728939046723,0.87628841039446,0.9143205365140104,0.9399884793297997,0.9511504580874554,0.9436270963615621,0.8995270496316498,0.7416001543021006,0.3467492603269324,-0.035151278657987735,-0.15995667888254458,-0.10431908113104606,0.04662868155346509,0.1909171730474455,0.23655215893154527,0.1464365507734103,-0.08757949960833589,-0.3535132843429431,-0.5033877850655472,-0.575984574724847,-0.6306595989901159,-0.6852854695386411,-0.7435118954739768,-0.8053908833945914,-0.8619768873182256,-0.9061441562933201,-0.9341139269411587,-0.944887839153619,-0.9387349196405536,-0.9087514358904107,-0.8400780658879057,-0.7209590257129855,-0.5461173573904108,-0.29712552211176835,-0.008367851086665826,0.22499083661141545,0.3679146240906702,0.44817171599248545,0.49855219640611986,0.5198455393165825,0.5108498990100343,0.4657678580916817,0.38385986367089353,0.2765195560821943,0.16721368655866933,0.07856548157426266,0.028211418429227468,0.017898563775911088,0.04411587740196603,0.09586557287899619,0.15000491863096263,0.19416337549857146,0.220284218295818,0.23000724961108537,0.24621560996794972,0.28553280730240393,0.345670056918423,0.40633633054049556,0.4511823203903367,0.4889986668199769,0.5233123220603507,0.5558416068342348,0.5820442020840185,0.5921971575334536,0.5793037743061258,0.5546432276658451,0.5322677106871887,0.5212190120639654,0.5210460160987561,0.5278015567212834,0.5355360920534762,0.5405011251082374,0.533391886574485,0.48453983217317936,0.35309192255455646,0.08674579537162506,-0.30005553375040706,-0.5643784716234128,-0.5832738062143741,-0.4794646020555834,-0.3511014686434006,-0.24100690028960403,-0.16013449035712374,-0.11280274475405658,-0.09259536488535465,-0.0988099147919737,-0.13190455554553404,-0.17966282358129518,-0.22258210902019682,-0.2461794769116164,-0.23989511744072994,-0.2007703545587755,-0.13933264889727257,-0.07315596820500511,-0.01862454969724581,0.024177469288567982,0.06635326058617645,0.12302213523170148,0.2067511708504756,0.31367692238890194,0.4036946320935505,0.4393674991614831,0.42196635024775836,0.39469353781490024,0.395959142857886,0.42715759246316654,0.44989045940282896,0.45300177486750953,0.4482666743506707,0.44054252192877585,0.42141201022806674,0.394458283185255,0.36390630823098913,0.3357691165379326,0.3024646118839612,0.24252363585365944,0.15709229899075272,0.07612493573511939,0.015349815239464194,-0.030639459590341787,-0.06820723471994426,-0.10653534744177759,-0.15292529479953362,-0.20703796637061211,-0.26308360412119675,-0.302978407138961,-0.31013165568149975,-0.29616596260176037,-0.2918023645966606,-0.3088706150434872,-0.33712571766214056,-0.3547491073151743,-0.345933581407687,-0.2857242795028489,-0.14567533501095786,0.02880912876933079,0.1292377250839565,0.156672380655254,0.14045917187971882,0.10746628918264975,0.06756218977557073,0.021972819315511524,-0.03049706021634279,-0.11309459887513476,-0.2743195296436219,-0.501507135045679,-0.7090150883949822,-0.7964515104954978,-0.8106346702571354,-0.7901348920419416,-0.7531846307480689,-0.7114318885994209,-0.6744399243513566,-0.6430787502764027,-0.6014701100507348,-0.533061715557195,-0.46328753924674326,-0.44405329858977155,-0.4649691984046302,-0.46043290079612187,-0.3886472056087336,-0.22257649963252868,0.07834195811871203,0.4757845770384644,0.7695539379546965,0.9021760882665825,0.9532775912375931,0.9742264514517631,0.9847612095603441,0.990034974808165,0.9911152711407079,0.9877401635730181,0.9625063398794648,0.191319798952246,-0.8572608930952895,-0.8541934871197382,-0.5419909896353629,0.16193328805011553,0.5556517947415781,0.6982037723835739,0.7214152372381019,0.6132570818852893,0.3458742419132367,0.02412940378760663,-0.22865586937845236,-0.4106722540443787,-0.5406281634479069,-0.6494538983739885,-0.735273628417648,-0.8094923913020506,-0.8824004252212763,-0.9396044369494942,-0.971588594655472,-0.9860305387832559,-0.9903243707310608,-0.9896104653500102,-0.9859470945774569,-0.9780227642351734,-0.9649148251640938,-0.9450440519332048,-0.9118804467348461,-0.8495341987492062,-0.7214123609974674,-0.3913606285589048,0.34818037899720417,0.8046551105317886,0.9123882876311267,0.9349389062241348,0.9377653479589377,0.9326821489949491,0.9220571980642246,0.9088727443074989,0.8977368715343037,0.8935410303949765,0.8984292192857448,0.9098781358462041,0.9210815300004966,0.9239712749542212,0.9126009871207799,0.8847594272545861,0.8455821999593229,0.8280432112000374,0.8570757655607834,0.9035771387466998,0.9339072550380232,0.8565795816414985,0.07113185908363447,-0.7176020771251815,-0.8869451535810613,-0.9386805829531181,-0.9592637697051506,-0.9652541222902833,-0.9567660859254572,-0.9197448640431912,-0.7806571448746302,-0.22032786307264612,0.5253012530649414,0.7757969877506788,0.8519404234174761,0.8855732414651987,0.8976235678097001,0.8750844890317133,0.7875906780699308,0.6257154068620449,0.4040270340977725,0.15417075408467756,-0.06740676247960159,-0.24067336601530587,-0.35485939410764383,-0.4152220472623662,-0.4323659332368544,-0.4312387313654446,-0.4277369954587124,-0.450055549365651,-0.5139315287137362,-0.6086181191714276,-0.7057483206275379,-0.7815986568026817,-0.8379233052082904,-0.8801733675305903,-0.9032600041744099,-0.9021637616448739,-0.8603104158165826,-0.6957078549216915,-0.05400598028571339,0.7030943786769671,0.8955902530383563,0.9349796581931202,0.9293924843120828,0.8896150335686831,0.7817374498700593,0.5207260806791825,0.12147504839847709,-0.20393280488294144,-0.4168544145999575,-0.5484339989023701,-0.5405255183508799,-0.47191885499498815,-0.4571359394412319,-0.5020974746064628,-0.5653090384427797,-0.6033773661281009,-0.6128399841708304,-0.5954787052518277,-0.543462873367654,-0.41692590293745624,-0.15892782796627453,0.17473089508321382,0.40243825915330406,0.4709800838866554,0.39877994879342216,0.20387422340719713,-0.009534099269509003,-0.14064466085687255,-0.18865969146668804,-0.18259863060436812,-0.12094869349247567,0.04397853382019474,0.41482240153732547,0.8327035725417262,0.8951314667134791,0.818889885412447,0.689399308748347,0.3432345021030388,-0.4082645511789107,-0.6775456546174158,-0.7518960492754581,-0.808100553394455,-0.8582748188826679,-0.8984176630912545,-0.928592287787729,-0.947736707074905,-0.9505635771899258,-0.8774377815763682,-0.3320970973819451,0.40824961091509615,0.662182178330115,0.7616373416748364,0.8066438505606999,0.8109968768863604,0.7530394961148227,0.5531617062679469,0.1840776270515293,-0.04210603082499557,0.0035278545999150243,0.19776499474591008,0.4152095804953835,0.5733374937893516,0.6679932602065299,0.7195116716711754,0.7501017731485079,0.7736592804327591,0.7988192555431374,0.8236842850134294,0.8440576224202879,0.8589926865551993,0.8668053866193144,0.8646434617882917,0.8497721271341018,0.8223649453501566,0.7780657596012781,0.7128152933215589,0.6313304063193742,0.5535589403868604,0.4912508722815695,0.4453667769619484,0.4094327408769646,0.37662782340749473,0.3462556436254795,0.3042150762932194,0.2452287751689158,0.20073848199850022,0.19667796287966033,0.21455892705587207,0.21383138509971253,0.15255601265765995,0.0024534868422289007,-0.19512455529923114,-0.3395918675550615,-0.3707907430960988,-0.32331623123132786,-0.3086527211562192,-0.3732460932901634,-0.460302777034235,-0.5105826658379553,-0.5325275307046277,-0.5406617050412341,-0.5574689037256524,-0.5946884767153262,-0.6591373754339187,-0.7337674022662197,-0.7700006957507264,-0.7600372077542598,-0.72649488505822,-0.6835324877271999,-0.6347430920665669,-0.5779084498838855,-0.5013433504121564,-0.4030922350801093,-0.29342798502487094,-0.18631287619653017,-0.07996513207976536,0.022701237070672103,0.11286315689399712,0.1854615863747433,0.24602007683896207,0.30572768463882893,0.3590412498678388,0.4041703054492975,0.4445349259412311,0.47548332912994035,0.5032020571311983,0.5368799676216148,0.5743511128464758,0.6038962686301715,0.6015860115032221,0.5606915993908865,0.4658685879039296,0.3150725297734986,0.13886627380415223,0.007325439753418999,-0.0647628412411756,-0.09549824529290388,-0.1283411277970026,-0.1806420849228602,-0.23562793345844063,-0.28862689576333933,-0.31352008180330415,-0.31420594133120583,-0.2758618870097116,-0.17940627654798758,-0.016347188099748222,0.20167062582243944,0.38961438915157454,0.5043349522408676,0.5786184680036391,0.6265027540289851,0.6518074319345408,0.6561956284376774,0.6429128322559137,0.6135063388259979,0.5724792991318115,0.5133979623130286,0.4102633675425481,0.27201628422696356,0.05255477664992742,-0.24229466759431043,-0.5286484425049944,-0.7236203454958535,-0.8235456336762492,-0.8639864471787377,-0.8690325625619432,-0.8529558813007838,-0.8221091952862895,-0.7739822592961106,-0.7047188827429406,-0.6192046933498256,-0.5254167598525573,-0.43423421807023604,-0.346642316335,-0.24223917882076482,-0.10946436318270981,0.030457328554388263,0.11969693092021681,0.13384114769688182,0.013141328084496195,-0.3234583339816753,-0.6060348785637827,-0.6676234393418916,-0.6773638273088985,-0.6873843388860633,-0.7021210426147296,-0.7179800668852472,-0.7369659468900029,-0.7609889950947573,-0.7875127524906658,-0.7842748480665824,-0.6780537326922003,-0.525830551051961,-0.4635044471721485,-0.46040713258875515,-0.4738813950544129,-0.47525156842057553,-0.4154656978042211,-0.24417519110089744,0.08504779622185468,0.40300351997510275,0.556327293359482,0.6261397107036144,0.6782668051416875,0.7330110811194765,0.7887418782547972,0.8358008992767622,0.8616843736850056,0.8601149653088984,0.8355875347910885,0.7936049441125165,0.7256464197059997,0.6002028847108501,0.37192074308518913,0.04310918324683942,-0.27102994250016416,-0.47548937875569813,-0.5865271160035052,-0.6438185741408855,-0.6515703797446097,-0.538809095972483,-0.17790682153249907,0.22132477386164198,0.5505422468642127,0.7169154450418123,0.7777936990266047,0.816450587659434,0.8536864612913745,0.8842272925898684,0.8938458068789498,0.8761620737557902,0.8255616162306686,0.7355167049383924,0.6077738101809433,0.45498933568372746,0.29719414255515364,0.13083221687139637,-0.07183388464380724,-0.3098175683742651,-0.5219370111706155,-0.6190049297902304,-0.5906970679807986,-0.496543729825612,-0.4224081383739626,-0.4106419299136966,-0.49019245306796894,-0.6400478988354175,-0.7745237549468236,-0.8225203682517478,-0.7671107709952633,-0.6023216089545236,-0.3321626602376221,0.006275441018285877,0.3442461404025542,0.5941664063270161,0.6935397908879353,0.5793635355811694,-0.007114350270409727,-0.52217568328962,-0.6071085041437089,-0.4226247935225595,0.1339301725602313,0.6603768313042899,0.8527945813205313,0.9155866544286224,0.9363942988425448,0.9407152252292096,0.9393377448106548,0.9360267237469536,0.9303220112883265,0.9119568024169852,0.8515570305389865,0.640672572555995,0.2482548325605383,0.17623012878086705,0.4683843354924515,0.717611469131683,0.8126648560848191,0.8293847317991124,0.7986905089447547,0.7153048285887517,0.5544247163083451,0.2535101517509124,-0.24453789623961428,-0.6538247596572732,-0.8198985633219547,-0.8759942568160173,-0.888514114303192,-0.8770492786693888,-0.8341032684897978,-0.7104392629079506,-0.3760276727631553,0.010582788331529503,0.08819789576723003,-0.050670038419650204,-0.23585031762489728,-0.33740635594373014,-0.3320498580620771,-0.22761985300712625,-0.028396889047527088,0.2065392192457368,0.36095652293773967,0.4205099360800902,0.42708572242332604,0.4053461084636019,0.369220754925524,0.3258719999095434,0.281565270140931,0.24804570515356275,0.2361879072594527,0.24815351745484368,0.2794176317665516,0.3218674063380528,0.3719159665626731,0.43295997010398934,0.507008163205316,0.5839015863067685,0.5515205788739476,0.32569397856051885,0.08238710525244246,-0.1232939754295704,-0.32203185189080774,-0.5023048760799962,-0.6370256947834577,-0.7270663174249974,-0.7868191556508538,-0.8251579876507639,-0.8449316049451449,-0.8531585540985099,-0.8548824553744563,-0.858203160052344,-0.8667889285152433,-0.8787820833775465,-0.8857498743798198,-0.8761431969878021,-0.830710222862809,-0.7169551020986554,-0.5252570163154241,-0.33615121815246474,-0.21541807794797116,-0.14387082632944895,-0.1002010047051457,-0.08255329359345974,-0.12405314598788296,-0.24057294235622873,-0.3686556581020723,-0.396386839682338,-0.30657897358771735,-0.1002181637799755,0.16668184120970594,0.3356422885095186,0.3706354624869214,0.3389812836003563,0.2812571939484247,0.30855988330777906,0.46103788817589375,0.5699364989032528,0.545906330033068,0.3150815786088257,-0.22250713287202792,-0.6814816038973587,-0.8514929966556216,-0.9028346922258641,-0.9007433173907438,-0.801138321212296,-0.42617639757752324,0.07689377459531742,0.33961995049192834,0.4565517219672154,0.5311235248191536,0.622472679742247,0.7273783373192446,0.7746906929070285,0.734969943497892,0.653762778935022,0.5553378986438485,0.4560657864721942,0.3709524116040247,0.3179694863194982,0.3135783191733689,0.3598203506430944,0.4244875263437419,0.47246867362905065,0.48800080182315964,0.48558544442510376,0.4818479481991034,0.49143525614162487,0.5302764012058014,0.6263183954993421,0.7263223846359979,0.7279883876867232,0.6670505564718618,0.5984372630376297,0.5432236185070136,0.5261104179157209,0.5618233072854748,0.6397922809355016,0.7315820855318558,0.8101377154226627,0.8648641114053925,0.900501438519635,0.9244885241981049,0.9399869130732756,0.9462934692037448,0.9370672043302605,0.9010638853030549,0.8129325394936301,0.5929857472489855,0.11985764557449487,-0.3824639441989497,-0.5996757640082567,-0.5967141188801034,-0.4171632788313604,-0.10427235661542626,0.1390724575401505,0.21387873026577903,0.14324840684313894,-0.020152631459643983,-0.14677845585834193,-0.1459360928990008,0.003578646751838407,0.278592529475644,0.5852506237567308,0.7747647042995321,0.8406540044276528,0.8184257499539552,0.6562925466127133,0.25226766030818976,-0.12461974329546037,-0.16862343417436634,0.08362953472290637,0.49390782562343855,0.7987398833185244,0.9283472244640034,0.9669747200563625,0.9607700305034287,0.9189966970053677,0.8391794210813642,0.7322656583829069,0.6676082045033004,0.6903094141431787,0.7322545480623701,0.758429772613002,0.7548002972230009,0.7053813586199337,0.5932485105137584,0.4156518844494505,0.21547016470756603,0.05989947439773291,-0.023498637728700564,-0.04012834337099546,-0.031300055772077826,-0.04732977894715581,-0.11484686547482119,-0.22836934394119673,-0.3632018271638733,-0.4928864100208501,-0.5946483518625768,-0.6756341704764199,-0.7580333587110332,-0.8455562389069106,-0.9123730539222864,-0.9354235948325695,-0.9302129503113952,-0.9196417749463938,-0.9140384897952241,-0.9092872163162463,-0.8987925906354957,-0.8780017382349996,-0.8539015576632484,-0.8377004991619325,-0.8315258945271176,-0.8299107256811086,-0.823063394690869,-0.8039421250964711,-0.7707494778023936,-0.7282647660758457,-0.6934234286699212,-0.6806699713204598,-0.6747723751707374,-0.6372821842283485,-0.5504658196368494,-0.4250865685419267,-0.2902209789371423,-0.1654455149053247,-0.07506767338236844,-0.02750525977905571,-0.01837716736416298,-0.011706829816759598,-0.009533111086064907,-0.01228229920586644,-0.00289350254447852,0.0439461846826114,0.22156631108091232,0.44687451884179724,0.5280047404891748,0.6120621582393825,0.7067025915870133,0.8004733119157772,0.8804412697021864,0.9338323304454922,0.9573700836925343,0.9604741616596045,0.9543434493126665,0.9395919335545999,0.8976347684977153,0.7312127360158273,0.034758965012320245,-0.601334173338144,-0.7311444758297916,-0.6807304515863791,-0.5073409150714983,-0.2375973968449384,0.037871486986318044,0.2461888262288824,0.35838242942843973,0.3994201899632324,0.420507122067937,0.46210070036880635,0.5270328214763826,0.5995776003247728,0.6700371765533031,0.7265887575257938,0.7612667336101399,0.786275080136668,0.8119230402831715,0.8349814320942827,0.8437114180117351,0.8150619423194055,0.6561014515814466,0.004186774794292456,-0.6565434315439092,-0.8057471387818861,-0.7708992212454349,-0.48418506951140544,0.18455985323469176,0.6245385887479641,0.7916133184859747,0.8685935347871658,0.9100241276067751,0.9339236279671456,0.944332106293026,0.9410394182550188,0.9259708410988684,0.9065404717079707,0.8939925214447557,0.8919865941144213,0.8999129680215465,0.9091936053483626,0.9066743337908464,0.8614894489637901,0.7056890016864773,0.4434941917584056,0.2415496550542709,0.1669626973349589,0.19364262048967704,0.266991718163939,0.30661602228339374,0.28117882263585114,0.2132969136229938,0.14877231590301834,0.10644710154693716,0.08701254264252042,0.08364906741329389,0.07998150451519555,0.04763711160283303,-0.03247965092713681,-0.15977171398166004,-0.30437238714882775,-0.4366716629831786,-0.5479872145088657,-0.6498942666792923,-0.7627925639539725,-0.8774987087782012,-0.9060576010139376,-0.8013283678580911,-0.684076517590453,-0.6213785270467787,-0.6113258443953645,-0.6424129591699955,-0.6888933415964323,-0.7145934507797722,-0.7118418841213857,-0.6944977829562228,-0.6742629214002346,-0.65727496830623,-0.6467396497532628,-0.634074583834336,-0.6081546190967307,-0.5584276182794429,-0.47438901625443813,-0.3350955327510889,-0.12177160178661005,0.1322276667788602,0.33051240765198453,0.4263862506116352,0.4406441950427211,0.4079612001817742,0.34455226865015937,0.23909523834129096,0.07100996158272767,-0.15932942768584465,-0.3817328292609258,-0.532297827241834,-0.5899540068845031,-0.5801619128660738,-0.5272628392937546,-0.4508805905044649,-0.38065055489212263,-0.33132816307509394,-0.2987324863624299,-0.285039559786419,-0.268424524606887,-0.208571441644199,-0.04606679315731793,0.23078150922792484,0.4941734077917083,0.6499642764087485,0.730432246445708,0.7598691681060368,0.7606927814955629,0.7614614379447314,0.7781177680519922,0.8065350993695429,0.8391391268320951,0.8730968528533112,0.9040461032170967,0.9263143575473657,0.9359660920371066,0.9308571913327054,0.9131728282230086,0.883758561090334,0.843680512295167,0.7939965365573213,0.7392121587476598,0.6956114411015722,0.6739126369882611,0.6551859420001888,0.5810015647898065,0.3188859799829141,-0.15006797371823016,-0.47971793649182864,-0.6239732680541271,-0.685394169832806,-0.7156065841971548,-0.7337280954429503,-0.7396733767339568,-0.7324039597749855,-0.7333373023010044,-0.7786818246355581,-0.8515878441880578,-0.9039204914201179,-0.9259779394804464,-0.9264976088615996,-0.9091342237884427,-0.870590435667673,-0.8063886351637778,-0.7159328379890193,-0.6076923989503323,-0.47706525064753585,-0.298130712415136,-0.06895930450288906,0.14854973738501556,0.2889864917390217,0.2913808693898064,0.1388004408236952,-0.03639116957728126,-0.1133537034230428,-0.09185957967855819,0.0384810415230976,0.26390716337484776,0.4581506245934725,0.5719074120786741,0.6505908054944889,0.7243594707572321,0.7897518764698573,0.8358836537118912,0.8644457122541234,0.8832594500277863,0.8923828407126809,0.8872302892708293,0.8684776904371289,0.8431462959459695,0.814167159196638,0.7805346679592753,0.7316515879634031,0.6472603795489391,0.5140733830815607,0.3554858357719009,0.22561771195909017,0.1615154578744911,0.15360032747238747,0.16307204576083736,0.1308357965423606,0.02666050874863417,-0.12025548892801668,-0.25342140394729334,-0.34458715171814364,-0.4014871451582855,-0.4319686046143494,-0.4447441016168515,-0.41976867052706396,-0.34701957997214306,-0.2193593649998203,-0.041597726771723346,0.14402208080181184,0.2835004648764037,0.3720449196169084,0.431962642951353,0.48296235353262973,0.5420004437313001,0.6193040433145265,0.7180731999557514,0.8198373122071039,0.8869138675188241,0.9128210310522875,0.9189200937427285,0.923628238861979,0.932596445480613,0.9335920847018525,0.8770350726984689,0.6374169164964046,0.16258488723736925,-0.26213027041696907,-0.49805486153536715,-0.6069517558094503,-0.6400218359896178,-0.6087747944255689,-0.4980877979366627,-0.30307535497144616,-0.07434116412663691,0.10701066674615146,0.2000624576365621,0.20605342104102434,0.12026689169491996,-0.07499941585719426,-0.34684581081020643,-0.5812097478135952,-0.7193052586559642,-0.7870662305741756,-0.8139055124169083,-0.8230399276395901,-0.8347750430628088,-0.8561902336010555,-0.87984684532961,-0.900458125813323,-0.9179437510481512,-0.9327966305421785,-0.9451620269104972,-0.952319829598254,-0.9511485506044698,-0.9441380373493173,-0.9392167685232706,-0.9382375973227356,-0.9357800747481324,-0.9225856348734034,-0.8759338406993652,-0.6976097241474618,-0.06722307183158026,0.5798277012170511,0.8066141638001292,0.8983597341723089,0.9507836314083867,0.9767840275221072,0.9773399465923721,0.9666361962734259,0.9568775273466171,0.9442504070729228,0.9122350550537974,0.8194033682221931,0.48425542959762713,-0.3156390230591794,-0.7130944244804003,-0.7982708256947892,-0.7742600839019236,-0.6020153945165837,-0.013431339105751786,0.6399045911858059,0.8461913768317556,0.9063189271562522,0.9296170164789558,0.9414477807439718,0.9501117662700235,0.958634997214522,0.9659821973772356,0.9732362712460113,0.9803558113731747,0.9836545722000245,0.9769985416016466,0.937464343822165,0.6300750874181135,-0.6308412835576769,-0.8982569711579569,-0.9388516277734938,-0.9359290176320813,-0.8850356164474962,-0.6871437935187032,-0.23106216776459754,0.133157601719503,0.172988310731102,0.008352076511012324,-0.20548566583164074,-0.380085367194536,-0.49315958778977054,-0.564917023635371,-0.586664303275641,-0.5811681242977289,-0.6524382077938204,-0.7850721044285174,-0.8812212673034353,-0.9351509813701154,-0.9612883143752026,-0.9748430490058804,-0.9836203613185022,-0.990265891406779,-0.9939355101909044,-0.9857248997620827,-0.9076740271586702,-0.34701121068788326,0.5504590558775845,0.829092250724235,0.9237546193717999,0.95764873437806,0.9396874093502217,0.8711374681306786,0.6925963458369784,0.11963882449391063,-0.5486413679818639,-0.7532512221858996,-0.8022139978147335,-0.7909789160506353,-0.6905488119560644,-0.32828121733633564,0.31297965113646786,0.6267274988969909,0.7224338871776445,0.7508324443654159,0.7521474324914226,0.7266479551570727,0.6494243176792374,0.4373074558314613,-0.06016428371277007,-0.48396091365649546,-0.658672015481091,-0.7455930706608183,-0.796151106077376,-0.8118408595342299,-0.7611047372408809,-0.5743088904901223,-0.2373241381166256,0.08895037022778068,0.29280195384747454,0.39724417277732127,0.46266934304984286,0.5290178702581296,0.6061865445251791,0.6859352520194467,0.7625905658235894,0.8295923464122316,0.8813880957082413,0.9148163591146505,0.9312665435974007,0.9372442390531484,0.9396146795184201,0.9413099439779209,0.9417958043487498,0.9394189534890105,0.9351453197090468,0.9293571463177269,0.9235832284081369,0.9187530273363176,0.9138720600080451,0.9053907259054071,0.8790492125799935,0.7986668083721672,0.6057512640456996,0.27318507378666096,-0.12315127403454575,-0.4433998077737043,-0.6273603126859839,-0.7167306899218358,-0.7564281886808306,-0.7678227473638989,-0.7656258186058746,-0.7601197455560901,-0.7516934878560166,-0.7436878548766519,-0.7364809791836945,-0.7374504635966519,-0.7652471995716728,-0.8137213492312683,-0.853105205280623,-0.8501758816949975,-0.8018426898779061,-0.7362166548115128,-0.6764357010462887,-0.6253707839895957,-0.5752762270605103,-0.5241779847522159,-0.4728738349799569,-0.4307148984982797,-0.40585126575056096,-0.3921989249355326,-0.3682024637876372,-0.31342475138165526,-0.23968051948603852,-0.1718028301882161,-0.15982759150999035,-0.2543369470750221,-0.4326195461715081,-0.5951327853462235,-0.6890022213631886,-0.692547037002711,-0.5770265498240611,-0.352215563191123,-0.12054494476169264,0.036023987402209946,0.09764737420434988,0.0455450949435984,-0.1409438151173507,-0.4159393244321155,-0.641066217280999,-0.7585354463585972,-0.8037481749110389,-0.8068980054072155,-0.776860222083891,-0.7136019214506388,-0.6200498823234574,-0.5173049798230137,-0.44683226735934894,-0.4340612403815336,-0.4809853676473571,-0.5547512991062751,-0.5881866442390435,-0.5069755996565427,-0.3147083218442609,-0.13456471723440788,-0.0241799752366278,0.03972811527258568,0.0751416104316135,0.09587955455376027,0.10548057293846243,0.10702134919356918,0.10027121960298518,0.08906856659705459,0.08053643997727651,0.07457907372636709,0.06157344088857942,0.02866384967842686,-0.06119466646474098,-0.2822019066491796,-0.5651994196719258,-0.6521998625384832,-0.6466923620804028,-0.6063113516911919,-0.5104280015490141,-0.29299288058272716,0.06720571583894054,0.4322508454217438,0.667556180688451,0.7886152861111483,0.843839916848298,0.8685750004302277,0.8819853175518491,0.8929859133389756,0.9079262926988929,0.9256048896007958,0.93574645981008,0.9187592977759327,0.8631515289230618,0.7819890188434808,0.7103713119568046,0.6784433728655854,0.6915634420354461,0.7280772103021796,0.7594400468544144,0.7630894114590129,0.7248353987768262,0.6370949199000367,0.49509763699175563,0.3417135106095149,0.2361856270111293,0.18031400607453374,0.13315103037138984,0.04993112612706976,-0.06894363254607339,-0.20710300300860907,-0.3462534346904077,-0.46601884954742184,-0.5479608329712937,-0.5851043539022447,-0.5809175644683624,-0.5481938726525395,-0.5017867006443266,-0.4294707074936704,-0.3026591676400337,-0.12141447395543355,0.0508738200746704,0.1594748370805306,0.1917697728164769,0.12105286939360027,-0.11050679236621284,-0.4961571259550237,-0.7837819878832791,-0.8921825365962232,-0.9255186695969413,-0.9398310685588559,-0.9509841902766741,-0.9596415393708986,-0.9623278899806335,-0.9564691021814195,-0.9447119847526434,-0.9353775292735644,-0.9322487863189967,-0.9328250893525734,-0.9296644321323463,-0.9217586541851149,-0.9112092894630147,-0.8977370645009795,-0.8653886614091704,-0.7695933876711865,-0.4379859951345448,0.4293553961589343,0.8659401042122621,0.9436620715034054,0.961588637544887,0.9685359555201093,0.9720961533753995,0.9731302419941074,0.9716130691449016,0.9672578295775955,0.9583567136587655,0.9448073874960712,0.9299205090351002,0.9132999096194092,0.8870949795191775,0.8374701507363824,0.7548290194235414,0.6371544530791852,0.4836473292388,0.296806171860849,0.08281164571254462,-0.14126098011988447,-0.35123880769472327,-0.5275321078804711,-0.6665831667265062,-0.7770807681466643,-0.8608604388358542,-0.8995462072988135,-0.8881146014553654,-0.8553972776348696,-0.8327204457315417,-0.8272302673874571,-0.8265645134809103,-0.8153478856903223,-0.7819257055718863,-0.7274975392028421,-0.6628943804231741,-0.6108763847158243,-0.5829545169056916,-0.5705485400676509,-0.5489047586514856,-0.502845787215935,-0.41893482403543997,-0.3087176400900458,-0.20772662815120993,-0.13995967419584596,-0.08049805051725868,0.03703832354320156,0.2565346961563993,0.499821837159216,0.6350973966488452,0.6870776849477918,0.7224065556816331,0.7581670116496663,0.8060359034139821,0.8532192011536242,0.8858005631059668,0.9046881743384265,0.9153584621213867,0.9132832290052824,0.8853905564321353,0.7825686682199257,0.3566307426710508,-0.5613783056419203,-0.8710909813153914,-0.9236871929314758,-0.9266188111173963,-0.9222674515563114,-0.9239176879872714,-0.9331169711760505,-0.9451921320952186,-0.9345399994540716,-0.6146456961225741,0.36914039691775724,0.6794352104269124,0.769012605792926,0.8049692196243149,0.8214311424223962,0.8343817807073122,0.8525109201468114,0.8779763350786973,0.9067241080194479,0.9307645139595326,0.944787201317924,0.9485854942302089,0.9391716154159632,0.9005525088045863,0.714431465221615,-0.32153641812516104,-0.8166137114461507,-0.8660780456842069,-0.8365293891033241,-0.7532011025454929,-0.6395146638470762,-0.5900744897167581,-0.6631137080790699,-0.7768099584382726,-0.852477924001895,-0.8868047234686832,-0.8873138664499043,-0.8379621783191847,-0.6909243359387224,-0.4261654283373764,-0.14600557334324601,0.05554667155940571,0.1870844861854743,0.2922616516822403,0.3887335076786414,0.4852814587131817,0.5867327344914468,0.6896182968345927,0.7787719055501093,0.8476688163721701,0.8960901174390269,0.9255333285494641,0.9415517693071844,0.94804343679634,0.9449667726245446,0.9301581176967261,0.9055272651729466,0.8752173377222788,0.8442088657775199,0.8092279566345288,0.7551804602437805,0.6489032092681933,0.4451268816124313,0.12404092823027119,-0.2201560138455478,-0.47899068539557627,-0.6377266756228697,-0.7211478141814451,-0.75245325592546,-0.7584122709622374,-0.7564756047408797,-0.7645323214492945,-0.7895703569861394,-0.8240376917863146,-0.8554827065993964,-0.87984007381335,-0.8993996358818943,-0.9072763451795867,-0.8737326767989325,-0.7195749165737122,-0.47606599548347905,-0.3453433533182843,-0.34880733935487823,-0.3913172209813484,-0.42181478952448376,-0.4329315667358162,-0.4271871391482178,-0.4105510666634854,-0.383417388715404,-0.3443981528835049,-0.29647987889069993,-0.2466723211325191,-0.20192710654751553,-0.15349763034726613,-0.07912328944638167,0.04114125416045015,0.21253188915629895,0.41831384668984356,0.5937406908067934,0.6620409989211448,0.6130396108559822,0.4534639689991667,0.1992465361977681,-0.05573258643163185,-0.2054639424254174,-0.23979554790021515,-0.20906048765260993,-0.1749572219831727,-0.18234584224132086,-0.2405562255398969,-0.3225811552641496,-0.3882537051898615,-0.4107433046129924,-0.37305586853609296,-0.27172615849665044,-0.12167606588538793,0.03980662337596248,0.1712367222030657,0.25521654729630855,0.29909154692210704,0.30774862453192464,0.27870796084543625,0.19874076678238178,0.036458135756375264,-0.23428209505854225,-0.5303174897968331,-0.7079416427932221,-0.7696614980583445,-0.7689018419669987,-0.7384608737445439,-0.6940700276428504,-0.6467034997312276,-0.6116040664525957,-0.594379733550798,-0.5891147910478556,-0.5667245190672039,-0.4692545400157511,-0.2322577587322947,0.08126774979541786,0.3225688948649662,0.4759143915242696,0.5872881042151318,0.6839581316940775,0.7263615919190908,0.6030772173499769,0.32448859404880176,0.022678920930482627,-0.22914185312512309,-0.4091980580859885,-0.5125363706921757,-0.543994609473797,-0.504374280703884,-0.3883797879092012,-0.18482655353797686,0.08226651196110679,0.33824695199032717,0.5489397720675862,0.7167920058323544,0.8342445630227024,0.8849952917064422,0.863090605632932,0.7487128020418752,0.46224258607631935,0.013136051170475803,-0.3725130772988014,-0.611701011199924,-0.7431651861094808,-0.8115569219740821,-0.8390147434669256,-0.8327251469793847,-0.7734677849023576,-0.6005579575460983,-0.23253507781867042,0.19014957697263377,0.45300339684687624,0.5942411232904826,0.6758382809655947,0.7245517691045273,0.750486038974291,0.7630826701523383,0.7700021650532506,0.7784563300283802,0.7915805219188258,0.8099092696031472,0.8302972527763683,0.8505528013704333,0.8685090823121763,0.8815579910208553,0.8863738256045317,0.8799047743597578,0.8625987880338754,0.8353840222515251,0.7922898019672981,0.7226528917271651,0.6233278050817814,0.5059846549503133,0.39268727100996204,0.293033549951078,0.2028041761532659,0.12529755536967105,0.07307103193770964,0.051114793050089646,0.012985334538502235,-0.1157958563873731,-0.3352291220674786,-0.5321438376843256,-0.6345569700473231,-0.6666812015782116,-0.6549130703923279,-0.6009009424337942,-0.49496544677144394,-0.31320693375896175,-0.05095236732915076,0.22493728011369618,0.4262827254014256,0.5436224307609047,0.606301706616551,0.6363967891648712,0.642773521517227,0.6212939014233193,0.5561909951233228,0.41175321143387716,0.18520699319482734,-0.05099898159268059,-0.24505300354721146,-0.4105594235452696,-0.5727165168060409,-0.7197614538816594,-0.8245353402724946,-0.8754114443828293,-0.8895753329716378,-0.8884412802114058,-0.8751782912952728,-0.8363572175986587,-0.7628028954787278,-0.6780615879400422,-0.6169888384334885,-0.592916228341451,-0.5987653160674784,-0.6115988651730395,-0.610998572878806,-0.5825492385097787,-0.5260055098306555,-0.45544179308757893,-0.3865193123788758,-0.33080842387465353,-0.2849352920199026,-0.24871327322310727,-0.23057754416247636,-0.23804326422050565,-0.26802063179667684,-0.30010876726199204,-0.314676373417816,-0.3038116136591622,-0.28192236376883556,-0.26568208051462816,-0.2897037531078391,-0.3456189880621254,-0.38018007485040506,-0.3554012097275367,-0.2826463185009285,-0.21291592161524536,-0.171505500599207,-0.16790770343819453,-0.1895951952012703,-0.229416794338357,-0.2784481688729402,-0.3486896109349313,-0.43551984878678346,-0.5187712818199232,-0.5821639817408619,-0.6170206561018895,-0.63327484275947,-0.6452220714745226,-0.6563377946704433,-0.6537449329647921,-0.6069688822075047,-0.4665369117042459,-0.24328521005937107,-0.029521695230970223,0.1288085430670494,0.22949047946289775,0.2937586998705808,0.331790509107306,0.3495556431509499,0.3996539692533929,0.46978371908153765,0.44673647537186256,0.44669673077509126,0.4809167826456872,0.5249191669483959,0.5785523629109101,0.6363447944600205,0.6915771127844413,0.7198474116219399,0.6409658556570011,0.4406177755848051,0.22961516542637245,0.06023878915231461,-0.07162901186495957,-0.16835907351424745,-0.20905132380541644,-0.18253074707924954,-0.06254671288782487,0.17218910486368239,0.5054330853974157,0.7587828997912358,0.8259442029067515,0.806754814963266,0.7808924451778746,0.7741724046604529,0.7767861015716416,0.7808897583124886,0.7896896783108038,0.7932810217449188,0.7833022124638244,0.7605368201450435,0.7328517119283293,0.7070052816714695,0.6884952505923927,0.6756014886172806,0.6836476061316058,0.7178793006293255,0.7540404838024317,0.7606530715636559,0.7068460527248305,0.533216192831158,0.19285642493722963,-0.17743648513003,-0.4420297612256141,-0.5968375680794442,-0.6622787543538522,-0.6818693376169365,-0.6877179277276269,-0.6967531693991084,-0.7165750607297352,-0.7500139534298177,-0.798051414662722,-0.8380528897873616,-0.7816661949467344,-0.503247532406016,-0.08042627918100731,0.27368053246978435,0.5032817428077778,0.6317634538859415,0.7010763034814409,0.7450591384449633,0.7807020039386899,0.8148092708115398,0.8467144274023655,0.8750885750329896,0.8962377113398822,0.9058657752071273,0.9029433290547784,0.8873856235564568,0.858417077463333,0.8123800774989436,0.7544390398478841,0.707779739466307,0.7013759450486391,0.73039668019865,0.7665345049264851,0.7871636077021662,0.7704793894047482,0.6921955787606051,0.4945026372743058,-0.07357805632229619,-0.8336487812538624,-0.9572610194494823,-0.9579911325170053,-0.9535261511007136,-0.9508200681179535,-0.9483287040692537,-0.9435881416985993,-0.9356696749672827,-0.9260972787380368,-0.9193733062576973,-0.92021642907567,-0.9224892185893804,-0.9182554178983616,-0.9062783450409717,-0.8905232849101007,-0.8687933288909171,-0.8085098150207073,-0.5567980730817285,-0.012332306127560944,0.37963526503446465,0.582783560345845,0.7144754090894807,0.8145934468027191,0.8896404811785704,0.9309077156951607,0.941445941298707,0.9332124503653427,0.9166306531576102,0.8932188161863728,0.8567478628928743,0.7914125555363769,0.6513227589735403,0.39903508699111306,0.14411009735526037,0.017283586818013997,0.01231938201182389,0.09258183739940393,0.2214865658884927,0.32592654820933853,0.3495790097700747,0.2375440346809071,-0.04922471533636408,-0.36167388047427346,-0.5320699445867543,-0.6150238010100714,-0.6731609960293297,-0.7304131227949331,-0.7784260438235562,-0.8060399162081413,-0.8107423272526063,-0.7922641305944658,-0.7501754693278619,-0.6833033692181334,-0.5956338434920777,-0.4974741468089507,-0.4102597477515339,-0.3552110188887654,-0.34796028847652016,-0.40673040089834134,-0.5402908332874077,-0.711769470344619,-0.8447671504018783,-0.8940557769810323,-0.8680580011317818,-0.7948114731464331,-0.6949172586998535,-0.5722583709438893,-0.42555103989563,-0.28052336369752695,-0.15475093059022296,-0.05437373183349527,0.017868793190600543,0.06679124707465929,0.11303853694153634,0.17316773279781908,0.25442672227000257,0.356560415054921,0.45162918313355604,0.5159495033133606,0.555381482457072,0.5952339035981574,0.6557163850106079,0.7364731340118112,0.8046474376707949,0.8257566383939582,0.8060300170431676,0.7463953300522579,0.6011392747818951,0.26453754938167745,-0.22149464138579728,-0.5678173649593122,-0.7260123132079777,-0.7877360660774099,-0.8025885406445085,-0.7864897169484446,-0.7284363544136083,-0.5907662983917342,-0.3105404351482954,0.11502035079774424,0.5139921121837077,0.737529832301986,0.8246881558471131,0.8517432758943999,0.8604622740693321,0.8671825851652228,0.8797477581762513,0.8989763024812962,0.9206379570945812,0.9386203260636232,0.9506158542836789,0.9571842219104565,0.9612917991042305,0.9650855470803137,0.9693333393091308,0.9728418691157581,0.974837205261038,0.9718501657864668,0.9580647612366153,0.9269326853983596,0.8690334394738511,0.7820799580365744,0.6799945667034819,0.5730328540680063,0.4526054608005024,0.28668034607867343,-0.003950524124915937,-0.511291440731101,-0.8087208028013957,-0.8278833205739841,-0.826812612455197,-0.8517848484293774,-0.8847086429828422,-0.8938257602302426,-0.8717047376237221,-0.8442700804789034,-0.8231467373041453,-0.7952632898269258,-0.7446518787983732,-0.6648371365373705,-0.5537702299910408,-0.4076136409273808,-0.19219283837139026,0.0845397006783918,0.31196766828172795,0.3929012626465373,0.29356288165418415,-0.06470035437200523,-0.5437443834106324,-0.7637476406611039,-0.8155929256285764,-0.8347096298100815,-0.8493885698963314,-0.8515752099328522,-0.8262869203379456,-0.739155859783986,-0.4569969620067545,0.29114714925771973,0.7889710884127953,0.9032823508443399,0.9247619473244074,0.9178362457514261,0.8983919342786755,0.8730435462781257,0.8442326596948754,0.7865535272420284,0.577561321364774,0.0024314014199669897,-0.4753114878281352,-0.6638311825515584,-0.7242658838473454,-0.7345870811289813,-0.7262846988934574,-0.7035753015006881,-0.6602554767176313,-0.5984637138082382,-0.534909887492699,-0.509295341676883,-0.5487203266762548,-0.6404250995371933,-0.7438379855468281,-0.8268261541863351,-0.8774913107551483,-0.9005378994171636,-0.8882700580308901,-0.8141405617444878,-0.6524672545388278,-0.4683903915412074,-0.35805843036219437,-0.33372686530112494,-0.3741464813965128,-0.4652549326420315,-0.5838866199417472,-0.6535871393720637,-0.5647148950988831,-0.3849293938770284,-0.208470494200183,-0.05725157098640145,0.039988062695185844,0.06606748439369398,0.025060744448270084,-0.06929897779523077,-0.18494179179839332,-0.29402035033739093,-0.3924631298469374,-0.48427127743796705,-0.5708459616576007,-0.6365735049822528,-0.6719415735707633,-0.6800065529781204,-0.6607350246758786,-0.6376891107500439,-0.602646918562459,-0.5626601275369251,-0.5049738794004025,-0.35262322210089125,0.10480985707068048,0.6948770289797755,0.8961035982427106,0.9085383334960161,0.8249605934949525,0.5466549477870257,-0.06916655528707734,-0.5399571838088355,-0.6523793654174979,-0.4207354246820563,0.4348547973176593,0.8416477907418608,0.9243132506542631,0.9450414489704692,0.9390913905785537,0.87038656309158,0.190684365361915,-0.8158068998185004,-0.9325079044330851,-0.9531405727697397,-0.9525511906517039,-0.9384117052544116,-0.8987950129952548,-0.7780516507439577,-0.3184969965792476,0.5347259544578283,0.818774456982849,0.8589120436778199,0.8410655722004117,0.7988019754696677,0.7326123740045959,0.656645728144954,0.6112158772312577,0.6200633658271544,0.6560525853057705,0.7009885021629617,0.7619877066044519,0.8447869511375563,0.9164706945923142,0.9351751394315213,0.9121653583406878,0.8935662328782771,0.8998426073108826,0.9215876001032308,0.9401417358633648,0.947537762313396,0.9501708669446758,0.949622262840663,0.9353318060031173,0.8907671929007857,0.7963610211529015,0.6260114393469539,0.37864247710926274,0.16492150865863484,0.10815056904293807,0.1733265992706619,0.29037330399070277,0.43782057145808073,0.6062497618974941,0.7534295010779446,0.8475659126308985,0.8971369232867612,0.9228641572981432,0.9356843908179105,0.9402248716092005,0.9374559804666082,0.9202649855784758,0.8476989196191469,0.4681260811565006,-0.4942184100308577,-0.8524628057164017,-0.9392004594501335,-0.9662537614991095,-0.9696336704420746,-0.9529633172405245,-0.9026764463889441,-0.7927159092901741,-0.6128392652436123,-0.39691451991371923,-0.19610665901338778,-0.015553162344409763,0.15449459901247825,0.3038603976585852,0.3940521561831559,0.4122440795520044,0.3871064986212431,0.35123217944842594,0.32358621881229527,0.3026682737814981,0.2791189698434711,0.23442403011684942,0.143663502701453,-0.013959744284100049,-0.23568814056151965,-0.5016837620964918,-0.7504643226145894,-0.874152551965646,-0.8459142111454788,-0.7579195568601634,-0.6997725153410069,-0.701658141498242,-0.7435463930558818,-0.7877678619410903,-0.8117723282802188,-0.8109258915734302,-0.7860496335157183,-0.7389436431339046,-0.679153695295634,-0.6295682606624279,-0.6119787493430081,-0.6335221990802903,-0.6775169663677066,-0.7110040983304683,-0.6958077281212288,-0.6101135277762946,-0.46924366149462243,-0.3239393774703651,-0.18237181400916452,0.0006037854068762595,0.24802492516749494,0.44702342163591496,0.5430164862189215,0.5683969710018606,0.5020979631228507,0.2225681373718093,-0.21191054173864174,-0.4039349242878914,-0.42189918080264893,-0.36264041420250637,-0.2544667523951109,-0.10130447123462473,0.10813423488038283,0.39715600589282823,0.6891261976044307,0.8577130692308372,0.9173142182912416,0.929187400464064,0.928375234884866,0.9237919033664345,0.9145242603226666,0.8984121068478413,0.8802007414240028,0.8648860616611069,0.845346263759931,0.8175064834678947,0.7878823853793583,0.7636456569542882,0.7229655890572471,0.6198363750209392,0.36152277716807635,-0.06919684533220645,-0.36467374610289394,-0.40366973093808706,-0.19508752436408947,0.21181946735446883,0.5495830100551674,0.7164866234222844,0.78502801554458,0.8083051590430396,0.8094203359922008,0.797822068620717,0.7774474345451347,0.7498432596919391,0.7182182272796294,0.6860667524460207,0.6594612689972497,0.6346162387493919,0.6037317589069973,0.5723620366700806,0.536627972388576,0.4809553309633681,0.3652135532590614,0.06580229678189152,-0.36735269954847577,-0.6107235068350153,-0.7223808858096193,-0.7850866757190275,-0.817350541812489,-0.8231379714339685,-0.8018982149260513,-0.7600368227250597,-0.7227920186347185,-0.720961295376677,-0.7575897914089611,-0.80779507967081,-0.8479032905060921,-0.8731670492956056,-0.8854801200158864,-0.8855160679593985,-0.8686443955312237,-0.8145458094934619,-0.6375050443994025,-0.050833848433074105,0.6356903350020541,0.8584349928440432,0.9247231475634015,0.9507144546918546,0.9646964574890751,0.9752195389601919,0.9835858696863179,0.9849896376701788,0.9745373690949922,0.956625071682573,0.937029168048582,0.9178690876061445,0.8991555517634026,0.8812134018216782,0.8660102781385707,0.8556444754307069,0.8510965138949237,0.8522207953240947,0.8539146188357547,0.8525937800706891,0.8465212989670364,0.8368065030605228,0.8262912257277398,0.8206712775275263,0.8195014093480457,0.8023350105723438,0.7609472587296426,0.7052664119813389,0.6438912472087382,0.5680340418054426,0.45073279874040195,0.25491412363442995,-0.0073180643993446355,-0.26053286304170403,-0.4720956477069416,-0.6455513683760545,-0.8120602816462397,-0.9355516015388685,-0.9769846121911611,-0.9816004783803334,-0.9793578529838384,-0.9744249660528288,-0.9634141522966173,-0.9303300375762309,-0.8040893901679802,-0.4539087264688855,-0.04659906887199489,0.19350734970465858,0.3299784735850861,0.43032314744387373,0.5131300834916902,0.5701991126586641,0.5894352995164768,0.5584025507938951,0.45619205523700523,0.259416323807943,0.01254829684229873,-0.15829141222235363,-0.19664338593178884,-0.1551023303860492,-0.1211644948547728,-0.16678568073008826,-0.29887299808888057,-0.48478061784600085,-0.6666996372742103,-0.7893722280033868,-0.8455516933110623,-0.8494324616904939,-0.831998278742403,-0.8312235054758536,-0.8643990107530982,-0.9051588987237459,-0.9319014434851912,-0.9446035758912382,-0.945854627786996,-0.9376539047350727,-0.9224494989191718,-0.9074735651514528,-0.900873631460236,-0.902149265219452,-0.9051380331610116,-0.9061529273927438,-0.9043953386525214,-0.8946526882093746,-0.8648015349851105,-0.7771785870970493,-0.5026900999654643,0.18700258302514222,0.7207003147374098,0.8836397841844592,0.9343666475011572,0.9533528865865415,0.9640319283989031,0.9729645391905787,0.9803424681013833,0.9846516559858954,0.9846005084334838,0.9769745114819253,0.9622210811093908,0.9530457399922857,0.9586279696994181,0.9702003972978642,0.9791147094535111,0.9815092716733516,0.9710487972134568,0.9229588516349807,0.7939593016509506,0.6222688774500044,0.5130278067741242,0.4837729507370745,0.499937700261383,0.5308416748825091,0.5477565210280292,0.5406120473157129,0.5186994129383407,0.5011607163163445,0.4951540802011958,0.4901210961256335,0.4838690409885054,0.4648540928772676,0.42099098303177956,0.34446242128893584,0.21727504672614592,0.005707044409806256,-0.2641668021927816,-0.48007616743712767,-0.5840413376721941,-0.6048309832907062,-0.5711333033454636,-0.4900194433315594,-0.3862415421334125,-0.3313168214579561,-0.4144052531385521,-0.6260352331212863,-0.8231316307585131,-0.923958985307275,-0.9565821338807955,-0.9592677517365467,-0.9487914514889785,-0.9261400417912015,-0.886607934124045,-0.8303380763750451,-0.7803824503084377,-0.7853303830615225,-0.8255216561050094,-0.8403011676797931,-0.8320574306502083,-0.8168717847505907,-0.7985259013423358,-0.7810366230471082,-0.7687182958128942,-0.7719356019993632,-0.8006156910671426,-0.8432604677459613,-0.8550820196589302,-0.8166325203891299,-0.7551629686140494,-0.7026539711594431,-0.668115733183944,-0.6356845995495792,-0.5740490983633005,-0.4525138064005072,-0.2507726235441989,-0.036298343038992924,0.07206431651649454,0.07159799415509858,0.008481451184389557,-0.10155970405407881,-0.25699287089623846,-0.4078309887545082,-0.5192108976122081,-0.5608892653578709,-0.51489619669209,-0.3781432378041896,-0.1843505212949032,0.025833897989473154,0.22371518360729345,0.38245061498853133,0.5063522433823205,0.5954800987489584,0.6337496399485413,0.589381306903199,0.3505053787520952,-0.24920303184388917,-0.7035481521948165,-0.8348519160887454,-0.8379897161837387,-0.6878541918967241,0.025253052177072063,0.7043729265103698,0.8775379991108209,0.9369004051970301,0.967376415740423,0.9856377093137616,0.9944180461575419,0.9899076136645485,0.9665910715563143,0.9256610231820466,0.8734762914366812,0.8128610292893762,0.7342523836197411,0.6170264223056331,0.4404538139342029,0.1983666446713895,-0.08407549016054412,-0.3535898560501745,-0.5420542041690781,-0.6309058179011602,-0.6555614895103326,-0.644454172853288,-0.6210458620475587,-0.6107580713045241,-0.624469720579284,-0.631679523886233,-0.5380388293897227,-0.27686786285042986,0.04297414989380196,0.3126546540757784,0.5113297344302833,0.6484684000920229,0.7366627332270089,0.7888398063387457,0.8165830754406066,0.8301662371704556,0.8328259596263223,0.8200571535179959,0.7788570758889405,0.6722760819196936,0.3832968710346316,-0.15874167685647733,-0.4156672354600522,-0.04748174442123212,0.4497083116472334,0.6357189932909176,0.6929969114553316,0.7095671830087562,0.7125709604698828,0.7327864314505372,0.7882674454423946,0.8412188028890465,0.8594513299836417,0.8655234232742672,0.8642900012589828,0.8444923852321462,0.7925336893341737,0.6949963964833378,0.550240108990835,0.394143426125637,0.2840122388912503,0.26302779806934484,0.33785961220979654,0.4659894419348399,0.5825823404300858,0.6543914229542448,0.6927443531369477,0.7125506534227991,0.7090747961288388,0.6531495800594909,0.4703590314865479,0.03585271987144434,-0.46818043493867795,-0.7398977730985596,-0.8513158211442617,-0.9011692947607712,-0.9275040805831466,-0.9465172429840674,-0.9562347975703495,-0.9465871522236461,-0.918192628003352,-0.8833231634805406,-0.8508550741571952,-0.8188511660878908,-0.7844652315580583,-0.7488829561479955,-0.716512963670189,-0.6914291640837925,-0.6867177280634715,-0.7125633682501038,-0.7613554722537509,-0.8139672047644954,-0.851088505059459,-0.8656594980212647,-0.856474019175399,-0.8209169555659429,-0.7566796020402612,-0.6691700438787644,-0.5837769349887053,-0.5384264338057037,-0.5656352106431122,-0.6538549437475837,-0.7564226850463142,-0.8362753513723741,-0.8898216303256485,-0.9209237535413686,-0.9364854499126436,-0.9404913179303989,-0.9327107842994846,-0.9036194713066231,-0.8336500739334539,-0.7101018227817908,-0.5841714928049065,-0.5275271823056732,-0.5320337569452401,-0.5500839733316264,-0.5332446478829046,-0.43435725518754786,-0.1514340392034974,0.36258872083025645,0.7208539687960328,0.8049176937310996,0.7547581415059336,0.5010062766184181,-0.4212293790025558,-0.9028070260242187,-0.9644084823404728,-0.9600443194297834,-0.8886311516348104,-0.5254832266010905,0.2934623218246758,0.6832636575025465,0.8057287863932816,0.8557105698486164,0.8811833118170413,0.8944677581833599,0.9015417525467718,0.9052657118742901,0.9068347726334525,0.9082481090791196,0.9025023169165093,0.8487038136893558,0.4719958458588418,-0.28637889068153405,-0.43145266875503135,-0.2037785403692991,0.2906323096817411,0.6653805349650442,0.8261432634927051,0.8990253355528073,0.9383939293331816,0.9613549949167595,0.9754370590770598,0.9837969396937308,0.9882661414104618,0.9893189408946347,0.9853641632958919,0.9658706979759228,0.8929683653787946,0.6167297181485201,-0.10209550113425125,-0.6168804848723152,-0.7776890547831526,-0.8317755733224725,-0.8536866515126097,-0.8596689040448207,-0.8585608277331677,-0.8520639168336399,-0.8376379289768036,-0.789926071881336,-0.610813924805041,-0.051688656299850526,0.48648722795790916,0.6372062551686298,0.6918754671065671,0.7337096037573163,0.7655473567963214,0.7775631215190882,0.7593493620208104,0.6904667679641643,0.5135847951913324,0.10770037020177187,-0.46712774797239137,-0.8352194319771288,-0.9082374823730437,0.4329324756241911,0.7595310247279865,0.8238375779713014,0.8334706028767048,0.8208937755014567,0.7994424490179882,0.7750272946801786,0.7541491141793764,0.7440389757272342,0.7537074012100001,0.7812104635433704,0.7660672314084469,0.41656468584293627,-0.1413995637550396,-0.4382857724176721,-0.47529426888484466,-0.18237742564862777,0.31411660385133366,0.6367838858125126,0.7824164779959205,0.8513178871215127,0.8894473914505605,0.9081516521498735,0.9153566059885292,0.9212515440827576,0.9303232722550004,0.9402125334478093,0.9464790487702947,0.9458140958465012,0.9322361712486704,0.8823622251589738,0.6754217049828719,-0.006038397434550596,-0.517028371736709,-0.5829510192727996,-0.24076124195456902,0.5101741305128423,0.7976300378518901,0.858917026860905,0.8481537251297385,0.7334124340015349,0.3395634485158731,-0.31733463295117,-0.7191693790035304,-0.8734726005523759,-0.9276025529971664,-0.9451356105137997,-0.9478970833491608,-0.9489331980641643,-0.9511401587861201,-0.9538535202846096,-0.9536604675793766,-0.9498407275079797,-0.9451057982897232,-0.944725213980326,-0.9536209962134495,-0.9642043654966233,-0.9663248297219362,-0.9603704029249828,-0.9525854482160472,-0.9446423920088984,-0.9340133274871621,-0.9181224094561904,-0.8953667153479581,-0.8637470716915033,-0.8186619895323222,-0.7672652310983267,-0.7347878635169215,-0.7290830671953804,-0.732988181079071,-0.7268452583387688,-0.7089094954523807,-0.6850134458582187,-0.6673351799104013,-0.669378519161221,-0.6913759535061715,-0.718538791899133,-0.7372314549417094,-0.7493885490282721,-0.7637546389897133,-0.7855583166863198,-0.8168959603534146,-0.8359920347671531,-0.8125654948957385,-0.7669175087407417,-0.7174245545044817,-0.6512719423958051,-0.5385939154294893,-0.36693540213953424,-0.16978439997182293,0.0078100172194567824,0.14500537175593858,0.2323402030924476,0.2687917018534289,0.2830310518936541,0.31772281205903974,0.433533188045362,0.5589657032281663,0.5431330295608318,0.4892585297043062,0.4389154348798232,0.38091413093828236,0.3234888291649103,0.2883699393653524,0.285495259003101,0.3043266958521299,0.334770619391149,0.3755057257157884,0.43263008628515554,0.5130633831855572,0.6122418347218342,0.7193383092606861,0.7904768682073028,0.7847335705521545,0.7234720230914735,0.6587324270831257,0.6228987422788627,0.6260030918662327,0.6722549762593546,0.7581618258109378,0.8450371047558911,0.8896190358766904,0.8969829120189958,0.8882403580056857,0.8743785301903001,0.8542690299364106,0.8254655584069543,0.7787200670814542,0.6966645919918417,0.5753826766245935,0.44316459146642223,0.3323758883114978,0.2508036348448415,0.20778619408032414,0.20118197235926089,0.21933390855848783,0.27668074221005734,0.3752876293525768,0.4544359836531301,0.3740514588656253,-0.023812756336495825,-0.530850675676907,-0.7809368854412554,-0.8654911180547712,-0.8788303191313108,-0.8311688232492189,-0.6967714099410764,-0.5456496057196711,-0.6314978878089308,-0.8626786493545361,-0.958867481480243,-0.9808686806424518,-0.9849543484994877,-0.9838772510858327,-0.9772371755857074,-0.9504518147568042,-0.7850771179531943,0.1831183992686916,0.7191105035239219,0.8123127209510378,0.834331654140148,0.8442058641233643,0.8584095830732311,0.8803988437753105,0.9035859980375709,0.920087603044379,0.9267720375078015,0.9250772087936084,0.922171078317078,0.9252163201934209,0.9211338463200811,0.8785125967033754,0.8344988883047352,0.8496827378847938,0.8906407233418384,0.9040324346096014,0.8920316490620475,0.86980814805475,0.8555634275490042,0.8573741110832929,0.8683107633137769,0.8840759825639863,0.9018442918971775,0.9207695509780535,0.9363364873496779,0.9458955826725848,0.9507494079851005,0.953474568893664,0.9534219868291978,0.9440845506414645,0.8953141131237088,0.6225464137591774,-0.004225738588563421,-0.18440346242818487,0.0030049831761569173,0.32854249550311054,0.5833029967537394,0.7250684671489529,0.795195128623302,0.825454569166103,0.8384558437639913,0.851583701956357,0.8758991544077456,0.9049371149751664,0.9231735349321364,0.9179204549752349,0.8596239962753844,0.5336307311589424,-0.4821127007449927,-0.8317739917019903,-0.9025032646717186,-0.923308368745206,-0.9280274093433011,-0.9266610084480436,-0.922813554616995,-0.9177752862661079,-0.9100370296904907,-0.9003512324821394,-0.8893208387323656,-0.87660183224682,-0.8602699901318873,-0.8380012267671927,-0.810965810088667,-0.7819954828588603,-0.7601007327621858,-0.7504357855318058,-0.7517390374027872,-0.7611125325118228,-0.7752436757744254,-0.7954524133871019,-0.8216952427565942,-0.8482747616020064,-0.8677904286530316,-0.8761824527635375,-0.8755166366902096,-0.8768641622376787,-0.8870482833952151,-0.9028453419749458,-0.9172172005133471,-0.9262930808846466,-0.928344208489984,-0.9195057300949769,-0.8903619835622836,-0.8243651826471365,-0.6972351479433283,-0.504692922258405,-0.30054462565289153,-0.1324694963344084,0.023279367168912206,0.2092640538392889,0.3971054834052051,0.5378724686297061,0.6217865158443848,0.6675756934254834,0.6937516669489199,0.7056399304429571,0.7093430981405339,0.707014457662285,0.7033550432110998,0.6965832123461294,0.6907588987784052,0.6828815550266074,0.6713722010113775,0.6605571588933935,0.6473145217458113,0.6265935834302722,0.6059137810104689,0.5955117998817298,0.5963965204524784,0.5997200525583133,0.5974000353238021,0.6046377727478577,0.6320450857336999,0.6798586516291459,0.7369507637837589,0.7880527460352243,0.8260904670718047,0.8464911399137833,0.8496630396485725,0.842466308657154,0.8324328056444618,0.8190846424840545,0.7975319614391261,0.7685804272312796,0.7368368423341525,0.7083613543476113,0.6855373219298149,0.6639590559510206,0.6358351790612164,0.6088692719358445,0.6017074849284599,0.623229916785559,0.6647533954234681,0.7140864500077494,0.7561810507802145,0.7854161424226443,0.8002181888898932,0.8090529220046859,0.8186057224152097,0.8221533367024035,0.8115049650083604,0.7877540549524072,0.7528423969707776,0.6807478454792291,0.46802230999258065,-0.07077078674117424,-0.6420853744727842,-0.871159033060444,-0.9432168223079856,-0.9660496337366409,-0.9692325402710597,-0.9587734219708336,-0.9265409539150382,-0.858874488498758,-0.7364617826847171,-0.5292814846363569,-0.2286191808602581,0.09039055323006219,0.3046210403401997,0.41428069274906454,0.47373070406101464,0.5153510598898178,0.5546995778299548,0.5972749881026038,0.6566431191584207,0.7383801711431804,0.8198510132776763,0.8731533897081604,0.8942211873594799,0.8932728719990956,0.8737158126960887,0.8322330683703021,0.7692057409921752,0.6917420602787256,0.6036732695879261,0.5099525654125195,0.42280101405696413,0.33994586529577486,0.23962190294234986,0.06403040637448658,-0.21247987723671818,-0.507464484510492,-0.6788488854810755,-0.7357224550033593,-0.7206630432720186,-0.6552549818091701,-0.6229054739234821,-0.6764608737599046,-0.7677284543758279,-0.8427292647110661,-0.8867853226842018,-0.903947337222051,-0.8991159165627789,-0.8693645607565375,-0.8005513218211865,-0.6671311647546165,-0.40998343831729156,0.023166045367037463,0.449232497194067,0.6518566954551822,0.6867064138879005,0.6087003574717805,0.42310976298228076,0.19735913379782813,0.08091865349928141,0.10726824396024234,0.1759464009246748,0.18674641487849264,0.09937995503802932,-0.07757095067232053,-0.2901898402921512,-0.46539896266743497,-0.573066008961007,-0.6328304437101758,-0.7135638031752292,-0.8598800729034236,-0.9518709563827034,-0.9725630609079126,-0.9750247827449628,-0.9744034843544864,-0.9730219321360194,-0.9693730978898204,-0.9550144189173909,-0.8912116945576674,-0.6203642665122597,-0.09684938967775489,0.21651295557944591,0.3128076008096654,0.2921830287318685,0.09780036655822096,-0.33833652712469353,-0.586983959395994,-0.5960088898821583,-0.508396701780163,-0.3711947581457381,-0.26005228867609465,-0.2300662569961969,-0.3265868958982755,-0.4979198648688153,-0.5468034760400681,-0.49346689202860033,-0.3820491770626943,-0.20552230247595715,-0.015631612394902687,0.10929353589789281,0.14294237037031848,0.19233679356562447,0.3987864147996206,0.6874513504776455,0.8742415120167563,0.9474537463928664,0.9715140599981379,0.9802950524057599,0.9841038847876865,0.9862267277486652,0.9876527029602178,0.9886378719021023,0.9889372469381333,0.9873359069241179,0.9828327005938969,0.9726838940787206,0.9519921409096267,0.9076473405102649,0.7799265894624358,0.2621960768865282,-0.4923373743369778,-0.6694790384643168,-0.6334698712033345,-0.5196534335342636,-0.3740964507134572,-0.23517326759674076,-0.14176775644219036,-0.15070855674299982,-0.32813284569094453,-0.5675478290989246,-0.684187313916464,-0.7050248080155996,-0.6622499739671369,-0.5562886850050229,-0.3555334347757743,0.04584385505474912,0.5361219262693543,0.6961148792080314,0.7467748110083371,0.7675397109882777,0.7486565865582382,0.6542236303581852,0.3481440249742485,-0.3239147869017755,-0.7270894339834488,-0.8119592500761192,-0.8024605365273155,-0.7562447944778347,-0.682801976048361,-0.5671032156683853,-0.3901995532177306,-0.19766545800432317,-0.10107290527379569,-0.11306234100211711,-0.15849049751768127,-0.17684237676959488,-0.14664027000147078,-0.05710884500894707,0.08939191730714408,0.2588580315107985,0.37678031863743977,0.4249458994442337,0.4012977042613381,0.31513469273910905,0.17735173789715233,0.00438872648743654,-0.1854910000097524,-0.37056402781854775,-0.5206856541386156,-0.6088385986685361,-0.6204707445263644,-0.5671600691097517,-0.49775498764737325,-0.4613459373920787,-0.46908624536479576,-0.49912583313870995,-0.5187270682693118,-0.5091892610674773,-0.49245291702115257,-0.49822704366405596,-0.5351443454912781,-0.5869517559519647,-0.6443010620454251,-0.7087787583119403,-0.7713967604846406,-0.8153621816797363,-0.8334552836811996,-0.8231191208979287,-0.7720272619029914,-0.6370491176365275,-0.3133465037537107,0.23910810568564456,0.6645137400443609,0.838579826619504,0.8849943800195101,0.8753538632665936,0.844462759622968,0.798129846842604,0.6800543166537947,0.22017025967540896,-0.5368717624225582,-0.7218202110665238,-0.6166165910484044,-0.19005865764394106,0.4141446104470746,0.7277942892056639,0.8499102291653888,0.8986544746781073,0.9120543897218427,0.9055548311356855,0.8827373033102539,0.820506867446266,0.5099491128257606,-0.3802806947141824,-0.6684853690203172,-0.7469700333310977,-0.8021977101098857,-0.8501006928260827,-0.8779350790101901,-0.868042949723173,-0.7187913069865993,0.5060268860373119,0.950661795100763,0.9826483091109683,0.9787339011523489,0.9563161264666654,0.9095448283250498,0.8198161722012185,0.6488788662012105,0.3769551490600277,0.101285530520125,-0.027808205524085094,0.04410059861823673,0.27823386584665494,0.506960322159846,0.6263407527497644,0.646544716514079,0.5694329441011765,0.36934097781343667,0.033290053940830094,-0.3195597902226407,-0.4849316570011243,-0.4205229634424716,-0.21713418964067727,-0.016913496358989734,0.1102372570876687,0.1666238022119374,0.1711266302228689,0.13948616892214705,0.0908773378928736,0.052883303930616715,0.047969839950230624,0.08085768407259067,0.14069211557643782,0.20740810008442492,0.27104442964492953,0.3307250370604652,0.39572533320825315,0.47889278413137615,0.5799597822938559,0.6802373252948366,0.7650483638144535,0.8267178518207899,0.87218990467503,0.909577122367062,0.9032567795677835,0.5712087165936797,0.09492342947675658,-0.04328012222886695,-0.04469702641398777,-0.03296037963086226,-0.05963426053557311,-0.14459482583503522,-0.27639600258110136,-0.41779580327425864,-0.5379605830805819,-0.614732924277504,-0.6483436996055246,-0.6550453815982786,-0.6447094359875446,-0.6238936849993831,-0.6061296622233792,-0.6004285437148656,-0.612912528515144,-0.6351956191964203,-0.6571680886991729,-0.6674602517457634,-0.6531414710386914,-0.5981477569822202,-0.4973707137359855,-0.3562017257527571,-0.17962656579038344,-0.005965620385145735,0.1243259585212493,0.22321190799186502,0.3087765721862247,0.3890796162266909,0.44811847436851365,0.4660906974601851,0.4455837725385981,0.40378578761627654,0.32935573033569576,0.17502471914542397,-0.177673989387214,-0.576887740127851,-0.6983880927834824,-0.7043863211177789,-0.6943712245102086,-0.6966364521754588,-0.7081280380240867,-0.7194192089516195,-0.7283707410362837,-0.7348640777521928,-0.7409106848637069,-0.7512014323652566,-0.7664622059929234,-0.7835604030883625,-0.8012844328243818,-0.8113713768665674,-0.8001235436134131,-0.7557213520599705,-0.6386185658904671,-0.3095009209745375,0.5040461376402814,0.8608384847382702,0.847762757682812,0.8006991173587757,0.7552449275663456,0.7100306173700999,0.667235596634921,0.6331956161918092,0.6108956999109703,0.5908200360183542,0.5523733446427391,0.512856090377087,0.499412663071519,0.506920678877582,0.5035153329623461,0.46336541392479336,0.3762504530075801,0.2643211709249478,0.18476510009811806,0.1786988546383378,0.23640386369530095,0.3322821870386988,0.43982780968033824,0.5402518840983952,0.6389019386411516,0.7569581154290226,0.8780112348931545,0.8644904163323032,0.7024804084363327,0.571868895297946,0.5068897204569514,0.4654951831214381,0.40684149877380976,0.32749847395860876,0.2362783818046141,0.13202635429682394,0.020925898341919446,-0.09782012341096001,-0.2042388168927758,-0.28410663108145656,-0.3087980374201113,-0.23042950979141166,0.06157315645513708,0.37572418080299835,0.5301172843877172,0.5482465807788327,0.4476599339684901,0.28909745473830634,0.09696342114032988,-0.15609941726616505,-0.46177656768764114,-0.7077443940702255,-0.8368222149255754,-0.8910312676857653,-0.9135473301912794,-0.921839914722592,-0.9227859609748565,-0.9169295240433747,-0.8970054602809577,-0.8394519694345024,-0.6894533024512319,-0.4716500461766891,-0.3076728352600295,-0.21312712407639212,-0.13235805426908503,-0.03996028182181759,0.06205872167746109,0.18029064905471473,0.3254113209119858,0.5074728888122834,0.6903535631040176,0.8289098089247381,0.915022588457187,0.9586423264668575,0.9710853658918661,0.9604308332679959,0.9276361793744907,0.8676263061144251,0.7785909915945298,0.6721293645409697,0.5785509057571817,0.5240654558444453,0.5054161326021535,0.5038194748052024,0.508819889360893,0.5217831473834629,0.5446565350042939,0.5893477665313447,0.6666572710599696,0.7691396388302641,0.8560073224450584,0.8629510451738752,0.6680859289230346,-0.3326027461192118,-0.8854340718095212,-0.960990427858561,-0.9766758643084784,-0.9766061869351863,-0.9604513242800168,-0.8876042080421878,-0.352562389786812,0.7126557326397789,0.8929101102232097,0.9008171056348585,0.7505855624288619,-0.0881454275753148,-0.6909900770897462,-0.8159896146437804,-0.8499169904044425,-0.8545181918943718,-0.8371107474286984,-0.7934113667503299,-0.7288765762730907,-0.6721635773349122,-0.6633198227221162,-0.6979060810095021,-0.7375366379269976,-0.7128788570948672,-0.39513782931974,0.09251513075907174,0.4207422504466557,0.5998436216870072,0.6984169508891989,0.7488604042699837,0.7649361762193767,0.7499788914017522,0.6710572017926711,0.3863180578646923,-0.39121325222053893,-0.8569264337484314,-0.9356401058514774,-0.9412739712546159,-0.9283319910492682,-0.9008867934760957,-0.8491269024959338,-0.7446225915793587,-0.5403061971235235,-0.24109448273048348,0.028270974866733696,0.18472878091510275,0.24287349429094182,0.24333754606758154,0.2534960484092113,0.3481131274377093,0.6039315368589864,0.8499949592151997,0.8981798444023833,0.8865924994968968,0.878486281272051,0.8801434565316578,0.8905718512251478,0.9035761993334774,0.9126956737283752,0.9117647702051465,0.8871932819147815,0.782668504775986,0.3730939270059932,-0.3062145055302941,-0.591998701639133,-0.6651267250219224,-0.6526599702814545,-0.5701019790842351,-0.41195501231030524,-0.2568340027211305,-0.22509625132301514,-0.32431844946150234,-0.49698768841765817,-0.6740220156091266,-0.7865114506819284,-0.8310470853098363,-0.855533058057008,-0.8798774610025447,-0.8945751177013683,-0.878567452472036,-0.8210234053280475,-0.7294660694592053,-0.6456648232167742,-0.6221734409904696,-0.6408798839316752,-0.6584853202023997,-0.6666439637418387,-0.6643885546018411,-0.6131285154637893,-0.4942323793848485,-0.35691254187760685,-0.25991877697366644,-0.2129850537855004,-0.20850279657042342,-0.24733501453173287,-0.31840205113839704,-0.40271284448127187,-0.4769659710150849,-0.5288231040045551,-0.5777003669337076,-0.6380516675750855,-0.7005894562584529,-0.7422321908234599,-0.7508038645896249,-0.7130032137505001,-0.6067093620275232,-0.40052874562747265,-0.10746874511190073,0.1989151671660017,0.43171170546605014,0.49799616618512277,0.3721196234014477,0.1823677715982283,0.0390340897191691,-0.016054537706454573,0.018683246357479935,0.12693130199778047,0.2689998882916972,0.3945268781676173,0.4707443465766027,0.5060102353209088,0.5212574915175096,0.5283454081203237,0.5344140903237125,0.5425507501043506,0.5533490515461664,0.5639655328477773,0.5708360248661407,0.5746241907960553,0.568176438561527,0.543001770793188,0.49142768308436435,0.4309573894411297,0.4317715814356747,0.5759335080928092,0.7938262166330218,0.895931226367866,0.9015233632039272,0.8760844194227193,0.86640194602461,0.8896113519216223,0.9175331343704517,0.9350283285535553,0.9430253618261892,0.9432987891913837,0.9388822503074937,0.9303352235764755,0.9135507830459942,0.8707811545401651,0.7666480959412338,0.5690360049463955,0.33626360000727634,0.1649462573409999,0.06617174577689429,0.01056641583765272,-0.020124404965127726,-0.01915572592879094,0.04105693068640996,0.20103779605862243,0.45412845122747236,0.6623401872664417,0.7085539260143587,0.6002368077375195,0.2697760196896481,-0.34741223541463306,-0.7749021886543533,-0.9036885637305031,-0.9332384685526716,-0.9378924833724923,-0.9402761761173845,-0.9454883684777274,-0.9511319363136448,-0.9533748650304568,-0.9513004725668206,-0.9503570892449046,-0.953232887339849,-0.9600493116275093,-0.9708527923640647,-0.9764858313946209,-0.9563050035617939,-0.9036335231567373,-0.8437675112175055,-0.8115547265063093,-0.8274643233357003,-0.8758483354107922,-0.903363963419461,-0.8373847180480667,-0.7008822359090233,-0.580610095987909,-0.5358442816007856,-0.5787679296702544,-0.6702415801563443,-0.749742493631713,-0.7766938049026729,-0.7508785682047183,-0.6486052951374881,-0.3636235269889258,0.2752988173886303,0.768672532250953,0.9085652267437706,0.9444556299659012,0.9556561403646749,0.9651230578694351,0.9761181176051377,0.985754012219541,0.9905218461175485,0.9871940690828452,0.9751057403943951,0.9595447299755901,0.9486638260801377,0.9440207077179249,0.9430672080346673,0.9397697180680045,0.917872551352238,0.8161621674895512,0.24253688614524363,-0.709284329547332,-0.903682617032278,-0.9394819229250532,-0.9411152407509676,-0.9232563674738439,-0.8629486583522364,-0.6327508908959523,-0.052239468000133585,0.32972016168577656,0.40880378326562694,0.3696650333247676,0.3073147266982323,0.27840316715720337,0.298455890767422,0.35650348588420905,0.4424364150533424,0.5375065209052077,0.6306095858792199,0.7127499855965564,0.7739975105942679,0.8082562456894574,0.8067486156231805,0.7603648305789534,0.6412867127007364,0.40317433702869,0.05236144023415193,-0.2345582560820049,-0.3693699957846109,-0.3944407588728685,-0.3657718711123763,-0.32139995056416076,-0.28688406167441277,-0.24978722197888242,-0.18386266991929834,-0.09576938274921472,-0.05604006999425076,-0.08729060924774423,-0.20518133796958846,-0.404181321506894,-0.6420686100157171,-0.8231581202424485,-0.9060653564070688,-0.9342261487797927,-0.9441296754700739,-0.9453582416462709,-0.9385109146477408,-0.9222604343189014,-0.9019758311128009,-0.8924350570163707,-0.8940939037717246,-0.8926021964191804,-0.8853009250441152,-0.8602945013506814,-0.7799487914476362,-0.5524358371433469,-0.1538268760530612,0.19175341125729362,0.3646235986106864,0.41078682299021824,0.39156167885705084,0.3828473894873774,0.45507093664423015,0.6107719459965238,0.7617039106607605,0.8487092527369506,0.8882469051551524,0.9041819979712867,0.9057337604985186,0.8906457021254026,0.8437267210644785,0.7184562065545324,0.46384084005896936,0.2005535835537622,0.06815192781677926,0.024491680985147386,-0.001844099544489957,-0.06412360679570009,-0.18257104169814886,-0.361792968573377,-0.5713378730511308,-0.7484444874688019,-0.8593188895690207,-0.9148861179157041,-0.9289708701874866,-0.88869684190523,-0.6977762991567127,-0.13526688644932094,0.4026928799188928,0.614221113617446,0.6830001040457556,0.6999359567860898,0.7065579486817564,0.726232041723484,0.7631827838359073,0.8098083210029796,0.8527529496898684,0.8836157021732687,0.8982883187104957,0.8954878628415168,0.8682384542429136,0.7981441750551015,0.6550264418657188,0.4478996729261888,0.27384415847844773,0.23305925989382634,0.33918445257197566,0.5551613950998926,0.7825974809209405,0.9274412998059572
