0.43718598883794363,-0.4226819623083272,-0.6687873360496971,-0.7027328304662064,-0.7232861498992581,-0.7486394823011234,-0.7875819976315337,-0.850127906122974,-0.9232959486303347,-0.9175327710488705,-0.7993862377027997,-0.6400943556066122,-0.4453318844052865,-0.19648689073471717,0.09890625243925763,0.38450369954811675,0.5897905695044323,0.7203701713166415,0.8076202711973345,0.8652080101926092,0.8874196645904061,0.865911459300403,0.7991902825558418,0.6833001153006322,0.4359483040417343,-0.057890838699398345,-0.5899822494591698,-0.8264629440421107,-0.8949030498923712,-0.9051814046789284,-0.8714154113652758,-0.6255406352205742,0.288784198200135,0.6919009696537121,0.7747704235774205,0.7891592540763176,0.7829078483557469,0.7607972600913907,0.7205476239088061,0.6354173280538038,0.4337697890664778,0.13276788249144353,-0.055301449774022376,-0.015276111824140565,0.23094697261694105,0.49947097071547814,0.6600987152086425,0.7381148480871433,0.732141976965731,0.5327326212943507,0.10631303401706164,-0.24271502980378915,-0.4354030288285319,-0.5509584519824415,-0.6436942966551259,-0.7501084900727459,-0.8706513915393028,-0.8903562508206722,-0.4374004545363232,0.062403041972738056,0.270072896884347,0.3469045277473136,0.3865334260069732,0.4226511681983679,0.4671979923141657,0.5262362520405278,0.5326731751340884,0.5179468972706267,0.5866121421263955,0.6375775603494535,0.6692267095602245,0.7339613592591934,0.8171020282629042,0.6692568874473499,-0.3989935350425245,-0.7731548250156252,-0.8712638136493958,-0.8994563879154985,-0.890163275367358,-0.8301103302770516,-0.6440433561296133,-0.17005207625662588,0.41138828503402786,0.7064731722307459,0.7999917660768353,0.7992415179630235,0.7639050520924666,0.7384618662415796,0.7398990893704557,0.7651852461483951,0.8037560989865995,0.8427312338167937,0.8704701103091799,0.8838928051930152,0.886961437719665,0.8862648950530707,0.8806017617691569,0.8663206541205536,0.8170817910644123,0.6206863233686962,-0.036650079219603206,-0.6755275191687327,-0.8971139460934838,-0.9618150474800654,-0.9770850279296218,-0.9799311181826054,-0.9793304330968838,-0.9766951936550015,-0.9715220158901781,-0.9626582910062818,-0.945782833136466,-0.9033060970493486,-0.7337503193321165,-0.15858245953787498,0.23119262673396296,0.3093496908993767,0.3776972606967017,0.546481702098464,0.7273099493319211,0.8382356461096017,0.89005091286408,0.9122492491662795,0.9186818873267422,0.9183361878624778,0.9162782555742299,0.9150916840448783,0.9178033195814452,0.9196440649564025,0.9067874671223811,0.7443233339400904,-0.9434146595773464,-0.9849609274641404,-0.9861900929823632,-0.9857886841723168,-0.9839205439138863,-0.9778759353864473,-0.9577529686565572,-0.8649642280853628,-0.3710355316575752,0.3054643842115262,0.4557225230005959,0.4189610853245,0.39426488852589525,0.5063702268108601,0.7633859451704781,0.9434206195059422,0.9669541520116535,0.9375401724874574,0.902750315997613,0.878455486238059,0.8756197474010889,0.894922120325583,0.9242216450407441,0.9477541203297882,0.9584510672524557,0.9604245258920289,0.9579204003376115,0.9524255197112382,0.945561145303996,0.940130365381902,0.9363380987719004,0.9337437303593635,0.9309023531201704,0.9235151916313601,0.9085973083124562,0.8853122108174614,0.8567571434974484,0.8259093728792171,0.7806035766121012,0.658143783533984,0.24746252311349007,-0.39607739103668044,-0.6642667114991101,-0.7061717351977161,-0.6356719568488028,-0.480741798920708,-0.2990488747913785,-0.1514708487667062,-0.043722693647262945,0.05749917427255616,0.15278322681852805,0.21154987639821876,0.17722974431742136,-0.0059569345663230445,-0.3255475409658378,-0.590119055869476,-0.730560346193357,-0.7788818910816289,-0.4817301369192591,0.4228497687221454,0.7483411363928185,0.8669644469475632,0.9173289173692485,0.9307057048518819,0.9083633840310963,0.8012246507054066,0.3895150685136876,-0.27287336479394747,-0.5394888032836498,-0.6004350869313259,-0.6146895152537488,-0.634074462527117,-0.6840790024322273,-0.7604021064495756,-0.8346911918257429,-0.8767873083067249,-0.8835838474991594,-0.8683254392121298,-0.8354832907794107,-0.7661300131035521,-0.6119049594670302,-0.29069784059628123,0.07717071614012756,0.25766933077139836,0.3145974177706371,0.34791021405317374,0.4068523824347,0.4893411233516614,0.584752672005797,0.6348292195207097,0.5834457598267854,0.49147510696310126,0.467672759531413,0.5114553994831965,0.5645239102846261,0.570720436500396,0.5648761390710528,0.5601028988607609,0.5604313212856433,0.5376843064539809,0.5187011503027334,0.5180800352321608,0.5265118106754983,0.5137887162099222,0.4642689591383693,0.3526280105176587,0.09845510140792287,-0.2764534728786822,-0.5638283954879411,-0.707151441533325,-0.7731361048286983,-0.8032248584551249,-0.8187688459860485,-0.8246677405035846,-0.8279133356931669,-0.8297308471165343,-0.8269574797322942,-0.8141715959889316,-0.7783235767423844,-0.6852220138973218,-0.397946115901074,0.49906067498087886,0.930052670276195,0.9205084931067901,0.8470946445765738,0.7646722437616464,0.7193402821298566,0.7306348331324181,0.7819691383713074,0.8348070062920321,0.8598612220976601,0.8556121662310493,0.8238504586304838,0.7367516763308701,0.4430274491445733,-0.31113479775184993,-0.7258265556045593,-0.8200647942359802,-0.8232936195013691,-0.7518353309387497,-0.5626581734952549,-0.2206295819805463,0.1386335245751973,0.3447448575553025,0.37902542167493075,0.20618144665817453,-0.24770824633457014,-0.6671065097119218,-0.8379384756193259,-0.9017536869956311,-0.9301070643275545,-0.9444600761062791,-0.9516304574048454,-0.9548993177538988,-0.9554842680466127,-0.9533944076416203,-0.9463863546147081,-0.9220407038953418,-0.7767132496186233,0.46873435317621537,0.8892734406282359,0.9261357709612833,0.9184063955245889,0.878792025130892,0.7889279110986666,0.6820071988739179,0.6905406659398534,0.8127072116326124,0.8948133420970326,0.9250368126530882,0.9383523442823595,0.9498245800993003,0.9463424012954174,0.8725228288140853,0.6940186513690868,0.49774733094614915,0.3107210858026393,0.015350338435165622,-0.6012135541060099,-0.8780778561103135,-0.8904761945045037,-0.9019993559377433,-0.914957305778683,-0.9178990910552385,-0.9030936568024113,-0.8297462002024621,-0.017628992632131274,0.7384582884660758,0.7720706632775638,0.7518101333768923,0.7380394508844557,0.7357585996173867,0.7430419646995389,0.7561287500807493,0.771927292573089,0.788013448827875,0.8025238698830454,0.8118551053931191,0.8201455650683275,0.8294742863839941,0.8394077451273965,0.8480861422740827,0.8560898516367912,0.8657803074414433,0.8788018761403361,0.8965498644198835,0.916395950063853,0.9342438920143697,0.9454577970317647,0.9439877559658456,0.8971509531008008,0.32315397397756995,-0.7848498155833897,-0.9167908377099928,-0.9478869110269318,-0.96308647661459,-0.9673174935927071,-0.9254185878081607,-0.6312797724530094,-0.17413231094844608,-0.2574617097491709,-0.6284520049650221,-0.8508256071609667,-0.932257029537904,-0.9615124800765714,-0.967950333222031,-0.9344808095168808,0.21295591341901696,0.9123847592603775,0.9399222138146306,0.9202150590591932,0.8448432877287444,0.6703601102420224,0.39839493192245795,0.2025817579069853,0.135793325940065,0.13967548287155063,0.16006149689484606,0.15006043801662128,0.06570521132773634,-0.1877382238587656,-0.4372910897791361,-0.4926422115734249,-0.4334680510361186,-0.2005252433576862,0.03963645944286408,0.09282187817679345,0.042272347969549345,-0.1249045860904526,-0.39116145265331265,-0.5391715463455174,-0.5863995578540239,-0.6243034889544741,-0.6710377954968685,-0.7139776068182366,-0.7490173417532814,-0.7664593999676205,-0.759431890024529,-0.729198201734482,-0.6968083600119522,-0.685019040282453,-0.6915468387564581,-0.7096695770345435,-0.7162528236383027,-0.6886184647632376,-0.5750935297963269,-0.21282364292440034,0.43502234115532473,0.8209734202580519,0.9472032792254387,0.9765841881450458,0.9515231959483861,0.8680791467697326,0.7112091286984893,0.48858271749382104,0.20554065192577417,-0.12332740552787837,-0.39735028022364305,-0.5229074782229343,-0.5295800634501547,-0.4685133059817957,-0.38012640008909193,-0.3049858378513552,-0.2733297765694467,-0.28478407671732214,-0.3172979117777754,-0.3211887704178731,-0.23088776888011484,0.024111173217745852,0.35910568843223195,0.6055801853547449,0.7520036349225754,0.8237775156211194,0.8631890845677336,0.8905974983536885,0.8953661039894463,0.8632638655176985,0.8097071304024295,0.7563691184845054,0.7319485403589738,0.7457838691150458,0.7899765002178608,0.8364009650197208,0.8612340611260769,0.8666423762460286,0.857499855107293,0.8356242173242627,0.8082846223105572,0.7841098010287714,0.7672770304227071,0.7553087305927293,0.7398416745126127,0.7159780200430085,0.678352120597797,0.6127625986114449,0.499047802295013,0.2981444814533215,-0.1594756516495972,-0.818877250272898,-0.9223477834599687,-0.9108772325665634,-0.9031800475874843,-0.8958623052829457,-0.8824134064099811,-0.8576865337505848,-0.8167506489381487,-0.7533506789567296,-0.6593654487037774,-0.5252248188630684,-0.35832544271259764,-0.20419627004997137,-0.05587404061197159,0.1410315890809629,0.38383272452766826,0.5637428783116949,0.6102287938353875,0.5972340584375402,0.6104353562077929,0.6690593271867668,0.7287022290378603,0.7099615097883855,0.3175956477213179,-0.6796355977956257,-0.9007671002056978,-0.9373871961231024,-0.9445310685378157,-0.9420169306348863,-0.934595699366307,-0.9253393069055653,-0.9181027088848119,-0.9167399675651892,-0.9239177156114315,-0.938460871783117,-0.951267628971985,-0.951214170660155,-0.8992382411848219,-0.5458628526885282,0.3208465236922412,0.6856493432846608,0.7893283011448687,0.8237125214648583,0.8358261093972796,0.839854224193904,0.8439088856158098,0.8448998459519125,0.8355023667085039,0.8106671909527285,0.7850744784785898,0.7755989678973088,0.7851777210261172,0.8067014932745777,0.8331036487210163,0.8587252062899021,0.8805595639677946,0.8944500351683303,0.8978127369873014,0.8910009501417929,0.8805421076970991,0.873398115464807,0.873924317175562,0.8846503683844452,0.8995762674928189,0.9105988303455429,0.912704575009791,0.9087572933777491,0.9024276165137435,0.8970180408949036,0.8919204591610677,0.885712443696035,0.8802819665829416,0.8794613293432929,0.8800959275078074,0.8782607255448498,0.8761994896944065,0.8811205317442913,0.8964217914314971,0.9193122622922181,0.9391309617854623,0.9506504177257327,0.9530370685692963,0.9466146390240261,0.9288823599942833,0.8953669030422244,0.8429917023379327,0.7695678786112368,0.6929013406374517,0.6372150002270797,0.6123230097684591,0.5814875978244723,0.4136176481230384,0.1667520760297298,0.033388306167108577,-0.014797976309479216,-0.03231565690164788,-0.04626241367375562,-0.03638593759292158,0.027203084060003227,0.10822791715107652,0.1729059792807634,0.17491697683908652,0.06202374825369828,-0.18054906327836542,-0.4615030430514477,-0.616671681984146,-0.6687084047077722,-0.6765385046091736,-0.6724647765664311,-0.6576570880272538,-0.6249184718524603,-0.598255220040943,-0.6159982519097502,-0.6784213730009078,-0.7443940769689611,-0.7926102771160691,-0.8243135984612819,-0.8467989486258902,-0.8648937492842321,-0.8748210647158088,-0.8646869579812666,-0.802783363245258,-0.5541065223366817,0.13820182857546467,0.5973686680744712,0.6700622656169863,0.6332350911667249,0.5752279528446859,0.5213194316671949,0.4645169267273662,0.3840757374257523,0.24782276695871067,0.005260550632366309,-0.3962753086705178,-0.7163431360464274,-0.847745299388649,-0.9020559501307298,-0.9290553821416758,-0.943828263208238,-0.9521609800896286,-0.956957830473632,-0.959127711368692,-0.9585014362284212,-0.9562791440620776,-0.954138162351644,-0.9539475067420514,-0.9564539506526429,-0.9601138407118235,-0.9455532468538206,-0.6200115604495537,0.450242579620001,0.7146394048673737,0.7787874728558026,0.7930025656958724,0.7872769226580525,0.7797737223701421,0.790221472212743,0.8233190548832161,0.8645456292906186,0.897138247809725,0.9160155291017736,0.9312012839457361,0.9499006235623719,0.966854000009805,0.9789488871230515,0.9850421452757538,0.9872839518683106,0.9887051998516642,0.9891122210830027,0.9848527290165298,0.9566352645637548,0.29707684840268916,-0.9054062657495704,-0.9615162097984638,-0.9675615171467182,-0.9456803377382091,-0.4466471979608857,0.9073381136019015,0.9640579413232961,0.9592568828639635,0.5493069455619773,-0.9303814560002697,-0.9501795936525895,-0.911979355711385,-0.8203545779808382,-0.6467581712115466,-0.3229437597154751,0.4648237797751592,0.9278340570355267,0.8821044775991193,0.8830986071411017,0.915065973717763,0.9481860937788931,0.9642316538366767,0.9610481003767206,0.9454104109111917,0.9249609297038732,0.905255439789711,0.8867551969490318,0.8695235203041473,0.8539563220818276,0.835151272856314,0.8051794778305833,0.7542117476037081,0.6743242362931106,0.5556008042405792,0.39163410406827254,0.22559999839453382,0.13814458941910024,0.1783865497639495,0.3077059737016613,0.4369756682734264,0.5244506895116553,0.5706282956148521,0.5659023744951938,0.43667670378905515,-0.008939971760363138,-0.6122634182825645,-0.8354920303230525,-0.8880058970882434,-0.9001686796310857,-0.8981637968457714,-0.8871353233658529,-0.8624052158501354,-0.7889318907085536,-0.5284104864116625,0.030038854607201973,0.535454718189941,0.7899399906537345,0.8855557922780302,0.9105445360236213,0.909902261081869,0.8997125859729905,0.8860232955454845,0.8791272423926499,0.8874414708970878,0.9015399264696985,0.8607131341777458,0.7544704615141081,0.6743919959141829,0.6170730943053149,0.5364762228549639,0.42288312571498954,0.2873463325987418,0.13904517027311428,-0.02338646073862042,-0.19045999882466694,-0.3210337667060337,-0.3753446464534079,-0.32860515422042286,-0.24225451289978678,-0.19286211314115792,-0.2303994321115971,-0.43649437007146175,-0.6875136695549506,-0.6021803014051827,-0.5331118094542429,-0.5031519639262245,-0.47576708424956204,-0.4228901800662788,-0.3260215587657439,-0.193854717429871,-0.026499811260965137,0.14959288607214785,0.3137913313130852,0.4631560660955641,0.5325476889232034,0.37643995243804335,-0.3269170804143316,-0.7640622563163719,-0.8307772096171671,-0.8130706771492787,-0.7609467411262536,-0.7148030152583081,-0.738356871022448,-0.8276707412532649,-0.9034073750142201,-0.9414893528417166,-0.9580247655197587,-0.9642793904239996,-0.966244891330481,-0.9672573036558724,-0.9686843033807978,-0.9720523515836658,-0.9767010759301081,-0.9806539531542432,-0.9781406995834702,-0.9079202561431541,-0.18583751693715223,0.6687464780782514,0.6511229814553434,0.3431533298183331,0.10808984487521538,0.10574975830532612,0.4750916790686986,0.809774530283838,0.8108563549786575,0.7069625032269697,0.5809120060598842,0.483421108791759,0.43294241927296817,0.4439134335356176,0.5353693093973989,0.693474544476681,0.8443836541015127,0.850132380348432,0.6863945197087612,0.4949853746770411,0.37237663188529724,0.3138618275184402,0.294114377583888,0.3046257556657685,0.3495902474616579,0.4486218432415744,0.6176922434337314,0.7933743524712715,0.8896880305805073,0.9053686352707994,0.8953916332573423,0.8930008164099049,0.9032649412593193,0.9130936912608891,0.8781079999515117,0.2921257225982305,-0.741098013770588,-0.8887198251907359,-0.9257832045761157,-0.9403300434172365,-0.9472249230748846,-0.9527795227744849,-0.9512408371040859,-0.7839981244990547,-0.026296471450461135,-0.02069464449187199,-0.5799063898381418,-0.8189456387590595,-0.8568755027754114,-0.8188018688512237,-0.6765663795853015,-0.3531862258238304,0.050577242477394445,0.37323990257621525,0.6121057759190166,0.7794277915093961,0.8672769433050916,0.9074978642226635,0.9313063945793338,0.9289440933855119,0.8853125369395038,0.8295688906228429,0.7922508503272091,0.7745899043163685,0.7658841026481769,0.7537022538367937,0.7314409719298769,0.6965371105264918,0.6518570599690283,0.5926043499013073,0.5181423656299715,0.42889496327175486,0.3251528221429024,0.20599545673999772,0.11032328594338552,0.07945289616246527,0.11103145789390785,0.17891230699332725,0.2646305965355373,0.3489895683663148,0.42299168804893406,0.46997765459738033,0.39355158768643345,0.2202996780074121,0.14073285025099896,0.20493097655889153,0.3710450811974958,0.5098485243519477,0.6004232115663567,0.6919883675302911,0.7730641806196566,0.7638282599409117,0.6228558126848884,0.49303509366846077,0.4629707655182665,0.5341467849508348,0.6334106267028193,0.6996450317195105,0.7280472599107539,0.7320375294443786,0.7233323112363778,0.7078369723088991,0.6837892693604178,0.6509248868663298,0.583389434794991,0.4027886849355884,-0.031880834655492886,-0.5125158389954542,-0.723621609669929,-0.8123755009243571,-0.8295679747660283,-0.7337450944716185,-0.536004046089747,-0.28328550536716235,-0.03510919002472627,0.15808362738070778,0.28707051539264417,0.3681307841223133,0.42287678575337934,0.45451891280338347,0.43922304659494765,0.38040032052116846,0.29377819492453017,0.14650738172924826,-0.0679695878383751,-0.2620763193911737,-0.3447340468896934,-0.3307641614413265,-0.26798547635106335,-0.20834383660504366,-0.20287081315443545,-0.24666331552962284,-0.2883735552004148,-0.2554600338767596,-0.10711725095893558,0.11618092966328222,0.27420957399558815,0.27373090937504085,0.037258178898644266,-0.4257305239000947,-0.7468861558662556,-0.8678628586836238,-0.9123708722170694,-0.9333245901765742,-0.9452074684843452,-0.9528059344030892,-0.9575191098854339,-0.9602373038851916,-0.9609297956659492,-0.9545442254509641,-0.8888489048293837,-0.20392636291511587,0.5128177367338493,0.6672369919569123,0.7188652893761651,0.7516820597190245,0.7710696723677265,0.7755232174971687,0.7742783950700535,0.7808849369915493,0.7986373213231143,0.8222857808667414,0.8393022347289815,0.8466847074355593,0.8473262563917866,0.8476272080230239,0.8500645435634592,0.8538849946625909,0.8561196607981243,0.8546038379705687,0.8388397346962007,0.7964579920212657,0.7226055734534671,0.6197650324049903,0.5011597944919111,0.34199171489758057,0.029716783513092062,-0.592451359330018,-0.9582121981255225,-0.9815863019933702,-0.9720540983778371,-0.966786886058514,-0.9642206676849013,-0.9611143346603412,-0.954276447575565,-0.9368839420394337,-0.8728880390180888,-0.13008066021061102,0.9474483981557063,0.9657824355285792,0.9504166854647591,0.9220264037096287,0.8700494920917577,0.7906527129258745,0.6857100848743911,0.5771327148516385,0.5069697124921987,0.5039770590523056,0.5448084285645522,0.6025837075869528,0.6778156551924072,0.762249143469867,0.8451797266764662,0.9080164977051652,0.9377214550840668,0.9415387255689606,0.9376628744982289,0.9329964973647802,0.9272878591501643,0.9213761787474789,0.9176642901763685,0.919536093123119,0.9307821740218221,0.948115720406387,0.9642658105127943,0.9774393075483329,0.9880217473849252,0.9856466702159059,0.8448825799527574,0.00663039106629659,-0.657946562222507,-0.8494116595147883,-0.9139201338535775,-0.9378163018866029,-0.9469636551612953,-0.9497808358780873,-0.9486185734432786,-0.9437719813454092,-0.9322629878741427,-0.9004723420789046,-0.7891172160696811,-0.4547646300863665,0.026000067839455732,0.3714264612292627,0.5895939087919548,0.7337036162644415,0.8285854286583586,0.8873776703529455,0.9110844031363665,0.9052476982372983,0.8882386826945818,0.8744957844581293,0.8640939259113424,0.8615305649347833,0.8682304147179087,0.8778796292198361,0.8833276040785742,0.8866015795357634,0.8903868563312063,0.8940658475982952,0.896449393952826,0.8951779061343715,0.8907766814056383,0.888385437469647,0.8889839117953747,0.8914434526966876,0.8930844144226731,0.8897235332647199,0.8766761657044393,0.8479499056759617,0.7993683370393129,0.7289147325924348,0.6433729846864721,0.5511374751837195,0.4444333598787506,0.22992696822308134,-0.3570909813125373,-0.5738553478937347,-0.6066050521539857,-0.6294854204894754,-0.6396782417537569,-0.6335762564470901,-0.615557531989181,-0.6043264854530263,-0.6251232383256548,-0.6842047370146329,-0.7529679720576062,-0.8036940678762716,-0.8230345659308499,-0.8002863430826171,-0.6856745577619522,-0.20792346294018724,0.6757763394424648,0.8990172786365431,0.9241081732325349,0.9198487655244583,0.9200414287476498,0.9234097316468554,0.8562823003684651,0.7325830276843559,0.6461181883627584,0.5933399876053738,0.5802887828789529,0.6055488479111523,0.6432013448716402,0.6773124720441593,0.6937923694005105,0.6891940961943707,0.6639026192236893,0.632718006330061,0.6078653627887258,0.6003482674502337,0.6141341547760705,0.6412091545866077,0.6713101359008382,0.6994300520715194,0.7146494985231155,0.7039554767217685,0.6553503978572591,0.5776583215850832,0.5149358622974393,0.5142974130802538,0.5672118430529701,0.6441466032267933,0.7097098369470172,0.7400976666124788,0.7340607100952808,0.7236444698868818,0.7262677367504414,0.7207320765139842,0.6667869960282867,0.44980617264357764,-0.25741532290408214,-0.8448031708644984,-0.9578274348571815,-0.9779465311290179,-0.9818772636162678,-0.9814768185202518,-0.9786166472466382,-0.9724391774244225,-0.961595447386139,-0.9432763572630988,-0.9102508757197867,-0.8486790749668482,-0.727875170239622,-0.426477626265987,0.24588393036649725,0.5593831078263458,0.3456769422474244,-0.3278942210762592,-0.837884463151742,-0.9267901908177661,-0.9273407937059609,-0.9060857590851107,-0.8682919081582421,-0.8043969961367351,-0.6801843489320727,-0.42633500673754443,-0.052648544380444424,0.2339293763376536,0.35782224565455784,0.38415524336224566,0.3658747439053631,0.3573573673206013,0.38962081033354135,0.5118317962151491,0.7050206360902139,0.847489150813238,0.9201498861140673,0.9547820086227307,0.9716461901260358,0.979978093280135,0.982360191839639,0.9677990461759491,0.9125127047461475,0.856348517266842,0.8563084471816341,0.8806726415908251,0.9019566280233621,0.9204585894168283,0.9336045524422195,0.9362585303731663,0.925026007777123,0.900017577822733,0.8736250315378159,0.8718458502619771,0.9053928405388854,0.9160879873781441,0.882364395872336,0.847910687298312,0.8213704359257847,0.79972453905973,0.7769244364415677,0.7500040672332318,0.7112591152118197,0.6580569861769625,0.6045818289466351,0.5783542389655261,0.5731116245244552,0.5748732082399319,0.6132571610248607,0.6809192897862373,0.6892199478481496,0.6534998725091714,0.6287494764793548,0.6275591037263548,0.6537188456304247,0.7007538487782086,0.7530369225674972,0.7908807103509901,0.8158302778593045,0.8492663351312825,0.8836108595751299,0.9002635325625286,0.8929422494283006,0.8650156136906813,0.8096185404885169,0.6754659399543667,0.12383569627770752,-0.6337116953468958,-0.8405757922608594,-0.9102858049569469,-0.9424209579658092,-0.9560921244712186,-0.9582551782633096,-0.9500822679950927,-0.9323722105414141,-0.9055028247415665,-0.8738442373988075,-0.8565093019987007,-0.8678637713227637,-0.8836846047686948,-0.8933566146557191,-0.8970018843395019,-0.8946763564609131,-0.8874798221131228,-0.8702522734049938,-0.7490769018546121,-0.5355909640155352,-0.5440783237370362,-0.686702617135121,-0.7894413216308243,-0.8376586699681835,-0.8672523188195541,-0.8893002988581672,-0.9049818259141367,-0.9047754016153372,-0.7774643717254717,0.5884943802368966,0.849389391829341,0.8560118589893416,0.8152732497301862,0.7364948542952312,0.636524801843627,0.5796409523318325,0.6258616581822474,0.7360444368378105,0.8086138818060464,0.8085242065722338,0.747398710093698,0.6169994442682626,0.38484451615314325,0.16275141118394906,0.08754739237030451,0.14727262344455275,0.26248159861793224,0.351820831462946,0.4056319900603258,0.43859072772118,0.4521978128192171,0.4389143686272299,0.37403904840666247,0.2911649672392694,0.22383903658202295,0.16814374026665135,0.0855624273889068,-0.03750237868112325,-0.18986329983827602,-0.32730443309089696,-0.45337871753436104,-0.5687633991390646,-0.6382254107509182,-0.6130562867048048,-0.44193567258772776,0.02303710630799508,0.5361882283297793,0.7072293226397255,0.7269411614688864,0.6840144429588054,0.5949245166994277,0.4927656783198859,0.4250270614453865,0.4176867285489622,0.45681778364072195,0.5188835737033167,0.5963275389557198,0.681436609126484,0.7590462843402916,0.7690299956000912,0.437520780434023,-0.3190953228226023,-0.6266287998856325,-0.6918771153514293,-0.6179426258368854,-0.2266494366788097,0.5935487111324036,0.8878305993586901,0.9376137052361192,0.9337773711412054,0.9134866696510907,0.8937446872703071,0.8838764103407644,0.8688181342766639,0.5734883850146197,-0.6585411614999278,-0.8436395699088037,-0.8634187643469333,-0.8195171525815805,-0.6429768584708908,-0.17586645435613457,0.3105192774880439,0.53103553009119,0.6181946853936984,0.6514231255626945,0.6667338361750764,0.6973041559414085,0.7752075252193277,0.8659596663466979,0.9040074923965709,0.8953659626013081,0.8827005216106351,0.8765217754950249,0.8698895710713176,0.8356294627222103,0.6749947263046969,-0.06117552987337301,-0.7865156625516928,-0.9317406068791113,-0.9617024747432027,-0.9680796571929716,-0.9647639399231156,-0.9510614173228356,-0.9236060146973696,-0.8796731028070475,-0.8107692178913233,-0.7214972404841741,-0.6693356790678153,-0.7015445507575139,-0.7508861110792875,-0.751292697682252,-0.7022923738640451,-0.5722439330147322,-0.2846774203733519,0.053409793965746896,0.20111896153739334,0.19277026752738813,0.10392689872482407,-0.032740297800178175,-0.17043713880666128,-0.27176853443440835,-0.324068716581786,-0.2849123295778308,-0.0731598832224538,0.26050109942640937,0.5087139703519068,0.6406927100553199,0.7253664632403667,0.7899269609614027,0.8283789173519039,0.7710732706574939,0.38595652368488587,-0.2461903053988747,-0.5592972989957502,-0.6284990436671144,-0.24305564618005712,0.4264957734496512,0.6550438575994423,0.745017579303669,0.7205239772997237,0.5306429773849096,0.31055513301570487,0.1808209842536679,0.1488129858659976,0.21870467774558425,0.37323026189650077,0.4871865857944622,0.507594079721367,0.4735926917054212,0.3820587624276838,0.28706672328827526,0.3015978673032152,0.4545663384915,0.648779930236594,0.7611548791072787,0.749042098734165,0.5416367679961891,-0.01733579617046351,-0.5224735466140583,-0.7141835109781699,-0.7821987508559207,-0.7984604263479705,-0.8080885592981607,-0.83809950245988,-0.877127408728035,-0.8918912909777996,-0.876563578366953,-0.8459177632740577,-0.8098654700841246,-0.7790201030325361,-0.7498083707624836,-0.7047092044341018,-0.6092412558396645,-0.45337131263952873,-0.2686391663297133,-0.09665484445745792,0.035170708945670315,0.11012755660087613,0.12091361172910128,0.04768397054374189,-0.12802727291405028,-0.4121629109148573,-0.6952983138071251,-0.8607899597680303,-0.9339631672952635,-0.966669234619734,-0.9810820042623063,-0.9823342707357554,-0.9582969135595816,-0.8201822961868969,-0.17418356361659257,0.5013869239210417,0.7017143021062453,0.7569491766973192,0.7704523246457826,0.772045993020393,0.7785087258458728,0.7945272593714802,0.814970612234829,0.8373435024173659,0.8589008658844574,0.8728647460574251,0.8789827767542054,0.882838127361643,0.882858759860395,0.8747837352699672,0.8572408113790528,0.8325665178266101,0.805438023354466,0.7812296659426508,0.7689702164172435,0.7695800051890491,0.7797800823342418,0.7901846225554315,0.7913198190288931,0.7814405213533929,0.7645804529313116,0.7481359860101613,0.7370070497143775,0.7361838503875402,0.7456079398854197,0.7608813053381421,0.775178617404484,0.7861784274687658,0.790801410308638,0.7828352460329758,0.738182198695693,0.5900238494451906,0.04979912966571142,-0.742874012319992,-0.9352080070909384,-0.9659881525019199,-0.9663132369811046,-0.94741970188975,-0.9030358946786545,-0.8465949361570141,-0.8027416448367977,-0.7852303093848874,-0.7810173759572034,-0.7777113672110978,-0.7541890173554304,-0.6881124776387231,-0.5716384055789083,-0.4358825922486842,-0.32494357430295695,-0.2651972322170529,-0.2609396908968006,-0.31858946598487964,-0.4408122989818807,-0.5829516102243668,-0.6956785122692041,-0.7677039896581309,-0.8103138280752721,-0.8288429731414506,-0.8221826971753357,-0.7793738796164315,-0.6338131549027964,-0.15336863730753802,0.45743107456495175,0.7043102946602752,0.7877603877402208,0.8098040851997226,0.7837027788301525,0.6831200771886927,0.3897023968243229,-0.29453470011493654,-0.7902672835503219,-0.9336567101471159,-0.9692110858120707,-0.9750167200350615,-0.9712461711736701,-0.9646277562439847,-0.9550133435816905,-0.9174284530798921,-0.24053817142437678,0.8180821531206532,0.911676439252191,0.9347298622358817,0.9439746404220637,0.9445548543311677,0.9383278018008502,0.9252018400573597,0.9054002574331638,0.875550803108467,0.8298214736214305,0.7924199648699486,0.8005765843771098,0.855283635292652,0.9233376302075436,0.9616938760402693,0.9456844361575216,0.8658542857579798,0.7509025541624412,0.656370121231061,0.6236965423207395,0.6304131805651678,0.6437424587993624,0.6577004001357791,0.6719055284572323,0.6901091405718628,0.7186562374322067,0.7682842678330443,0.8445434232260157,0.9119297035798845,0.7881727248913447,0.4473601722174484,0.20413303975742295,0.07639981887514175,-0.021733388025420207,-0.16944626299368473,-0.4005371036285927,-0.6225697570313463,-0.7696181569948288,-0.8672385028491573,-0.929071927578726,-0.9583961430586068,-0.9651606422736138,-0.9635518567825695,-0.9624171475781149,-0.9625393665461933,-0.9629285029278836,-0.9617763340926135,-0.9584144892575167,-0.9512392368496091,-0.9337867614283946,-0.8829434638970726,-0.6548747703871984,0.2646997690731953,0.7304538578854481,0.7837039099642613,0.7513342093880393,0.7003007349007462,0.6622085342383993,0.6529574040954831,0.6740806765509422,0.7141151960228548,0.7583871146830509,0.7939448161698653,0.836989768810446,0.9084813814047832,0.9601489654343042,0.9521334647913758,0.9062610538806353,0.8460174476676166,0.7951824012996174,0.7783591396510179,0.7926542329010747,0.8054674181370666,0.7859169903749048,0.7385324594629038,0.6790467083562263,0.6157932852893168,0.5486425337561847,0.4667480279413139,0.3636404350680003,0.23649769892466618,0.10540363069235276,-0.012122800843603959,-0.12680037760780988,-0.27070381702133295,-0.47684495036528796,-0.6750591417391262,-0.7902393372124107,-0.840985123622381,-0.8769006830771381,-0.905758308323047,-0.925606417760186,-0.9396423324067471,-0.9514540784917351,-0.9632226101250652,-0.9735426393619598,-0.9720050303532562,-0.9552379652361833,-0.9417186786768402,-0.940032653200454,-0.9452298164231575,-0.9505482744913577,-0.9497406829012492,-0.9134903314454219,-0.5007530569223904,0.5540275479035317,0.728921445496094,0.708090243540839,0.633412285981602,0.572650246268207,0.5813325840557239,0.6570026407226913,0.7564709917784683,0.8433728705822613,0.8960075088889122,0.8931275228518346,0.8482715198591108,0.7972580828907879,0.7616266252886397,0.7234335732945999,0.5053226789406655,-0.09935321026464791,-0.5419695861334134,-0.7548080177525249,-0.8615736679393944,-0.8473638491165527,-0.6625055523313668,-0.2996359790314538,0.19727232766765979,0.6395950504698888,0.8612586511307196,0.9272663601804636,0.9363723499427647,0.9294080684884681,0.9172120224505037,0.9014594558615915,0.8858077211876989,0.8717682936371348,0.8574879141115075,0.8447050574428524,0.8365221829473023,0.8389543016819081,0.8595661348005782,0.9035108582233785,0.9351881107117491,0.881684902250667,0.8114538858278717,0.754936302336022,0.6428091141055747,0.339806455057952,-0.28120274817659346,-0.7524939207736652,-0.9071636019166383,-0.955689502821062,-0.9744695882744262,-0.9833251670701796,-0.9877226131238905,-0.9866654686020592,-0.8984127759407711,0.7254298594089453,0.8988625232101667,0.9116309824512934,0.9056517335283424,0.8964270780155938,0.8850668243912491,0.861450469835945,0.7714656289728734,0.2536956820348088,-0.6544318785866898,-0.862471044661537,-0.9046228807482423,-0.9042495397381788,-0.8666100835387521,-0.739324122583893,-0.2779482118847969,0.4552570521740385,0.7125901020953664,0.75692000843608,0.7324380529171071,0.7020002581936365,0.7053839452525171,0.7331123412340443,0.7637221348545917,0.7851820953434723,0.7960409319481154,0.7909028520665469,0.7738690257465352,0.7685976815678707,0.7934247114236129,0.8304605669496588,0.8555460723329031,0.865263782046059,0.8639846317703126,0.854868847892364,0.8472360822152397,0.8361358084030616,0.811984915024536,0.774768912169981,0.7198541018891864,0.6508753944271461,0.5803278063509498,0.4961286440658681,0.40413504034799624,0.31579320438766173,0.2220695815938129,0.1959992782704148,0.27370348037688563,0.42330425075199984,0.5841104163625731,0.7124856974644025,0.8038302341885964,0.8644174081512888,0.9038281837882562,0.9288149448251638,0.9434054757169051,0.9475267398815785,0.9435571560981663,0.9343950102709203,0.9186684822090062,0.8731241212086601,0.7504367420044915,0.5444461807576395,0.3410261622482178,0.16058776617186246,-0.06858631348878969,-0.35761607594873746,-0.6195962307860017,-0.7867489573859617,-0.8717000635197149,-0.9073851600476851,-0.9258050251620803,-0.9405455845686678,-0.9439838932230415,-0.9171930847703884,-0.8712234100693227,-0.8287728746684643,-0.80017093129855,-0.7827537897664419,-0.7691703181683092,-0.7531229961631891,-0.7403776115570423,-0.7498166475166115,-0.787115049897865,-0.8364358249165346,-0.8843094639435867,-0.9233779496920227,-0.9437276271636243,-0.9213503962455594,-0.767859998199229,-0.2572605856040567,0.36236411509866173,0.6566231316528399,0.777499749770006,0.8334923013406428,0.8615542113088938,0.8760272960020363,0.8777357904331847,0.8640146675682154,0.8355316320807077,0.8058888771624227,0.7903099254151545,0.7928822989350411,0.8098145334199082,0.8369091427205385,0.8726802680519132,0.9087787938494367,0.9321284288638852,0.9445018849368626,0.9494807838206758,0.9454542756251025,0.9219944226716204,0.8165336971505058,0.40491035856629704,-0.19678509600685187,-0.5235909946100893,-0.676769123198161,-0.7700634110132485,-0.8324923557647786,-0.8760253984800443,-0.9052778860018618,-0.9237543449781128,-0.9360191341584453,-0.9445278847475284,-0.9500065649907864,-0.9531632173697331,-0.9540823319902493,-0.9517897480741212,-0.9458033945753324,-0.9353681545444741,-0.9047419023172568,-0.7510545301997099,0.21775108476722904,0.7617580335441076,0.844552346701528,0.8636039881343703,0.8601032731820686,0.8439155651346432,0.8218287430614214,0.7755355082636509,0.14377303830227223,-0.6408140243404753,-0.6650663552095375,-0.4941601122214289,0.003345606223447655,0.5871031572308948,0.8133265606072795,0.8587773133735018,0.8317860919184149,0.7764979139400309,0.7348331738948045,0.734671389214815,0.774585899555722,0.8324853954908337,0.8855861558018866,0.9264864098845127,0.9503703050908386,0.9555238711252245,0.9476939228816177,0.9357079403788766,0.923313135125488,0.9144893860724257,0.914031510223957,0.9178586086090338,0.9202504402701024,0.9228817748217516,0.9289407281945661,0.9403664143570915,0.949817764975984,0.9406113522746384,0.9121496794516637,0.8797619554530733,0.8567024867266334,0.845678751808053,0.8400859795781239,0.8331758775385764,0.8198815278884063,0.7960836153421709,0.7570960702749068,0.7045636244423157,0.6455168946234957,0.5967022411681063,0.5600768502071033,0.5190868841158863,0.4644976223152832,0.3916517489184696,0.2986425238313151,0.18550252180488214,0.07142910092304036,-0.008210048879502758,-0.08966867980516761,-0.23349200414370572,-0.4390899216387592,-0.6588831398536446,-0.8209718075977486,-0.9052940639076051,-0.9253285566429301,-0.8866275623197767,-0.7885343900982037,-0.6483869094690283,-0.4884072401221439,-0.343377945675634,-0.25185512679815647,-0.23034550078334934,-0.24838207597425063,-0.22500510441145746,-0.02795144349580146,0.2730923453587033,0.4934448392683085,0.6046514919886785,0.6561246689426556,0.6861381083411022,0.7012136498890924,0.6753071077921665,0.45497924545398155,-0.11929737978496549,-0.4297635121196303,-0.5053640653224464,-0.5060506602486868,-0.48858188728465773,-0.4897782644826921,-0.5326441172519717,-0.6112490841978195,-0.6886829489485059,-0.7456056062060441,-0.7907333576386839,-0.82929641588452,-0.8539346183469556,-0.8685098927232091,-0.8791949353582513,-0.8897002483666134,-0.8974479262857407,-0.89871858000004,-0.8908869708498475,-0.8736326742615925,-0.8514033231199956,-0.8330456008809036,-0.8186514368253525,-0.8089225275925725,-0.8036760045750414,-0.8018080520143707,-0.8001242550653943,-0.7933134091190143,-0.7715724056749587,-0.718500843925858,-0.5704893852374162,-0.11864176745279709,0.5092336894719246,0.7293832726852894,0.795028121448332,0.8314421970564653,0.8663780253703351,0.8992450441038554,0.9207539369348113,0.929559027043871,0.9262912608832631,0.9063183015569215,0.8015284030211592,0.09942344462742911,-0.6080314329895369,-0.7164024358184911,-0.6666082741075467,-0.47222195735392825,-0.11363502787579843,0.12882754853324146,-0.18055865513555636,-0.8012203086658488,-0.9564276710709853,-0.9845204101555494,-0.9915714655250064,-0.9915592737023426,-0.9830580312830347,-0.9494346547090918,-0.8480096432655998,-0.7053559052272256,-0.713349103429189,-0.814705421885943,-0.8752691530475264,-0.8828633652073816,-0.8100893183112707,-0.036653244091473206,0.844528440121688,0.8785538815908405,0.8728812900858728,0.8868124035862877,0.9241158293913498,0.9601847248933411,0.9747696493540114,0.9740906773319764,0.9697604495044554,0.9668774888515731,0.9655384916634628,0.9621528968882517,0.9549914428293048,0.9442777818684663,0.9312752251074369,0.9165196810405073,0.8937019882406176,0.8318247970896622,0.35305599378779895,-0.9296206747745993,-0.97333489442857,-0.9684740812971954,-0.9605856981082593,-0.9509888887075518,-0.9314498278649005,-0.8675294788421486,-0.4832802456101722,0.6845682160473116,0.9407091356370467,0.9475597748173848,0.8305249997539518,0.6254068328238692,0.47643964952812007,0.433928431865982,0.48622611962449575,0.6180199708365975,0.7726199838968363,0.8803599815643656,0.9340892887088585,0.9565484588760722,0.9624484461867416,0.9578084864711763,0.9444036356406031,0.9219719940304658,0.8865867041707759,0.8297937156221413,0.7363309499814849,0.5937828219486626,0.41266940542161107,0.2416375104304574,0.12705616008534537,0.058473935802037795,-0.00772422220472478,-0.10013129405728576,-0.25688578233939297,-0.4311876389340824,-0.46218345381223863,-0.18759569223915976,0.3354057728422167,0.6710332084186829,0.7807130459114592,0.800220263475638,0.7905004403813635,0.7756301526253687,0.76443781537954,0.749418469146553,0.7293693192682819,0.7125334534778895,0.7113200798040662,0.7288251433288782,0.7589453350805443,0.7972463183286255,0.8494417050109832,0.9155407852537957,0.9577481031920143,0.8837947360852668,0.6184101626699849,0.00995070492661865,-0.6192590218169132,-0.8270919535075184,-0.8803439345194061,-0.8863301553767019,-0.8627629807715442,-0.7946965398355339,-0.6456294271193938,-0.4098913740149214,-0.18583249347278774,-0.06787795778318853,-0.05304301470786409,-0.09556394739211138,-0.1674291095850734,-0.2524492625026267,-0.3276669606454024,-0.37484416949044896,-0.3951257533838727,-0.37874810604157416,-0.27902285331228693,0.1891178121012673,0.44473844514873767,0.49818588928019714,0.5582312641389131,0.6507132829152739,0.7600463136597159,0.8460631384285935,0.893729191539248,0.9140762499508861,0.9170267470304609,0.9091977630796458,0.8979006916767731,0.8906994534583749,0.8887744001516432,0.8965277709706437,0.9176410421736388,0.9468306371976599,0.9597713149315789,0.9451066007649979,0.9219615119267017,0.893463938264702,0.8040365833061647,0.11246513244329862,-0.8430219212624153,-0.952125744052682,-0.9717949472300044,-0.9773494485004528,-0.9787118205869837,-0.9779518081615599,-0.9754342985359924,-0.9710329991629318,-0.9644796137717979,-0.956374292527511,-0.9490162457944008,-0.945516481581275,-0.9474849962614603,-0.9540368950560286,-0.9626275835620424,-0.8941006163936884,0.8095101799007433,0.9160819669117312,0.9369674338770374,0.9448661016515372,0.9454282321780388,0.9391368184402727,0.9285418500293015,0.9165551832025508,0.9025390820491523,0.8856245685599344,0.8673593035589108,0.8542174829595667,0.8515644634414913,0.862196732185264,0.8807864340784635,0.8971931128012829,0.904572423565666,0.9053605428042782,0.9071992073396822,0.913014525104604,0.9221254063311042,0.9334920782019459,0.9454499177468229,0.9541164691571135,0.9533596088244113,0.9529720782214471,0.9684344348556221,0.9812846354909505,0.9863493726892015,0.9864368711061096,0.9839990405741329,0.9801173232544772,0.9731860602126431,0.9563888587707301,0.906684728130639,0.7276587650812876,0.31310940405175247,0.17860492530074157,0.4698087387448256,0.7422986585679179,0.8588341696582098,0.9024224567586432,0.9060835398169735,0.8790786958388631,0.8583014670872087,0.8754409642334899,0.9032278736442685,0.907766746888397,0.8880129698488635,0.8441968835486252,0.7746119586063944,0.6911397917585805,0.6022912206207507,0.5048008207944368,0.3653363361173546,0.15985151733124964,-0.06461165472308998,-0.23086450533628594,-0.22743091384070993,-0.05239345961279156,0.14753172825831382,0.2769895759490002,0.3785264399159212,0.49600529675724453,0.5970671495087431,0.5320531692382964,0.3946579421580978,0.2811061355552272,0.18748334669713293,0.1334401404073045,0.13056917826709488,0.18367054961255588,0.2647530256275868,0.3393976595588218,0.38626541281252563,0.3790900660000733,0.22881815907992928,-0.22096482070303056,-0.6885511811012064,-0.8738025972894915,-0.9241174648508464,-0.8960889073586475,-0.6504253589981828,-0.2882696840219697,-0.14516351357370025,-0.1978611020064011,-0.3756106660244264,-0.5182473700432562,-0.5568997472648579,-0.5694629702657819,-0.5998646669350682,-0.6476880378923658,-0.6854486172814412,-0.7049371234520165,-0.7139518039105014,-0.7220435061700033,-0.727745404194455,-0.7217686788852717,-0.705642829391585,-0.6983429736939447,-0.7179918343273889,-0.7507839433197744,-0.7861222279338671,-0.8267882679297891,-0.8640589923420465,-0.8798157098095866,-0.8815012542710513,-0.8834062222724598,-0.8896968297992045,-0.8986075873598075,-0.9017811188708428,-0.8914661064945026,-0.8531954577494532,-0.7523740748569951,-0.5554693160385914,-0.30816848089937476,-0.10276013298107751,0.006414456649002108,0.04528297019980536,0.1022858765334585,0.18329112771781314,0.2514607377947232,0.30939787526582063,0.35662023239031554,0.36567726164878145,0.3205670572042485,0.260560499547974,0.2138603963685068,0.18650027541210432,0.1809618130449141,0.2092290263483511,0.24661997955382067,0.27691923275900965,0.30922873742198104,0.3476574471023065,0.39447860849547034,0.4478561764010727,0.475041530556712,0.41505489400825374,0.310275961589291,0.25785789641995044,0.2587033182358018,0.28030316046687764,0.3025980841156707,0.3331259669554515,0.3503526767260825,0.32038398083590625,0.24425118002857502,0.1500373106952747,0.07612373626058738,0.035212221788399355,-0.00040467420083207135,-0.043527934662469986,-0.04752874189727714,0.021055269085740718,0.15358706823158383,0.30781921112024135,0.4458387162227004,0.5169562397230706,0.5325292663364628,0.530920661140546,0.5336157575426435,0.5535026444107125,0.5917294772505908,0.6260401531848215,0.6382058194264238,0.6338386227650975,0.6338966621459439,0.6398282487735505,0.6363417745157993,0.6243474257869304,0.6189278359670356,0.6391393325711701,0.6600254200799803,0.6449117790268211,0.5523999372604309,0.3687038585007796,0.1607295843846677,0.005654929051979678,-0.08158356316369399,-0.12562956654182877,-0.14686880711462796,-0.12432951835459027,0.04486663676894827,0.2710659849815262,0.2663825964324236,0.10361973659854214,0.009183492991885015,-0.026038231298652327,-0.047622841040599634,-0.060730917678683896,-0.04570274756517222,0.014861487630878592,0.10513889825669119,0.19684542306425185,0.2464580162315852,0.2563102068521073,0.23926896533351788,0.216026397065071,0.23332324541697916,0.3133626295136698,0.44903862624956475,0.5900773156747057,0.700149048066705,0.7735940135759981,0.8256323410685474,0.8641559280137726,0.8944275973399693,0.8997890132719737,0.6765276091304838,0.004600777930757106,-0.3645765462189542,-0.5079821193537427,-0.5921906558281362,-0.6829462337188562,-0.7785966806612848,-0.8300552456515562,-0.8179940163405446,-0.7580108063037226,-0.6807634280261282,-0.617053869561161,-0.572174282332789,-0.5381582225684243,-0.49788320308428885,-0.44559916442381897,-0.40073099577299093,-0.3733350820170183,-0.35188626422688923,-0.3353380947422212,-0.32168835650418465,-0.2931576391544869,-0.2695734167723878,-0.23559282593939704,-0.1522788274500973,0.05717888297912946,0.44395046950216843,0.7695585236865009,0.8731416972825199,0.8948672260138928,0.8947334463556258,0.8873241789853071,0.8754307555577293,0.8568448754820391,0.8336067781974491,0.8058266363558468,0.7664322254729352,0.697907413262259,0.5781730115823416,0.40355454783637495,0.21050308398100004,0.041629295677946286,-0.13006878825133394,-0.4397041207549711,-0.8309843346756998,-0.9640623927438621,-0.9846448606728034,-0.9867214684932645,-0.9840014213190426,-0.9777275619159024,-0.9698268449302092,-0.963058865095573,-0.957396544193521,-0.9497342946326509,-0.9373274875692048,-0.9195318676377782,-0.8952125045445217,-0.8613828942114816,-0.8102343227478632,-0.7255517503383008,-0.5733024522391647,-0.33558724144026514,-0.033951776038514764,0.27728137766865246,0.5744601840814337,0.8066925002818327,0.9300457979899089,0.9718112275667982,0.9725680282464575,0.9467658411551829,0.876152553613167,0.6238949812040562,-0.17644110421771267,-0.7389240357912346,-0.8748598993494774,-0.8904329347649256,-0.531997234904211,0.8633300127659888,0.9299439858786167,0.9294412853850998,0.9139472821705399,0.8903975994606492,0.8659437465566612,0.8479823112992957,0.8437304529123025,0.8531209991656514,0.873804503455049,0.9050948828040277,0.933547366009294,0.9494568856013259,0.956751812614137,0.9604491320769981,0.9634766400366793,0.9676538860861899,0.9728610396052723,0.9775563950736597,0.9775336897921493,0.9650704526277952,0.9322551922788106,0.8705467462541131,0.7771436278106388,0.6799240003072136,0.6094780408316998,0.5701817635984188,0.5536019167635895,0.5702981988437548,0.6366148233372474,0.7443292211142628,0.8451011022389721,0.9064762616685109,0.9354909863889799,0.9481244956836008,0.9431341921030927,0.9068737286441347,0.8248522847761993,0.6989652722964014,0.5584848794457113,0.42746829458157254,0.2974662182430768,0.1232487458497209,-0.1883851460765466,-0.5960833952866084,-0.8519438495362506,-0.944859614909166,-0.9742710271579544,-0.9781443641272245,-0.9445549749036891,-0.7075114548023974,0.230961109650408,0.721689536291572,0.8204538458226571,0.8155661071162192,0.7593827472310983,0.6772339614026265,0.5786949943398296,0.478065971268067,0.38381237856523004,0.3131752585877305,0.268539405621597,0.19694188064058335,0.021877622619219935,-0.259650231654327,-0.5297938360834649,-0.6991858284343848,-0.8040734413399111,-0.8843110849294601,-0.9410786572734701,-0.9704089228437994,-0.9810596304070671,-0.9821047103412031,-0.9786914565294575,-0.9719967699776733,-0.9523892871849411,-0.9036959707125719,-0.8513101846555785,-0.8256787771947034,-0.824755216690296,-0.8322569344425575,-0.838023854352186,-0.8442366681609159,-0.85873302289227,-0.8807697535644914,-0.9021649708196016,-0.9176569754364202,-0.9276258547477071,-0.9351430771869212,-0.9411288616448686,-0.944460545627676,-0.9428669912155604,-0.9310043728775822,-0.8892696351653212,-0.7500464134244875,-0.2949274184258483,0.5072665568398579,0.8741102989521101,0.9580667410943092,0.9683285172257479,0.9597130764772943,0.9485602211055195,0.9394747391520417,0.9309159906410597,0.9222852517159524,0.9145424301737846,0.9107704077948929,0.9111840681515179,0.9121542714591245,0.9127425676269851,0.9121965151364969,0.9109957859812435,0.9093159781056804,0.906242348611356,0.9000910052437724,0.8893225665045735,0.8746044387207398,0.8591066943941902,0.847392867087555,0.8401685530546696,0.8377683575191228,0.8393389847080563,0.8434847335200573,0.8480442574539252,0.8519758636700134,0.8526327564725724,0.8432835514039632,0.8175290176707558,0.7802088947678043,0.7419433982152698,0.7054395120058098,0.6759665741758933,0.6675957150741063,0.6838466056782839,0.69456867209034,0.6993355791121199,0.7005025631981718,0.6986598721742466,0.7049963988144022,0.723826723965183,0.7633817335739497,0.8210698978557941,0.8556614606103999,0.8371121763474959,0.8027351686753258,0.7808471668906286,0.7686455180789293,0.75330293268451,0.7103783844379883,0.6008493185067478,0.3507937500571768,-0.06982798284019935,-0.45703627819780196,-0.6292360943306126,-0.616702705312694,-0.5159429577926188,-0.4970893370119215,-0.5841260742743433,-0.6969348168122019,-0.7754833842313972,-0.8115423526983997,-0.8060428166315423,-0.7372170916581937,-0.5654410794695685,-0.3754727204966983,-0.46719584855891527,-0.7356395675444088,-0.8752048048251397,-0.9264155536586648,-0.9392560223593514,-0.923416137421824,-0.8601549429411003,-0.7499646788938215,-0.6575247567240956,-0.6399317194114928,-0.6874592261606041,-0.7630244117105389,-0.8014410780117771,-0.7573721204281513,-0.6109875030940858,-0.35447487763095537,-0.03492489902011975,0.1931088617816607,0.3013156510171747,0.3611036163828858,0.4018560215497239,0.4185762745621569,0.40256839092819063,0.34122992941175956,0.22565729204102164,0.0798655839503198,-0.03507678478470901,-0.10742167505802247,-0.16651849764264653,-0.2690242944725811,-0.4367159471183462,-0.5962416340470723,-0.7057520402852872,-0.7708108330123282,-0.8201799669475457,-0.8724035604065186,-0.9224414678927817,-0.9560916691582467,-0.9732960185882977,-0.9795886627577798,-0.977724197654809,-0.9625612593057411,-0.9059800393264231,-0.6286415938086825,0.06561118292209889,0.3033935245566604,0.2323398156975699,0.09213114574079993,-0.0002501465062198238,0.006853333713024108,0.12571688426936153,0.29155976642982206,0.41221678307745546,0.4732554924977383,0.5048103699342268,0.5456685182385297,0.6121491652358034,0.695571212175546,0.772393503535347,0.8270863399869143,0.851330149668733,0.8332866948897651,0.7779406187645745,0.7240098362121465,0.7059408040213359,0.7270483007388746,0.7609163242689414,0.773440090047915,0.7604155396959925,0.7442620496206618,0.7246923881739974,0.7013501240997064,0.678771941408042,0.6581296871215947,0.6369486504838469,0.6189550803017887,0.6190773296809305,0.631021540849249,0.6483787631497163,0.6673282131614381,0.6917221678142944,0.7186030100796977,0.7427464729607078,0.760091144099907,0.768820592432962,0.7633706383285762,0.7396260214547553,0.6992684405889547,0.651884433005698,0.6211382335793219,0.6244530826990909,0.6595675629104111,0.7066752993389425,0.7423851193240717,0.7291777941348099,0.5132645641396804,-0.1710803186977292,-0.5426211765041927,-0.6678356575090333,-0.7494037965950407,-0.821567409151776,-0.8771439699055393,-0.9128493159872232,-0.9319437369434163,-0.9390134515815042,-0.936723978514448,-0.9251423233263826,-0.9033960265850136,-0.8718521249917486,-0.8320521985127006,-0.7839633381900274,-0.7268981345048281,-0.6728286188192005,-0.6715576568633308,-0.7589959445411142,-0.8593099077532276,-0.9109370662753334,-0.9231367817385794,-0.9012035922008563,-0.7908994042283551,-0.2231054879330622,0.6386353238825843,0.8529423113191562,0.8988870348502362,0.9099128565989739,0.9189960956591307,0.9359703313335702,0.9520984066461948,0.9594881071347385,0.9577001892958614,0.9456040103574922,0.9153176944091528,0.8578563054067243,0.7937052056268081,0.7814786672781826,0.8266827005658178,0.8841135518330391,0.9280874618553259,0.9546927398116735,0.9628419164885248,0.9409120652956322,0.8397446128585108,0.5107706682094398,-0.017770557195423,-0.26608987942047213,-0.15460074066724352,0.2606859019357744,0.6438423239919138,0.8117025595157981,0.8763401141867959,0.8988868883718201,0.9044179446438875,0.9066979098919368,0.9112431946836955,0.9173528564723055,0.9178440094633159,0.9085632180907086,0.8916568276129629,0.8711673953497173,0.8484775707462998,0.8257760126319427,0.8041511699764543,0.7823724914327688,0.7647980544807846,0.7554262872601737,0.7577792498870599,0.7714368083231965,0.8004337104517306,0.84184326888062,0.8762664332465562,0.890919100095365,0.8945957939632396,0.8855018205675244,0.8552338046176825,0.8105148761402133,0.7690825770088769,0.7405892565902052,0.7230748264034611,0.7108877573764543,0.6947548833871707,0.6735776973900812,0.654215339334924,0.6422489416707311,0.6350055483488077,0.6230801555792332,0.6011278417945393,0.5724554934636545,0.537012097741673,0.47082132220185463,0.33496277304106825,0.09596562830373728,-0.17791257570693955,-0.35941715496500876,-0.451635976879329,-0.5035626323452468,-0.5537984496632038,-0.6013675742077714,-0.6269333604521852,-0.6408698871505762,-0.6625219851326509,-0.6866261853998191,-0.7021772377068152,-0.7125134715776689,-0.724791723042496,-0.7484743164545938,-0.7826270989958148,-0.8179603801867942,-0.8472850745798136,-0.8697764327140404,-0.8878840081851891,-0.9122139425364039,-0.939097146127354,-0.9593553730094669,-0.9708585086031112,-0.9756104621408601,-0.9759949749289827,-0.9732674471994424,-0.9663187679562119,-0.9524629746765855,-0.9264140300529766,-0.875711361141616,-0.7844635674560357,-0.676987370917428,-0.6254890880619265,-0.6318392776385889,-0.6374293626904096,-0.5764319956366495,-0.3627077785149732,-0.15395238956756413,-0.08792979780597314,-0.07866510338033307,-0.0871290706095734,-0.1252401627701687,-0.22363277582680915,-0.40373381540924486,-0.6253438779419286,-0.7807777000961309,-0.852173403173285,-0.8678037728689545,-0.8368906940933043,-0.7408821623706446,-0.5477693375501939,-0.2829843153040147,-0.03940734392853402,0.15694798996192935,0.3398259401879237,0.5147698477928578,0.6888949289817224,0.8366946959070961,0.9261547665047554,0.9633840662065838,0.9756885894045133,0.9763329026749452,0.9626806204283991,0.9377480147428628,0.9106959351733978,0.8891933586709676,0.8704861701035265,0.8456781064397697,0.8109752224647228,0.7682683872021445,0.7240014225996619,0.6906494649019895,0.6722666650819027,0.6624719011170093,0.6468808917161932,0.6084938426310293,0.5299409781222015,0.4086804948069054,0.2606021963450651,0.09663000192507512,-0.09631424783743177,-0.31639420716380945,-0.5123451450957457,-0.633592517366052,-0.7058532750246165,-0.7632040630300462,-0.8125717039126915,-0.8492769741666778,-0.8688937663213819,-0.8660128820511925,-0.8262047941138025,-0.6484822736477074,0.09966364276009185,0.7193770864583857,0.8651488091409583,0.9151720483840788,0.9388932852591234,0.9469886561978353,0.9361447896798225,0.8830767757610336,0.7424899133855989,0.3993605608087694,-0.24442817420868096,-0.562811489123749,-0.4556018076212564,0.009464341911988293,0.5628070487339595,0.7655833465039918,0.8250491750892698,0.850761155874048,0.8687212428344389,0.8895906663434004,0.916476585598926,0.9431709414685675,0.9611867906581704,0.9695332489256457,0.9730512204912563,0.9758949969316835,0.9789371964004958,0.9816810106647925,0.9835326793613639,0.9827375541887768,0.9752199920272832,0.9512039215587695,0.8648860626528512,0.37340463184005546,-0.6559425826162981,-0.8861257659274935,-0.9309884623083707,-0.9421927912498562,-0.9425311179494069,-0.9375191209091295,-0.9290775144464155,-0.9196839117191173,-0.9148451855430021,-0.9192566075662288,-0.930004976522643,-0.9397205245313541,-0.9429570166546186,-0.9321910657385684,-0.8657554760597976,-0.30842026087275315,0.6776064674095685,0.8489920071569683,0.8855468023829415,0.8923827525091028,0.8810782453636488,0.8540466251856893,0.8225179209025033,0.8058176107402188,0.8090402382156038,0.8232903179038837,0.8382922569551597,0.8486226551821607,0.8546177206769922,0.8572211679905327,0.8553295991928038,0.8497894368035075,0.842247886959972,0.8313791424285055,0.8149450849066505,0.7920903514524384,0.7668660432195928,0.7434537089848707,0.7257032751267574,0.7162923118306003,0.708148198240523,0.673516177011009,0.49273546535128754,-0.42396803085549606,-0.9304045628680093,-0.9743187832674375,-0.9800590054680227,-0.9805927944148122,-0.9748175309372521,-0.9318886160700482,-0.5558116444308302,0.4473366552764729,0.7515971401037133,0.8320811174660365,0.8655848852516439,0.886406463049747,0.9005773913230103,0.9035792206850383,0.8874491503114671,0.8418879395702248,0.7331258025228845,0.46992931392117787,0.01282419436918761,-0.3491128533823754,-0.4916552809660943,-0.5154820042883244,-0.4968757220421266,-0.4916215368894759,-0.5201035954902365,-0.5459396561455557,-0.5099872096031752,-0.35271481704492413,-0.053626753584247275,0.17310084113213375,0.0424966609487738,-0.4841577366548693,-0.7883276063309043,-0.8688919482714879,-0.8931128946213676,-0.8993128562243221,-0.8955285812863842,-0.8783691691091666,-0.8351371482639651,-0.7416507899150303,-0.5559166122160955,-0.24702118484944116,0.1422906038566736,0.49890252057782414,0.7450779652464482,0.8743859594657288,0.9271451044926546,0.9442388161934806,0.939212862138363,0.9021116511785543,0.7303523687993659,-0.1631001712078638,-0.7786181586234033,-0.7467645079361621,0.08335924402424835,0.6142327248636577,0.7148038146962049,0.7441730393566252,0.7590983847356086,0.7737290876850601,0.7860944033895891,0.7981575558432276,0.812369368983739,0.8324102300701581,0.8614409205731952,0.8875957163268582,0.895054813249317,0.8801426604524448,0.8365163325830016,0.7587992652459791,0.6511268231160849,0.5484140681711487,0.502475549045557,0.5037622871169578,0.4912117035010505,0.4306444045170259,0.30070642164355943,0.10661748808973173,-0.12326530293213585,-0.3800945802660276,-0.6829289701558202,-0.8933248434997744,-0.9603068952865327,-0.9778851307818887,-0.9832346534993489,-0.9850710822024107,-0.9851478057881984,-0.9834527420696465,-0.979306589914195,-0.9723191034649514,-0.9630100823801897,-0.9521111052275079,-0.9383783276725292,-0.9182472037885631,-0.873224392239887,-0.6618207901071491,0.5139153655755998,0.8838133111396541,0.9056042873711888,0.8672727813464544,0.7714718196481234,0.638481903221832,0.5852934048772992,0.6607804550330132,0.7632127594852748,0.8322764531532473,0.8758518183678184,0.9062574740454974,0.9287896251069687,0.9403621303038725,0.9387037665932534,0.9285854543739838,0.9178652947189192,0.9114914584818434,0.9153305249906256,0.9295892853093923,0.9451030055942672,0.9485732380435012,0.9167136435949765,0.6444328406981941,-0.503931928519696,-0.8195518408175279,-0.8569777248533038,-0.8227944088541304,-0.6634123458610806,-0.10935096075730238,0.5821412810581299,0.8317611596716283,0.9094551655490056,0.9362636792376401,0.9395453748875451,0.9310339696516231,0.9172935066811985,0.899336197256491,0.8740698410554723,0.8502618827025906,0.843581844690095,0.847837244642907,0.8218784886432708,0.7537949440372982,0.6723957834771911,0.6036558266843535,0.5628108940799008,0.5615650079441196,0.5979861685195248,0.6496933710789833,0.6900813317408196,0.7011343831562129,0.6734562594793871,0.6056670146995414,0.5179050659056164,0.4542493544963875,0.45707472428383256,0.5166608764104531,0.5999661938177369,0.6675673497195352,0.681180038242012,0.6292444915675528,0.5238226616700045,0.38468838896934876,0.25033352044859597,0.17569080008184376,0.16342306865022355,0.20064209758222226,0.2506241567520951,0.29685632222207364,0.36338377764670865,0.4558608243626143,0.5585208361856893,0.6437221017988864,0.7074678401986028,0.7597252605219516,0.806513705554709,0.8498585092563373,0.8733556972114112,0.8738649525457294,0.8444845334848359,0.7739346109004581,0.6582907039249042,0.48065893140083316,0.19278295692294908,-0.23770366800147943,-0.6387827097519975,-0.8523810758559639,-0.9342649460705448,-0.9613449565509892,-0.9711500810812687,-0.9753064837275401,-0.9766702225329082,-0.9759100328387954,-0.9732264636317217,-0.968511747431973,-0.9619207326085606,-0.9527671779421998,-0.9393316975000543,-0.9189911061037846,-0.883926380132069,-0.8199996445007421,-0.7146997889042535,-0.5787037189527694,-0.43432104865980653,-0.2905719159637915,-0.1369984242305964,0.034515092334800664,0.20141808594598326,0.30399885663397863,0.3525186859097263,0.44706702047747315,0.6670899096869606,0.8964496134875876,0.9840492430729434,0.9856400366700746,0.9720754567185587,0.9591974535206433,0.9456498235429376,0.9261327724649527,0.8970461426616023,0.8567157454267024,0.8118169694791698,0.7693095828334152,0.7261828216806946,0.6811762421347213,0.6296696529853453,0.5512149571185544,0.38885242990062907,0.07394528652862307,-0.2792070093350755,-0.5506370609841793,-0.7626068916738508,-0.9110011196534851,-0.9657920112120564,-0.9525043193444813,-0.9095031508704533,-0.8689343776462722,-0.8522284555700379,-0.8620852993873638,-0.8844764804987573,-0.9057091389534204,-0.9200613635382414,-0.931946052215761,-0.9420189734442983,-0.9523069638787796,-0.9635161821053511,-0.9725026131430562,-0.976128982397025,-0.9730437249012318,-0.9614844835398094,-0.9262947007058178,-0.6668676374617531,0.736901370163128,0.9303770370828764,0.9508676536133678,0.9538453990674385,0.9543506418700004,0.953274692028799,0.9391098850485489,0.8879095938292564,0.8115072291212245,0.7629827784890397,0.7454790335615318,0.7312968116926946,0.7045892992500465,0.6810683145031293,0.6881815327258751,0.7360810806521771,0.794156151750524,0.8297748081848991,0.8375116160391479,0.805937755039888,0.6782571783422836,0.22341741492832531,-0.616408491980057,-0.9128468329438649,-0.9622526977949032,-0.9701575465632211,-0.9699421895585892,-0.9643140314224828,-0.9216978222753558,-0.2707578709800228,0.7341498012564287,0.8511825871435685,0.8732471597103557,0.8804346362007607,0.8878759639077463,0.8941361005708283,0.8941624134478993,0.8892979997047462,0.881140553277828,0.8702583905406436,0.8561660072956397,0.8425408921784419,0.8337064932698898,0.8345607930782388,0.8476655522426798,0.8716052432829369,0.9022526084729993,0.9304529649264609,0.944995423665842,0.941239326264092,0.91651292930557,0.8693126143711399,0.81465260219229,0.7630615561330274,0.7150322581244223,0.6616505131830452,0.5958992212897208,0.5134059828029632,0.407168966599489,0.2540009199752295,0.023160050940411545,-0.2381379764427006,-0.4435206343696552,-0.5796926651220834,-0.6728456772272569,-0.7624922264069842,-0.8384677937716052,-0.8127770333767649,-0.6709782699726612,-0.5537981040333313,-0.5290445101183315,-0.5815911067395103,-0.679706738712928,-0.7710434436399977,-0.832551635440769,-0.8697193195505019,-0.8925153546410826,-0.9017880539936661,-0.8938601423949875,-0.839327601700195,-0.4268310900461219,0.7362188077802798,0.7000405027548484,-0.10905927604866894,-0.7337070998808148,-0.8845419366198446,-0.9320158973892226,-0.9508362870069773,-0.9587317759164506,-0.9600579635220697,-0.9540006718863681,-0.9302663112438869,-0.8382400906061163,-0.5269104827407027,-0.16666586438371866,-0.06841832475757538,-0.08681501991661791,-0.07213112316769141,0.051794251898662116,0.28248338872215856,0.5053163766449947,0.655316096440014,0.7434992956012443,0.7896313111183809,0.835137397370906,0.8736831929352282,0.8874203500148187,0.8761335305910025,0.8610316866800354,0.867538063913751,0.9051150764036587,0.9482569608849213,0.9727531109855218,0.9802130807223691,0.9778186689494494,0.9711353137545979,0.9589627729543296,0.9023780174829136,0.06088359791607258,-0.8655220152119929,-0.9395866730204133,-0.9499527505370874,-0.9342066870755438,-0.8505597393069428,-0.40652815853925384,0.46272721168264014,0.7542183310418784,0.8221270580995319,0.825986286140323,0.7990247809835371,0.7649221149734724,0.7438719024142251,0.7475738650111626,0.7721013466094925,0.8036516005193327,0.8298426655531363,0.8480146620373538,0.8590165762763613,0.8567568348933162,0.8151437760336934,0.6504645825926166,0.16961090236801765,-0.3054922702090599,-0.4517329011000888,-0.44959575350240893,-0.4015666389172162,-0.37111575604149544,-0.43331844710550926,-0.5841652586958588,-0.7187584715506583,-0.8016157840716032,-0.8477342158816656,-0.8712236440113101,-0.8774115435290774,-0.8639499328198409,-0.8019883346503762,-0.5038378846601002,0.3153757923326039,0.5868153144327993,0.41438834905174826,-0.5159013088414911,-0.9289517922400019,-0.976922601278015,-0.985715743395347,-0.986380544043002,-0.9828402221764858,-0.9746763788742889,-0.9609515257416112,-0.9406838399562797,-0.9010646713027929,-0.7720290301824343,-0.24251130950273433,0.485778859240135,0.7511962583672166,0.8596004495729479,0.9258190152200338,0.9623906723554924,0.9728133361154215,0.9695384546916597,0.9658148543312852,0.9643123826680867,0.9641655336404926,0.9650198929168888,0.9659318837015767,0.9661115010776183,0.9649722054650325,0.9617778484242452,0.9546296762178824,0.942236043600577,0.9228396749791203,0.8915471777168714,0.8464207583755653,0.784296701348534,0.7079696909886337,0.6202986311871703,0.4680067885981318,0.03305305203601338,-0.6741837010778159,-0.8895712514550022,-0.9028994015344975,-0.825560386906395,-0.3776114780252054,0.4624096368524309,0.703400018500196,0.7527113205928064,0.7643556557273988,0.768302946215619,0.7751835995106744,0.7870254111481249,0.8006845297501413,0.8099403791983841,0.8114340199452829,0.8062238309790576,0.7970501239719081,0.7824020896100506,0.7634938212486395,0.7507913356270838,0.7562197499275622,0.77298584734246,0.7851420660181695,0.7788056982156703,0.7528011962061617,0.6976653221481074,0.6179355198891603,0.5403913967960801,0.4756581354757585,0.4145086571921631,0.3582113617631611,0.32511258348879846,0.3328549611897104,0.359672451168684,0.377567898640735,0.3436288093168957,0.24637344975311387,0.11775042023611264,-0.024723989131644235,-0.1356958055256086,-0.2101400645002721,-0.23628494373418263,-0.1926072805583065,-0.10145188199876312,-0.020710316795789212,0.009231067409468562,-0.04535240962861661,-0.19343862859437222,-0.3960957095610935,-0.5672560772902547,-0.6703725287656902,-0.7024521935105137,-0.6833549934507749,-0.652288543391932,-0.6507988883780332,-0.6917660301901235,-0.758047281960729,-0.8165932766910017,-0.8432621650506362,-0.8244076600821525,-0.7043042600628437,-0.07855447545294017,0.7053468453147382,0.8374874227476069,0.8481304298228008,0.8249527525827315,0.7833308806227414,0.7347110170945007,0.6930898621877828,0.6638521133613273,0.6328000586161998,0.5963025342243294,0.5593557692493394,0.5166435615126418,0.42958046112518367,0.2305825274562256,-0.1680526569145733,-0.5825987686724338,-0.774788357278663,-0.8484218331567903,-0.8789899748587005,-0.8883494266023763,-0.8757538329653632,-0.8291395158355707,-0.7434059509134295,-0.6926372602141493,-0.7793885438077737,-0.8960090791095361,-0.9511853037411618,-0.971619533037403,-0.9795618147016262,-0.9823304234765508,-0.9817830126825997,-0.9770664026726691,-0.9630227811664434,-0.9102854363891226,-0.6403988433666712,-0.07981250071240803,0.09091042059972389,0.10109372292663069,0.21775349085814805,0.45504830424424564,0.6724070745853691,0.8009013691905837,0.8689530607629226,0.9098922768534679,0.9294155101805586,0.9246864565719588,0.9092455681298565,0.8962039328853783,0.8870425132177745,0.882716339861732,0.8799463676049087,0.8803559906947745,0.887413993806358,0.9012432860531606,0.9135038243932209,0.9171287832722748,0.9131380088810604,0.9074564941121728,0.9065133526033782,0.9104497559228332,0.9194466891288553,0.9316460880568905,0.9384498106190227,0.933134596547188,0.9172560424712228,0.8964257979494312,0.875678458097611,0.8590509974450881,0.8493223062131791,0.8477130324517523,0.8579019368579442,0.8801235975177525,0.9096686651766371,0.9082519104951913,0.8661352687746171,0.8233691923890316,0.8040386396908175,0.8050176118584629,0.8288666650666863,0.8835990481910864,0.9233949633192597,0.7135822057193387,0.38114156551140943,0.2035155645584798,0.1158010413736766,0.057493960921178776,-0.019807872758320376,-0.13621043713075673,-0.27711920511611404,-0.42388925252640147,-0.6139591401175373,-0.7757559123475991,-0.8145027473905814,-0.7981468375485204,-0.7643213116776904,-0.7049188597379356,-0.5895381123619148,-0.39850505202769604,-0.19274441364556646,-0.09467697965544543,-0.16726335818356347,-0.30016323944055967,-0.3856505975946936,-0.42024172399976245,-0.4369315937001352,-0.43817700474078064,-0.4203361366684407,-0.3695012558623082,-0.26084463819602816,-0.11494859576774004,0.017186482358702973,0.10622996935847095,0.1488428270460337,0.13760666636895214,0.06380494494825165,-0.04984652367021636,-0.08422270313884343,0.14326168861623448,0.4417767093119871,0.618719814542057,0.727349449993139,0.7861466011999863,0.8168212394781217,0.8355731957438367,0.8447028254791291,0.8476435135856588,0.8485992634368196,0.8655245965728389,0.9030237373280512,0.8531983075381395,0.7286448078257843,0.6679064985966022,0.6693438846123201,0.6687427070545058,-0.07334457673514778,-0.6387995933775156,-0.8193843111686627,-0.909279664658725,-0.951550541322518,-0.968841303868875,-0.9744127552616162,-0.9741034550557329,-0.969461632575008,-0.9604141406483424,-0.948190106073061,-0.9391412732227903,-0.9387411077750405,-0.9436040836949205,-0.9468886262824516,-0.943276295874003,-0.9274620671692604,-0.8986195192375959,-0.8755949164669911,-0.8803102626842657,-0.8998536930431221,-0.9163290981874007,-0.9243056216623446,-0.9149917018045006,-0.8505319422892306,-0.5410356267031499,0.0210151570085879,0.3206548854539068,0.46405944062183346,0.5674478571466761,0.6645886377328215,0.7641688035606373,0.8539528012309093,0.9226109155016994,0.9625440426207027,0.973027076271848,0.9548778863215833,0.9116053439238051,0.8647408957833391,0.8447866140503059,0.8526398784207206,0.8565060763735562,0.8434640247660153,0.819545654153207,0.7958802880815887,0.7790745776750594,0.7723986397520625,0.7690276892257496,0.7584252282735191,0.7266918756658922,0.6629634566892306,0.575630629265072,0.5002385970277594,0.47649402942414987,0.5091364433272626,0.5744029911408737,0.6426503952056075,0.6993779610787052,0.7393434079964801,0.7632597447754321,0.779805483834761,0.7979140678549761,0.8161785057542403,0.8304663973694429,0.8392808828037357,0.8436898099539121,0.8436219969833627,0.8410645399324953,0.8314440339296865,0.8193259332526632,0.8116318835558677,0.8036537144525125,0.7455102516974171,0.227287022639657,-0.6315404666256768,-0.8286630836779352,-0.8900061451995491,-0.918326267441798,-0.934007810167754,-0.9410399950082934,-0.9385880273303325,-0.9095464519952383,-0.7321418787889895,-0.06683683179104023,0.24058515576110603,-0.022840504848171315,-0.5375970204970336,-0.8198017410613829,-0.8978781398540365,-0.9154103235184932,-0.9166034022812607,-0.9086504639579135,-0.7961667682251726,-0.28272404340196244,0.135093578239863,0.26887783836015167,0.28700265992094287,0.265531113350036,0.25213739679551667,0.27444913822567607,0.3346102179474776,0.4020924553680309,0.46389801709495504,0.5189182826771062,0.5738086748894727,0.6218840118812222,0.6449234380335318,0.6272115946406976,0.5674552362810764,0.49291658798714144,0.40841154573688826,0.19883904348813813,-0.23918295905266324,-0.40390873052961346,-0.4137885291828144,-0.4078829572496666,-0.4480856605955819,-0.557647835411968,-0.6899057612917116,-0.791596792320862,-0.8461662978100806,-0.8643203742114689,-0.8415917162052695,-0.7330717945821672,-0.4197965882523939,0.05664023881065195,0.4001561988720289,0.5995650594862049,0.7324941890019238,0.8302272705667962,0.8857734978086556,0.9000921798630016,0.8928876262493677,0.8830478514486557,0.8724329364125265,0.8555968819788371,0.8258090370810375,0.7582860883233784,0.6185500593344018,0.5628700704297332,0.7106420542346926,0.6902024113801845,0.6567574067592546,0.6509983820507017,0.6571141001859837,0.6600770348454532,0.634299872099158,0.5151721788941597,0.1412298325659334,-0.35333767187657916,-0.6089395965699379,-0.7493829812802061,-0.8327262179880398,-0.8763360320016358,-0.9019886828066059,-0.9216555546024355,-0.9408436695142937,-0.9596456450872003,-0.9699881694075235,-0.9074876261803801,-0.29547251337885755,0.19470362342830935,0.10766602159220091,-0.1270944280280042,-0.36366802876417476,-0.5900573702479915,-0.7866270025056626,-0.9041022855762926,-0.9500546565144425,-0.9629342068440422,-0.964968659730759,-0.9608243023748083,-0.9514891688120594,-0.9370596227610765,-0.9127881383004995,-0.8597713317239482,-0.6650664804760594,0.11310687242987791,0.7179110678306365,0.8835864992833173,0.944478191130164,0.9682755572027735,0.9773246249702889,0.9808727553963211,0.9804834370301794,0.97660130625743,0.9718348668830598,0.9711105573281769,0.975529283600577,0.9806370162455675,0.9824662949376621,0.9801225523036274,0.9778961637343558,0.977715260436744,0.9801771300574889,0.9840920850694285,0.9872509490522395,0.9875134390201988,0.9771831654256846,0.3749104922433572,-0.9649605934268561,-0.9856497973672352,-0.9887075166295256,-0.9869434691238059,-0.976258333693417,-0.9174926734766156,-0.3476887472207711,0.6792140798220416,0.8379235141414783,0.8395394988966524,0.7680453190293797,0.6606887268662335,0.6098505364719299,0.6337544890241947,0.6855029813685575,0.7306665223282189,0.7578814472897913,0.7655107095423801,0.7463852251772444,0.6891986843773856,0.5956669292229098,0.5304415415589682,0.5679876532394617,0.6460320856818882,0.7093607907351694,0.7548093362329452,0.7924413208544392,0.8274449171227769,0.8543669156147434,0.8582480865332076,0.8391789968554498,0.8012441201819852,0.7176622428377766,0.4554582960265585,-0.3278526574358098,-0.8216333213098618,-0.9074668075578383,-0.8923720120989205,-0.7498287540012598,-0.2545168190747913,0.44205634855936343,0.7874959124193108,0.9069222224586049,0.9358507618602384,0.9243073654643602,0.885852476986372,0.8285831796686376,0.761313354280153,0.638750530208487,0.3861165516539779,0.06987344151187694,-0.14464471691020747,-0.2470197785992264,-0.3566697498491698,-0.5369463357387535,-0.6587282388761315,-0.7062154841283853,-0.7206516174633235,-0.7215629392310261,-0.7101106831263159,-0.6797595032088455,-0.6080513665175084,-0.43933579385852023,-0.044715715880491946,0.489260957152602,0.7455129333105532,0.8203909512069771,0.826595770686633,0.774360481595347,0.5609819028876318,0.14350464853959755,-0.14369870389593561,-0.26011837762236856,-0.3095603398716412,-0.34851904816455526,-0.401234486523829,-0.4573073213318431,-0.5117673957255537,-0.5662752180945452,-0.6143879549881205,-0.6607420404243554,-0.7154791708921021,-0.7844713841180355,-0.8442908338893904,-0.8280204640840068,-0.7003575755985065,-0.5021105830135042,-0.27150055553843394,-0.014602188204383297,0.25317772175411046,0.470488007165872,0.5972427823668363,0.636907411277281,0.6342047265359027,0.6224497268483163,0.6253700200375807,0.650063806258504,0.6842907994294085,0.6853541162923009,0.6314652694439057,0.5401866686041769,0.47910555593272247,0.4822609765000931,0.5478311921328293,0.6455500193808182,0.7122957229472409,0.7119326099338354,0.5737763113940434,0.1231781683702481,-0.40669815892726224,-0.6869879150451677,-0.8467197610009414,-0.9361806647197337,-0.9686400347924873,-0.973076844320829,-0.9678739345564407,-0.9572481854711988,-0.9433937363576663,-0.9305563205885542,-0.9233144802304342,-0.9212356624273019,-0.9198897512758853,-0.9130653969939304,-0.8899375544324097,-0.8151597177994413,-0.5191857988411793,0.3223873954774823,0.7480957142333535,0.8166373555615103,0.8201296206588871,0.8336604380671373,0.8630217812551529,0.8898942494098041,0.9098956331870739,0.9260875276759891,0.9434624111123397,0.9608641604324054,0.9691570349532801,0.9621268731835955,0.9443272157096737,0.9225486255542272,0.8983946356621297,0.8690872695813815,0.8384924142891947,0.8140560344425586,0.7982736734289123,0.7884784762953987,0.7871598542050287,0.7986197546292766,0.8271624392857937,0.8646489852834502,0.8895951340824537,0.8667411101655829,0.7284865169291138,0.33337801999164496,-0.2219834287264515,-0.5591054950691521,-0.6522057417684416,-0.42103877988587446,0.36136263740572255,0.7565063079741582,0.8592384961759222,0.8929408752889322,0.9000244010200562,0.8887954184510752,0.8611739226283343,0.8251902254982653,0.792495120318692,0.7719165338494279,0.7575872744605093,0.7095623304345982,0.34535100736596536,-0.6757638719247345,-0.8840448833938932,-0.9185009102036767,-0.9294800561920445,-0.9276772633052307,-0.9122692074323407,-0.8776189366358556,-0.8089854732985122,-0.6792785986410552,-0.42339194814428116,0.05912199836877083,0.49003199748459764,0.6267253624859856,0.678034229234221,0.7382159034825145,0.8135978473182915,0.8816963414779546,0.9343902770301209,0.9703290987762742,0.979986570540544,0.9481102364054463,0.861534669992252,0.7467396457200546,0.6925433957669371,0.7313688503534442,0.8096559257689622,0.8762062815782661,0.9147332145420236,0.9330012791471547,0.938050158733689,0.9346719940893603,0.9240316667324441,0.9065125784863909,0.876060273572197,0.8009356284306578,0.5013274112417571,-0.4430777322325831,-0.8861571150472787,-0.9654358289191393,-0.979390480852731,-0.9681515237920183,-0.9132231867675294,-0.7158658540985119,-0.40855350851098493,-0.48769621905873295,-0.7502833746036851,-0.8687510718879243,-0.9100342825263384,-0.9250310872510853,-0.9276059989523755,-0.915536320548841,-0.8714990630083115,-0.7569948560025933,-0.5652558852810885,-0.384238631409772,-0.2696362732798948,-0.2205356654736684,-0.23759601009881334,-0.3157980718093533,-0.4075223950494513,-0.44753413116519547,-0.39908340555391775,-0.2856198251538999,-0.17032276787704584,-0.10123759290325167,-0.04890177283276459,0.020032575902115247,0.1257698127659267,0.25756144090513877,0.3498025775955515,0.15675193817756627,-0.3391125410419799,-0.6934361565934071,-0.8598857722667872,-0.9087072050858993,-0.9123677682043236,-0.8944834672968596,-0.8216744061390029,-0.5595895050407249,-0.0029008266390689484,0.40658311341508313,0.5740500527110534,0.6319281416640723,0.6428941766912422,0.637664439310369,0.6388704449313102,0.6541810710967128,0.6746298403067834,0.6876691247357902,0.6858715224584433,0.6681603357936292,0.6361360709298783,0.5992746498958775,0.5822713694518072,0.5976924707198585,0.6251286333020517,0.6491706182896224,0.6478529036381001,0.6261605880425669,0.6026528099462725,0.5844330631229904,0.5833532474580766,0.5893700620124658,0.5692021680646999,0.515671424431727,0.43760558225789986,0.3769817740975897,0.35659052592513557,0.3815050507943492,0.42370752643945625,0.4577807801138929,0.46683463553192445,0.4316559299784476,0.3703028662439716,0.30216468441289135,0.21824527832850807,0.14367336317889826,0.10866481018064629,0.11604720155935512,0.1544510017588144,0.21641781902524626,0.28568477255771957,0.34090176851053433,0.37081696040263645,0.3646537905294652,0.3177118964682253,0.18482733018005826,-0.06906834811134464,-0.3344354849792988,-0.5369670334172365,-0.6647850440865716,-0.7064804978425017,-0.7030852955482126,-0.6762388939566418,-0.6359691611007926,-0.5972943571670669,-0.5696336246408468,-0.5515335960441295,-0.5352584041887509,-0.5195236857742068,-0.5042993119879347,-0.4824413697356383,-0.44893936047545263,-0.3948308910150012,-0.3279270504418773,-0.26086162807215035,-0.19237081344272894,-0.10932504354108649,0.02401899788250345,0.20574881781938595,0.3920301409914611,0.5756527347737453,0.724187319369632,0.78642841611908,0.7923186376057033,0.8037987065935758,0.8481495174165011,0.9006177288530544
