-0.35207921465110603,-0.3163558437060103,-0.23164737810345062,-0.11279413797938283,-0.0018475244298963662,0.055777637640163774,0.040681038955650894,0.005305726865433991,0.0026476134644489112,0.07888746097005483,0.2424376816733109,0.22157696221597545,0.18319735625686637,0.153429309346772,0.12550792201436783,0.09887460627363014,0.0748154662740807,0.05494216325187743,0.03827774964841764,0.02360534076008065,0.01017097655524928,-0.0021025129973538336,-0.012257309451617406,-0.018515513153224944,-0.018425063551014875,-0.009158414289678667,0.00503878464624976,0.022160486547668036,0.0448954505271134,0.07073560559687429,0.08934356370826632,0.08449329692962215,0.04191230110992927,-0.03113276251691455,-0.11207001386403274,-0.17988456895613683,-0.2301606522278708,-0.26328967072597126,-0.26124584205660045,-0.2151137887538754,-0.16116785532986044,-0.13527475869150601,-0.1307122304706753,-0.1493053333883783,-0.2029262873160837,-0.2947195990569172,-0.39576001356213175,-0.45603929175315866,-0.4571542610016834,-0.4144506025795042,-0.3557713865593528,-0.3003788346572032,-0.2536346189516049,-0.21671302231421374,-0.18990144561361352,-0.17161276923127397,-0.15501738433343748,-0.13930053712670007,-0.14075973423716814,-0.162726112629713,-0.18550887596565888,-0.1888860336950141,-0.18080221170713245,-0.17693333488445626,-0.17351218839277818,-0.16078032074707158,-0.1272925747721033,-0.07620742829697602,-0.024589331364869207,0.011878963513717174,0.026894451700630127,0.016645182075411265,-0.019737223578913967,-0.07121756159613023,-0.10829247479737264,-0.11150770174035118,-0.07831517447401633,-0.027751662220098318,0.014932107654324485,0.0388417146683574,0.052180053822103445,0.0764206351009653,0.13396668678832374,0.21834830471788053,0.2780410986190916,0.3045747959544295,0.3088982808410207,0.30036456918666893,0.2939546597403545,0.30036773340066647,0.3246394496550153,0.3625892456430718,0.4051177099506329,0.4447820483731292,0.48050676171340395,0.5151187167806228,0.5470518409694595,0.5701552528164732,0.5745232701316877,0.5494723016307401,0.4978095201987377,0.4273419384155908,0.33163260968845554,0.19786228256604313,0.026794672509121664,-0.15343821253065057,-0.31769215552882596,-0.47185016866578267,-0.6223213784514446,-0.7499924206510956,-0.8328650114339635,-0.8797868731857369,-0.9078979425799095,-0.92576998976792,-0.9331192932587263,-0.9263959679837865,-0.9096204510616687,-0.8984565817122955,-0.9010713484520378,-0.9092995550727425,-0.9130315661047558,-0.9034063082053357,-0.8635846651466653,-0.7585368126142287,-0.54898768579787,-0.304770851418899,-0.1618691102256467,-0.09494318747803154,-0.030370713294737114,0.08898862058629874,0.31670381540347065,0.6116003292219242,0.7381450158113763,0.7232379820720068,0.6810671618255518,0.6472168571676609,0.6341857039894643,0.6500962367310785,0.6921610064841555,0.7349587855853089,0.7536823047919047,0.7598282326733136,0.7653806988829066,0.7662538903598707,0.752553938281887,0.7199807647200912,0.6698215431332285,0.6048027591491719,0.5304864949153584,0.4587890341989057,0.40260655927553746,0.3609615228490099,0.3168945919670386,0.25444724885495634,0.17823256228030152,0.1117823489551679,0.06854074523646385,0.0452456458139427,0.033947137087501966,0.025136914850928012,0.011322871216656,-0.005441010198139793,-0.007718368095731172,0.04226565859316502,0.17468352361425793,0.3304021113618967,0.4357147946798474,0.479200354572917,0.4637552277828712,0.399691258709507,0.3147537613378653,0.24303862367501203,0.20386884392163673,0.19280780401572864,0.19279750100794912,0.1852624340648423,0.16861331347142572,0.1544707532738254,0.15083823258169424,0.15764890131605072,0.16969427980511498,0.18246215360117404,0.194578505186104,0.20512290991316817,0.20671476704129013,0.18559868503784951,0.14599194849187777,0.11398833634394497,0.10008520440445823,0.09686899840449982,0.09270972447701387,0.07540085497461559,0.040457225606477444,-0.012321178889337356,-0.07817698751439124,-0.14515010479299317,-0.20020562976108355,-0.23544108991197468,-0.24735667350588497,-0.23291887741908457,-0.19286656321598533,-0.13969465637319864,-0.09484291529201666,-0.06471914384349708,-0.04330436237723144,-0.030689578573760642,-0.03733621946560037,-0.09617338523662655,-0.21349086173286594,-0.2325150468452633,-0.20022389616323116,-0.16159298178702472,-0.12397489877819927,-0.09273966732322937,-0.07716392389355575,-0.08956266509359329,-0.1434695803700921,-0.24842116112731155,-0.39350099061579114,-0.5427353398396609,-0.6691806157430463,-0.727778232408169,-0.6992774131512685,-0.6347939423798605,-0.5742604953496419,-0.5252501750305715,-0.49053860901247187,-0.47181447703440815,-0.469419812504141,-0.479924549491555,-0.49192130415009383,-0.4962367771228451,-0.4935185175593472,-0.4871089100434504,-0.47386641884397923,-0.43028460591476014,-0.33834247569227355,-0.2185358950857488,-0.10377348131407564,-0.008413626662463536,0.05924314193468388,0.09460502445074884,0.09888362188169231,0.07895361189328927,0.03660762303719738,-0.03850473638786163,-0.151987907421953,-0.2672513668381988,-0.33162445812749014,-0.34725591919070437,-0.3473120457166539,-0.3490945925347998,-0.33944709969257325,-0.2833066028822988,-0.18339555229555574,-0.08084594696336192,0.01618941631278281,0.09263832986528311,0.13093992794774942,0.15463157124887383,0.1940883288529944,0.26382390450533455,0.33621749314667915,0.3642636354632016,0.34359287428995194,0.31112437124068804,0.3038382797635751,0.3347415498497404,0.394674137932156,0.45476195317905854,0.48141599023686166,0.4590840266671658,0.40757281816963226,0.3523979420793822,0.30777051898588725,0.2770237360995463,0.26041416897871084,0.25828173816568134,0.2712931113075966,0.3032084864110713,0.36505328656344427,0.4860290104242076,0.5795516161890676,0.33852748754315193,0.19864457793445175,0.15229949335454684,0.1453141267369394,0.16028334522597862,0.19357633750282408,0.2506451413549123,0.3386725852989865,0.4646729288119809,0.5991171998570025,0.5743915239799924,0.4068696170096741,0.26826164425048615,0.1815443534089577,0.1348027394399147,0.1223838427732037,0.1500008526919203,0.20858035514992998,0.26943011641967,0.31356815632316876,0.3595052964156403,0.4297031664274852,0.5502534905786465,0.7448517453779019,0.7016894357261995,0.4363914646086375,0.28814065291345625,0.20090280689197978,0.11113503456318795,-0.03977976532836031,-0.3109692052163044,-0.6652826288437892,-0.8883747674770608,-0.9467404690700579,-0.9367780070961907,-0.9018767112302324,-0.8519490496923318,-0.7935235766583799,-0.7453561084382755,-0.7377975665637617,-0.7784695653039153,-0.7973400477467892,-0.7232102012150824,-0.5677916951376915,-0.364615916069928,-0.15595289698343043,0.01651462133223187,0.13364178147518824,0.1967411702625752,0.22081791429181774,0.23063550590843104,0.2559581194181034,0.30613832933763974,0.3535965786363934,0.36100518231662865,0.2898457648842568,0.046087370253544556,-0.5052828126010571,-0.7468831634983276,-0.7033086289728359,-0.6162125964962536,-0.5028729799899381,-0.35724965952015375,-0.17636205482856068,0.04693843202232875,0.31619719181162165,0.5695723668825993,0.7089509470097485,0.7409693352897706,0.7231395147850656,0.6854801217785571,0.6438387331244141,0.6152233857089798,0.617117160481796,0.6517624019621558,0.7009295537558135,0.7440175676600751,0.7726415259608672,0.7865360671982806,0.7931301261724695,0.8004720733305667,0.8044134692409038,0.7858847330665651,0.7174336131384554,0.5853219564442519,0.4187433183244736,0.30587534551241014,0.31880556605324034,0.39804714089157833,0.45250082558881016,0.48010518836447624,0.49136091562418827,0.49216899805273445,0.4869624913266858,0.4765845097638573,0.4674845802578087,0.4666190249579338,0.4689976764215886,0.44437174564013143,0.37326254420585736,0.2582547089331826,0.11419911474204761,-0.03946129938258909,-0.18659034512954714,-0.3123581223312115,-0.4017978354576025,-0.4426666178452615,-0.41575982265822525,-0.3323471486208284,-0.2528680393158825,-0.2041711971676334,-0.16370976737789927,-0.09908014583757006,0.002572513705114202,0.1298418789756163,0.2639850819787596,0.3873572194097116,0.47872145613983946,0.48424726078758706,0.1334229056033382,-0.6736560259782719,-0.8607869388123286,-0.8906388229382967,-0.8934528783904083,-0.8825856765162094,-0.8397867808941795,-0.7138398116096116,-0.5050293259047068,-0.32639505247250145,-0.2305537578893649,-0.19880475003855808,-0.19857073943723744,-0.17890813344954276,-0.10572517959318686,-0.028451671271412887,0.025682877859940806,0.05640575810736082,0.076241288422577,0.09779148246185625,0.1325993106612548,0.18533988767559242,0.25064687866820995,0.3121747879337402,0.3414223205329363,0.3335367439914282,0.30304081375915737,0.261704705735147,0.22494419535612215,0.19899478769666457,0.1828306991892075,0.1745136041511315,0.17472589141362507,0.18552904144835144,0.21657478706029523,0.26785167167046037,0.24065493218881137,0.16216447172183038,0.12123884450324877,0.10407913994997736,0.10052545552837425,0.10685266924027807,0.1187879737818941,0.13464449234646372,0.1621160250626449,0.2242103775052366,0.2503825108615658,0.19450860992806138,0.17211910680816533,0.1709335598210569,0.17234200578177103,0.15910015316937137,0.12864981336956557,0.08422797239608315,0.013269197540804632,-0.09699709093049229,-0.25053788679181704,-0.45907634534441466,-0.6278870039643114,-0.5526522750475832,-0.4208203928424342,-0.34286671183744444,-0.30816423176348257,-0.2975362123146078,-0.2967946197262137,-0.297100770557748,-0.29274884581363947,-0.2777664094051826,-0.25078522556174077,-0.2242635374677799,-0.21265813215177504,-0.21355860681274846,-0.19373509327207777,-0.09791843235229664,0.10316407712339337,0.35286058869430564,0.5779064993263194,0.753379773510102,0.8370228384690904,0.7860098739689529,0.6624769977895828,0.5465694750044957,0.45850938346027176,0.39516440186234875,0.3530318663487911,0.3294583510571567,0.31358000850995443,0.29043264510065514,0.25257256663250915,0.19782751765580925,0.13123905785489798,0.05316835043353693,-0.045330650016136655,-0.16705999388322967,-0.29043181549403446,-0.38244567564651,-0.42559832686369714,-0.42376699087891456,-0.38524624875025765,-0.31035604276841977,-0.19042992601041675,-0.09431393983180537,-0.12625950654309523,-0.302738250689189,-0.5956476122716282,-0.8065011634812952,-0.8632480070128707,-0.8602479294191424,-0.8431358144489477,-0.826253367352333,-0.8124626816898951,-0.7942004248666371,-0.7630651069213241,-0.7088753444804202,-0.6235084518545263,-0.5114475023477897,-0.3901064071845099,-0.27047819458626915,-0.13519204393004125,0.046085217014414814,0.2632847303543166,0.49096668555922884,0.696642557034588,0.8422887671819391,0.9248023188621681,0.9622406515336256,0.9634122043113086,0.928783285633416,0.8496692921809662,0.7239804096883266,0.5987108930210864,0.5629069276528739,0.664861087386468,0.6958558778717142,0.5423103765068322,0.44265125156085944,0.4001657062788584,0.39038932483550826,0.3981411909387172,0.4119329305925296,0.4205549268270824,0.4210292763865879,0.4144627083173757,0.40653229344254227,0.40011688553221963,0.39122375934134745,0.3726209646569718,0.3350132439650896,0.26564520900491395,0.14686883560285682,-0.019262815080338037,-0.17889703854698855,-0.2306852302618037,-0.05127974045857781,0.23310084872229028,0.38048472158214375,0.42429911671529746,0.4197240770353298,0.38833531472574945,0.34235506366600055,0.2877217349973462,0.22560111598671057,0.15186904590309858,0.0492693012313253,-0.13001089482463277,-0.42027521587942607,-0.6886848134449045,-0.8091037488004296,-0.8329193119536552,-0.7928884082322696,-0.6920511439914823,-0.5662056469669399,-0.47111186306544417,-0.4260402240972767,-0.40117926508902096,-0.34004649730381187,-0.2419446904559891,-0.14576438090942137,-0.06694737437917156,-0.011256459042381923,0.020329462335614824,0.034180406444081025,0.039597896286154344,0.04331389628088271,0.04878472137591833,0.05840738624283143,0.07328651814278907,0.0909418259288715,0.10393855767805775,0.10412355619462678,0.08420035128954996,0.0494042274955122,0.015076520216116425,-0.006497001157725607,-0.00997650288304413,0.004725100159725167,0.04488329934092263,0.12327406884244678,0.14610752502696803,0.14430148449849786,0.16250690882371369,0.1993809236036833,0.24873706466354487,0.2982981266204874,0.32212028672368825,0.2931588855097365,0.22230253803608188,0.15676207996410174,0.11888842687511997,0.10143472456433221,0.09375624191584833,0.09048124498143435,0.09151703288945133,0.10107890794141045,0.12341377800992114,0.14402151335222996,0.14833390794961088,0.14718685762168976,0.14241075663063976,0.13312195156022089,0.122936208256391,0.12556781365211445,0.16080509325168418,0.2259679256604496,0.259874044481764,0.2848130687245095,0.3460815685246942,0.4589787452180504,0.3020353410305094,0.11345673775942937,0.020159305942016943,-0.058084558594779394,-0.1519529321156619,-0.1510131137284173,-0.0914390835337187,-0.04074912505838572,0.008204643246017034,0.06456766583491672,0.13605172613442867,0.22554420807271963,0.31203536287033296,0.34227030296442584,0.23238680959053326,-0.06076766944182844,-0.329149047880065,-0.46857307640026824,-0.5573396139873122,-0.6367605606236422,-0.6983475999620244,-0.7012515090774025,-0.6041025478177691,-0.44161628692233745,-0.2971623452385149,-0.20291623207729398,-0.15524244818292426,-0.14214496040565525,-0.1483570227491367,-0.1585467752352513,-0.1603053517910878,-0.15212880748249288,-0.12911078213938906,-0.08218495678707237,-0.01879002853510573,0.03153006945761796,0.046316767058849226,0.0321374598638041,-0.007317185840929108,-0.08069445520909033,-0.18802067458918392,-0.2786113002679652,-0.3373364734841332,-0.39484728875088876,-0.4453777374273952,-0.4670989840300549,-0.44891679726331163,-0.38488579862678346,-0.2708747542390575,-0.1028133156102921,0.10179282334828553,0.23248368540204792,0.23932901872992873,0.15213491937022777,-0.04307088132111989,-0.3384645659993245,-0.5912670529759988,-0.7141467118390884,-0.7240166204854273,-0.6146525489490077,-0.37625450795926607,-0.10491171254472637,0.07966283231812492,0.1564986148014566,0.16070464318617125,0.12192637684274395,0.06047372331343427,-0.00892137068959733,-0.07490626943401718,-0.13742361916878543,-0.19932384336414488,-0.2605176353602265,-0.3128353254329239,-0.33812634556113913,-0.30032960073919546,-0.19159764681798536,-0.044810244858767355,0.10029662883568123,0.21844021507660877,0.3074626594453354,0.37938594353516997,0.4466995268369444,0.5151746970972142,0.577346255698474,0.6138177383597527,0.6018670173175256,0.5424582309818607,0.46022051667892555,0.385501749017849,0.32765069493538035,0.2850604382514462,0.251363066726643,0.22273318435477674,0.19055324959315859,0.14658007702917752,0.09212391579054939,0.04165901728939668,0.005933229692818128,-0.010608474466784732,-0.005660770639902772,0.022735207084922538,0.07010615192864438,0.11210438069727527,0.1408842735925777,0.16686340604518113,0.19649566466295737,0.2308685730376954,0.268079341785576,0.30905414047008184,0.3556478675974469,0.4125686656107606,0.48212297826059386,0.5503083801079035,0.5970807895428303,0.6096067079534806,0.5897191961470718,0.5506161115444694,0.5021086307857631,0.43894769411499013,0.344297772572117,0.20389838054480852,0.03189931756328098,-0.12666275795217352,-0.2352058417590949,-0.28674905927523636,-0.28902477501230395,-0.2489367843267775,-0.17264118099443307,-0.08786774259381604,-0.044169003304632394,-0.03457386524849561,-0.039270992022911476,-0.05150310123760022,-0.06921641766164015,-0.09488700165346432,-0.13445453768438403,-0.19502005176877568,-0.27798613109879855,-0.3763579862320386,-0.47951036416743636,-0.5768845717021879,-0.6628804389036702,-0.7366512379446143,-0.7603366164733019,-0.6137188536581352,-0.3399860288001878,-0.13447533494598096,-0.0017426912443567644,0.09683986883980432,0.1787709622211301,0.2431868324124076,0.27666907010450614,0.26435984726121087,0.20737542742732562,0.12395701538621456,0.03234655895398812,-0.04406858054692107,-0.07604997145381556,-0.03991901724660784,0.06154389080936304,0.1924961676402639,0.3123156281168696,0.3992853181104613,0.44762448957068784,0.4617018927764889,0.4491460219294688,0.4119200050954191,0.3577132576334071,0.3030414482397328,0.2446446791425412,0.14447678409956144,-0.01889369363071983,-0.21089642225725513,-0.35862551651856933,-0.4116905695303318,-0.37195243636733183,-0.2669422874327114,-0.14089924034489243,-0.04296310302270395,-0.006897157907281864,-0.027468099293008686,-0.08328627316727896,-0.14853733705925454,-0.20268953432026737,-0.25818924175673985,-0.35026853722754137,-0.5196421557103403,-0.7522081094132371,-0.9030775545703994,-0.9432175339322837,-0.9461940883262003,-0.9369902571601268,-0.9027971538482819,-0.7739925979831169,-0.4338546564694782,-0.0544258447322202,0.14783921177157588,0.22609785375287253,0.23875721804732591,0.21417527016481192,0.1855929341425587,0.174466023133695,0.18411190774172975,0.21166498148551685,0.2564851409182334,0.3076580967571927,0.331833322984009,0.3005001337167933,0.23794921807525038,0.17652331101280008,0.11397629602718948,-0.009402405035225502,-0.3177894597687133,-0.6837568314656157,-0.8531015765159574,-0.9197720712104034,-0.9529675399964912,-0.9637892452435742,-0.9284234310882379,-0.7589942379760762,-0.45275618622053604,-0.22267952456893167,-0.10863626054999323,-0.03862182439084959,0.036009590356914034,0.15538147890139126,0.3992198056717308,0.6673825902681683,0.6157325504373193,0.5320559826765935,0.470718235975463,0.4321882113683496,0.4203149206109503,0.4314736103076658,0.4592947745106213,0.5005972566543804,0.5515710838804844,0.5973418798956565,0.5913759323673421,0.5029188516418133,0.39545338297666655,0.32150506214604946,0.2869082701858084,0.28551585389374273,0.31206568933896145,0.35755441460749926,0.40588018598321624,0.4372203019208549,0.44862349924703765,0.46614318879841954,0.525840820861319,0.6376043818152413,0.7633333443455683,0.8319539952095968,0.41479856830415407,-0.5825555316693493,-0.8017327152038164,-0.8667032619996395,-0.8935824693146547,-0.9028307399081131,-0.8969598877986258,-0.8678282680262934,-0.7888776284273115,-0.6062149564869068,-0.297731775063611,0.0009796479381107247,0.17102344575534947,0.230552275137431,0.23097505594736203,0.21832855136795523,0.23036381500665454,0.28913770247769316,0.3826111207453809,0.47972653211940874,0.5603522891251832,0.6170365589911776,0.6465707153925113,0.6517764458067098,0.6346586188214628,0.5982557308790648,0.5540732090561871,0.5166888970764081,0.48998932003516316,0.47679927168877734,0.4786301487224841,0.49582538560436057,0.5229265100713041,0.5544511322340424,0.5878859249598646,0.6139158424910927,0.6078189206353147,0.5564648220610873,0.4890080607207016,0.44618220211024767,0.4372792184599214,0.45116405982004465,0.4709703047136798,0.48399917688143307,0.48560709337450647,0.47022080269084154,0.42137529401582785,0.3366554350823831,0.2483757647668624,0.18343542854350262,0.14319766573225012,0.1221536120006336,0.11646075175108019,0.11845744485807065,0.12003256516642204,0.10089161862379177,0.06431753047384854,0.03255833626093423,0.004143894223536731,-0.026413786851726188,-0.06010267702607362,-0.08822040840568016,-0.10868945130071546,-0.11936941799610033,-0.12285061771416603,-0.12340753929629344,-0.1296530304813191,-0.145720150265391,-0.16982470344848968,-0.1969929002326267,-0.2198995059441964,-0.23319265700691139,-0.2272909919409918,-0.20062868813816626,-0.1698779575093198,-0.1400150702643638,-0.1151655321124716,-0.09459785138429667,-0.08053784134988529,-0.07328499602392984,-0.07377909753445573,-0.08564306557487361,-0.11344421648876675,-0.16262423556802177,-0.22871653782091794,-0.2942581901346261,-0.34692422020299074,-0.3978070241722838,-0.4605586068693563,-0.5318038930939017,-0.5965946769335195,-0.6360444459906321,-0.6410366109288297,-0.6021163382752014,-0.5196645360069363,-0.4248232732279023,-0.354930809227769,-0.31449136271719347,-0.28688256220241815,-0.26157610242455687,-0.23043489662884806,-0.1935053569842333,-0.14369787143919324,-0.06597039391074747,0.029551600896383215,0.09937252670293074,0.1196088938273853,0.10843699982392592,0.089776820126059,0.07151291722789287,0.0534211938644727,0.03304282889255077,0.008374127992116943,-0.02130177820042828,-0.048685675650853084,-0.059883163890130216,-0.0583300063941177,-0.0659896823601882,-0.09464623073795214,-0.14619217788326275,-0.21809422331964598,-0.2933870868673391,-0.35488770570611705,-0.3962837860873268,-0.4266833236632856,-0.46532822222814413,-0.5263916805231201,-0.6075240022708435,-0.6868302238575158,-0.7341239410417923,-0.73129342688935,-0.6877655498528086,-0.6068734393665872,-0.44665216930642065,-0.15272195178277193,0.07036208051994856,0.10526220225711831,0.017145846958921518,-0.132515352945991,-0.24446756155749902,-0.21141183594606094,-0.08234763206376558,0.03864749737099078,0.10770066794184191,0.12212628230433556,0.095628218074273,0.03810539358374861,-0.04634791974768151,-0.15464107871758206,-0.27184228862796794,-0.3708899574992012,-0.41463152234659556,-0.36031998883962235,-0.1663720682852152,0.13877438116270535,0.39343358376911697,0.5068772282125422,0.5227341771220965,0.505189080559039,0.49010394681115393,0.4898387086097053,0.5029070668996679,0.5089309639487548,0.4503840756701118,0.22953986086877862,-0.1495436274967624,-0.41005396533349425,-0.4668773350930215,-0.3870823237625347,-0.21595103141681893,-0.008751667070041552,0.17366542433010032,0.3049665356063722,0.3849244635890685,0.41468871846117333,0.40314372534854326,0.37311047153276916,0.345858181068406,0.336013443636403,0.3464227189675762,0.371914770667009,0.40404817031090623,0.43810263658855597,0.4719251684178138,0.4950993666476323,0.4840474231455096,0.4366243730356225,0.3832103071575469,0.34601994354249177,0.32513974080349556,0.31845485774973215,0.3200323212218087,0.3209605470688933,0.3139254840399829,0.2933687546126565,0.2625857000031461,0.2260870767346525,0.19753693040640263,0.18567942773324478,0.18751492320706104,0.18171398159516183,0.1582864009011747,0.1265838229872474,0.09254151723297244,0.057063794752279066,0.02133887547277453,-0.00913364189647346,-0.02800103395675427,-0.03343861986439925,-0.029595501052886483,-0.02984949183208455,-0.05433613386382534,-0.12349928369681604,-0.22012311552249617,-0.31101328697646125,-0.4013037051064134,-0.5105336715076246,-0.6394754793935373,-0.7614070867379165,-0.844944602259987,-0.8792283562433107,-0.8697417131311029,-0.8249073180872092,-0.7487924102646227,-0.65147908823244,-0.5528591237907086,-0.46947482019487285,-0.40364281210837744,-0.3511133292954111,-0.3080069770740379,-0.266066295836333,-0.21349067168711072,-0.12678531862124692,0.019709353969504982,0.19971260880170566,0.33096540226351884,0.39674056223708276,0.4358132470663448,0.4772971720366,0.5068130103500275,0.4622715064902161,0.38269697970051947,0.31369131448060705,0.2376590205503594,0.14446671311874126,0.07467830254136133,0.08601422643080668,0.18043955924944582,0.2895356167233664,0.3531150989879306,0.359287019529102,0.32096810660351466,0.26005562151435757,0.1995483894110498,0.1538196444265619,0.1271583992769218,0.12115804535163363,0.14382118628588106,0.19965842963394267,0.27218315967288226,0.32176741999712527,0.3317440316316026,0.32732654703098757,0.31541561186620676,0.2807025086380521,0.18463066509834394,-0.038251005074857784,-0.3845243742762236,-0.6460216421130047,-0.7417651660349293,-0.7499547510584409,-0.7051642554170243,-0.5917776183221864,-0.4080366283678998,-0.2222062308338761,-0.09650114113417181,-0.03464094538322944,-0.018108804813012556,-0.04258920992437245,-0.11645835867714596,-0.2501126821685463,-0.4156866916957892,-0.5539584431750505,-0.6350864666390489,-0.6598909983554719,-0.6257977605900445,-0.5193394614665532,-0.32499539641037667,-0.10331475722581639,0.026393971734337152,0.048116406628133566,0.006576800775889796,-0.04966854518555373,-0.0913424356668718,-0.0985716379605148,-0.0633721781975571,0.007996240504189055,0.10395369164091493,0.20332571140968855,0.28254830711368867,0.35956060805635026,0.47561531322809014,0.6474341456350474,0.7580433352319202,0.7268452235479305,0.6561873590124254,0.5824432352217502,0.5057063346436117,0.44012530596075555,0.4013185411365669,0.3809118161273783,0.37891584957499685,0.3968527138694463,0.43319356367704837,0.44622672432842037,0.3739294865975314,0.2783404096220069,0.21127193863546104,0.17061148571264645,0.15027630818416698,0.15208699802203482,0.1862922902700928,0.2780157526057575,0.45170415424527366,0.5862411248516716,0.546106147443319,0.4752467714892113,0.4197734624464338,0.37661455314071174,0.34403478826212924,0.3237548722385175,0.31672164212024584,0.3221993312526873,0.3399658645656278,0.3733427750944383,0.4198955390515263,0.40923052985424924,0.3129757693159185,0.22920006105896235,0.12357352516817653,-0.11863045269380093,-0.513575433263667,-0.7265556460044726,-0.6957783621932021,-0.5650127023630085,-0.3981507838472843,-0.2315076455429519,-0.09720763755161811,-0.01196916363606183,0.026126688782336774,0.02621616394850735,-0.003124843297307499,-0.055897828172884016,-0.12682839758222939,-0.21259493603293697,-0.30725932212940216,-0.41324462224063724,-0.5388836565156665,-0.6792413957033236,-0.790338765159421,-0.83818901897421,-0.8405975919483096,-0.8241273381874973,-0.7985183741268757,-0.7640969596270196,-0.7106159900415273,-0.6118095399534846,-0.4358565564087491,-0.22603010975240678,-0.052988313663545665,0.06127656455638992,0.11937768318809529,0.14221349321171958,0.1456810539298003,0.1424747984287633,0.1550482890756058,0.19845727597408178,0.2686067593371012,0.352788958431852,0.4488530645638891,0.5726279034823197,0.7171798934281858,0.6934212787000017,0.4675356980508859,0.30357075231592406,0.22104638508732713,0.18767210638594842,0.18532110303018584,0.20981429525004686,0.2605317676284193,0.34137551478779926,0.4623416585428489,0.611847841290157,0.6962665331514342,0.6457187260664327,0.5448391214286863,0.45273827952660933,0.3877743509098587,0.34844285861327845,0.3263279303361508,0.3123728533533798,0.2995985043294554,0.28756202765076694,0.2737023216110164,0.2597777294854495,0.24114753197552968,0.21440132578183935,0.19360369379392767,0.18913960924149956,0.19304308297713066,0.19537766865779085,0.19173807436172005,0.18521207807129159,0.17471763948112326,0.160888900041181,0.1455359967430762,0.13097812533419156,0.11874981595213693,0.11246002503409185,0.12306195763278459,0.15536093194468065,0.19577275516745088,0.22370356375215933,0.23799596006813667,0.2544677164119437,0.28626954688447537,0.36355451334477124,0.480356656604568,0.526776822283119,0.46581614571696,0.37462582589334986,0.2633420975594985,0.10225836236247118,-0.1713062649765527,-0.5384636158855606,-0.7724910901139934,-0.8475017815524096,-0.8608278774564839,-0.8507468223145798,-0.8245121144446927,-0.7739735542208441,-0.6782849305304695,-0.5309028575890947,-0.37803221189514863,-0.2653632744017249,-0.19312336955998277,-0.14120082458962482,-0.09395871477446659,-0.04143742433314551,0.02157499655618479,0.07692267973621089,0.11227518191166241,0.13024080703025948,0.13589258366076742,0.12704690153728856,0.07172462360314298,-0.06323798956808706,-0.2721213595081483,-0.4722195525662202,-0.5979540558381781,-0.6447133269372588,-0.6074538652439081,-0.43616591886078504,-0.15814318426976934,0.03803644344379807,0.09846557295300601,0.07869239701455867,0.0332308094821454,-0.01434561632039501,-0.0531595089752418,-0.08528963379108674,-0.11558115852571756,-0.1523650499417392,-0.20551070155247836,-0.27669370616529565,-0.3491231155997368,-0.4138628138382492,-0.4756709360874592,-0.5422458880146701,-0.6068158963553636,-0.6593285735250843,-0.6853628655070311,-0.6792997836097928,-0.6642408428757587,-0.6576194753358631,-0.6548321288147726,-0.635860127591106,-0.5884697990249574,-0.5096827607324653,-0.36392255295400283,-0.1047591988892852,0.09885360715933475,0.1980276555542658,0.25647735036962493,0.2962781013700328,0.3242437468502956,0.34136995267421255,0.3498812905640585,0.3581665226398129,0.37903922266877693,0.4224164131592454,0.48470282797837466,0.5550945487308201,0.6309496543647104,0.7142819752919788,0.800857883909163,0.85732987544273,0.8472968757701452,0.7973194404115476,0.7558749385310999,0.7452069910452382,0.7647880118633871,0.7970458728201388,0.8179163345342263,0.812963031983868,0.7575388881444471,0.6059633223252101,0.4052683233778549,0.2503301729058471,0.15529834991427094,0.11371827238982121,0.14873963355135128,0.2794887236629663,0.37031495834055717,0.39526541846818225,0.39837547557096675,0.3801701122549699,0.33613693450945126,0.26859487264896437,0.1800534621454879,0.08041344163694286,-0.019640179204515235,-0.11781472050963773,-0.22896938047115106,-0.3675844599637394,-0.5235499270798246,-0.6705526098014591,-0.7822493401407763,-0.8516308399115625,-0.8849748618891218,-0.8888647881359433,-0.8638626498195296,-0.8092466907596493,-0.7363343101754766,-0.6760807189128046,-0.6581429727897613,-0.6747258540879194,-0.6872246590319968,-0.6562760031572326,-0.5370496595669421,-0.25919122076485984,0.12919197083954848,0.40150244058527823,0.5239226450553818,0.5703174556495677,0.5852442464135683,0.5895664426877637,0.5943197728691446,0.6026283367027967,0.6082278375451614,0.602243776337605,0.5779633916749327,0.5349015886775595,0.49412876428804897,0.47822070697358193,0.49197326943485703,0.5143582687153231,0.26042600816651984,-0.26861172049931553,-0.36155229898249547,-0.34510321761268714,-0.28122894885556904,-0.19201576666219314,-0.10109533485398664,-0.0306916743743583,0.008951514091555661,0.01938871794954037,0.008487213805418661,-0.005357678597425486,0.0031094852866389976,0.061201286539569834,0.18500958836496856,0.3599882318079647,0.5460289219561087,0.6968608856722602,0.787703976502108,0.8118112873623108,0.7823085263165902,0.7258220047157509,0.664361434351185,0.607080727171496,0.5517692102933004,0.4976359507761207,0.4483162559110968,0.40983735671650967,0.38838568173142896,0.38261643850423516,0.3847797387103644,0.37589269465748654,0.3340439960896216,0.2449929336272922,0.10464778512780461,-0.08602839993273566,-0.3309837459413233,-0.5928182041474618,-0.6105966196039186,-0.446629941421065,-0.3190438445640085,-0.23573180460844256,-0.1789765985290547,-0.14139409902250008,-0.1284992263539744,-0.1538624135781982,-0.2598727253003967,-0.5683507512654067,-0.8132025880865593,-0.6447017953664304,-0.575910811052208,-0.5854949635840151,-0.636926970535086,-0.7061656097663732,-0.771157598463554,-0.8065054205208217,-0.7702813278246919,-0.6364891346843434,-0.47486824596467986,-0.39702030027021556,-0.4230597953188036,-0.4636065783768583,-0.46156035332920153,-0.42218040573077076,-0.36679886610693924,-0.3127608097479144,-0.2739711862155597,-0.2571002043477897,-0.26449131336801723,-0.292836832873797,-0.3161905478348002,-0.26997025485029685,-0.2137446584337748,-0.1872357512823265,-0.17570694822008723,-0.15739095470497375,-0.10638039419373131,-0.018901299823139494,0.08863609357432387,0.19928197922529448,0.30591867561941893,0.3940475069905025,0.4513126442674021,0.4862640997545472,0.5129199764420463,0.5379242544793891,0.5626582728271006,0.5828163768440964,0.5848956239065063,0.5543938771944978,0.47714513676273,0.35173098192523466,0.21895162330483156,0.12796620853295185,0.08345074119928354,0.057917006768764615,0.006453695122892327,-0.10600051807296526,-0.2724671582862281,-0.4449364019070643,-0.5655293609116046,-0.5853704094639244,-0.5107814643325308,-0.3904595251685725,-0.2893151668240434,-0.22461451345450142,-0.20058746615289802,-0.21702953533720706,-0.27253959956963075,-0.2984601304049967,-0.22894069016997776,-0.21687858548031994,-0.2547057278900111,-0.30284371033318536,-0.32034207586636004,-0.2651532902923476,-0.10021042531566098,0.1613166146715709,0.4090071067220906,0.5620472296634358,0.623121526111493,0.6108356160870759,0.5517070129453655,0.47248739984570415,0.3905682748483669,0.31665172399587577,0.25642581228065137,0.21289252624180696,0.1778249218710016,0.12479704906589033,0.007917992428577096,-0.2025273662805893,-0.4413346880228109,-0.6596559920522485,-0.8180456850252696,-0.8957264020242592,-0.9234109259946887,-0.9310882193051855,-0.9315451814123947,-0.9265153033952032,-0.9123031430079961,-0.8784829784262009,-0.8022970568070967,-0.6602339694695774,-0.4676678351186483,-0.29070449313377006,-0.18058451636390954,-0.13374584003960308,-0.11247544601929128,-0.07907434882309881,-0.01627524014677055,0.08247351320992032,0.21241629328152292,0.3561717419154262,0.49018364069643666,0.6039425250190025,0.6980600841045779,0.7758558524052857,0.8380772577345635,0.872420083731236,0.8438976655904591,0.7359984602449332,0.6084384853354033,0.5171595842842867,0.4729746670838291,0.46400771881176606,0.47417660422693686,0.48839987907756244,0.49197147316017703,0.47062572366724853,0.41546390754702867,0.3317453760528467,0.24298139325438375,0.18271115092059975,0.16860832484861618,0.18759627060146314,0.21652158306661964,0.24618410117268782,0.28041024392859193,0.32090648746375167,0.3624436844659176,0.39571591012181656,0.4207017114409896,0.4470674618331772,0.49253160080539127,0.5660671378030074,0.6016115686214469,0.518991266811258,0.4331780417226969,0.407722199664927,0.4319716838775693,0.48426803117536066,0.5310446045957349,0.5306722755507086,0.48621737547216815,0.42473821128256,0.3675375862104211,0.3249216886321747,0.3010591563026693,0.29115117019721554,0.28037450282848325,0.2643310134706026,0.2472622858123456,0.2252512968745115,0.1965730387994967,0.16496430974667242,0.13495334861467168,0.10461235119955996,0.07675847418160835,0.057674613613549384,0.05272692380725904,0.06852081704927979,0.10514415979431274,0.15572761397292592,0.2081207502576911,0.24422743694943655,0.24760531260551286,0.21653168281129778,0.1620998000840021,0.10604072488636322,0.0717509856440143,0.06218367687766192,0.04697160901299473,-0.03783481015886764,-0.19873851851514832,-0.30895216951803034,-0.33412286448423467,-0.31179342174050306,-0.2616596893004689,-0.19382144087313335,-0.12489529923903206,-0.06919533394887724,-0.04090411646246291,-0.053767082447118385,-0.12520133230393557,-0.26871407087278637,-0.4608765443896748,-0.6337808005354383,-0.7489422312027083,-0.8181849224036811,-0.8580182295934067,-0.8598093505869467,-0.7697092059909245,-0.5498604353396124,-0.3099831084885792,-0.1448381866354137,-0.043385360816167125,0.03470910999874742,0.1294215066058621,0.2599559730585643,0.36434042283707246,0.3903945324130624,0.3845953099257723,0.3802153563728637,0.39060474097010484,0.42019121162434486,0.464224748016471,0.510901638626836,0.5486251703937042,0.575432313115028,0.598356057687836,0.6152430302399643,0.6162026784207723,0.599778923186832,0.5785796321830555,0.5578544415388198,0.5349903472973607,0.4911029394907671,0.394571355460368,0.26501372709603865,0.1345233985272935,0.013107532712966065,-0.08134935455559254,-0.14383219301690306,-0.17741449394854195,-0.19872760997611377,-0.22896156867299366,-0.2800111456098981,-0.3523950484309967,-0.43509893320101506,-0.5242736616476681,-0.6258788915735846,-0.7401394834146149,-0.8374426495884174,-0.8802326489656099,-0.8713782975109973,-0.835965599373694,-0.7908753944081174,-0.7442028971368959,-0.7028659886024458,-0.6703234518804086,-0.6441547896707819,-0.6212539710549817,-0.5906987755319029,-0.5225771143279199,-0.37849013393902986,-0.17338789546181826,0.0059437972864603466,0.12049403856225095,0.1842589952848563,0.22151996655487968,0.25177306145514566,0.2933782985981345,0.3574254486923815,0.4210704166196057,0.44028513472695296,0.44093343313099104,0.4519377955503132,0.4778908312513575,0.5216867049003371,0.5843832520638821,0.6599793357122945,0.7310199339384771,0.7734512978945749,0.7664011686985004,0.7176310407493247,0.6562770908858209,0.605973828115549,0.5735191413340418,0.5543545238090147,0.5458983551160804,0.5466407290382727,0.5503461374924795,0.5477494705610857,0.5267025625458446,0.4748819221107973,0.39650527937012753,0.31601946569722755,0.24817199122363856,0.19466240179821948,0.15356099870287637,0.13298586980211546,0.140103392940198,0.1673027597624142,0.2031603099770167,0.2437309514075148,0.2863606850116801,0.32775883401956685,0.3646579493309546,0.4003070115097634,0.4517942027353396,0.5317759711857886,0.6251770561833219,0.6606455772417231,0.5871028602639284,0.45462275135673336,0.3135975333332733,0.170894215680673,-0.011415742774370876,-0.24940732960877338,-0.510492575335632,-0.707923094949581,-0.8229792464506335,-0.8805520138299949,-0.9036898822939707,-0.9043878478113284,-0.8959041436398554,-0.8923689423848675,-0.902711916102542,-0.928761613222253,-0.9630304389406824,-0.923266249079266,-0.4588482012307376,0.05109805093964541,0.22300861932312613,0.24581259775060516,0.21863884380092524,0.18398329552160797,0.16310241579706647,0.16655402237252387,0.1921125838951392,0.23202905842223184,0.2822923262599949,0.3433092034576733,0.42637530479154595,0.5607417226841126,0.7716871486257764,0.8819546591008839,0.76132962837166,0.6652365829380352,0.6285881580600255,0.6055057017697603,0.555122128715316,0.45810199228927734,0.32792563838583944,0.19666397361334506,0.10757206834861079,0.08442893968872961,0.1233748907602861,0.18431910628151035,0.22688728745818554,0.23524354261780506,0.20683409834858063,0.12757567916182785,-0.029362939268366212,-0.26274405940150586,-0.4844213439015187,-0.5955034728966596,-0.5896703681429477,-0.4880738680840328,-0.29919988676918285,-0.10119312125489835,-0.03548129616874829,-0.08934216573474503,-0.14676577860329748,-0.1428783642421229,-0.06908999910465072,0.08020636487603999,0.29660655108388506,0.4699383694725188,0.45029574545149315,0.34586489214264104,0.2164657940447042,0.05458534386524152,-0.1350719482814601,-0.29655764725053,-0.3742476561688048,-0.34395615813045205,-0.21093561048230658,0.009385694129512736,0.2617417406224359,0.44945414115762555,0.5277843234365536,0.5293974091016822,0.4820133466426012,0.3783417611376089,0.2155437766794244,0.04509617172043236,-0.07307858700739674,-0.10245144818153293,-0.04387281611672303,0.03136796578091346,0.05661117529729339,0.0169563803184063,-0.07751655372144735,-0.1938100428050607,-0.278237841103153,-0.295675023623289,-0.24486694671651907,-0.14781564245776926,-0.03497542148618576,0.0703596961007284,0.1603049461318625,0.23234147099535837,0.2764682918982214,0.26161514624076676,0.13000487030876287,-0.17092682492395095,-0.5509659006333332,-0.7952755601088791,-0.8934339426697302,-0.9199061299633567,-0.8972331075097687,-0.7402532561407331,-0.11753263080600665,0.4049116848376342,0.5368052944259483,0.5423492423689098,0.5003138821250214,0.43832747460649807,0.37834476740495765,0.34306199047276387,0.3356328371956909,0.3329916504452211,0.30003218637124157,0.2034204331132205,0.08134915818358088,-0.007760667604314022,-0.05562875152102683,-0.07710908262454229,-0.0827740674390077,-0.08249509743083909,-0.08232773628776309,-0.08479079834053702,-0.09773615079809864,-0.13650441576771233,-0.23010239397310847,-0.4059055398857447,-0.6360285782705023,-0.8043771549211434,-0.8093410920577482,-0.6741733763596489,-0.5055291707698857,-0.35633797215916785,-0.22259764245817487,-0.09163348005392137,0.03821682543155598,0.16002409235137846,0.26731581423278306,0.35016750783904826,0.3968621117806045,0.39832867950173745,0.3583916125778939,0.3016177650040341,0.27054277724655634,0.27782433407551355,0.3069228784004533,0.33369524158599656,0.34211154926106746,0.33526339212142964,0.31667362119590126,0.2903833622453903,0.26159630038828563,0.23407624954662734,0.21134987634030658,0.19654579327874994,0.19387647538712088,0.20505634323613262,0.23000116247892916,0.27101027904123537,0.33078694093161276,0.4185170844486845,0.5477363758404932,0.689268334897008,0.7586399466816396,0.7569172619828419,0.7406691397186803,0.7283196768206512,0.7121881758609574,0.6757888098837702,0.6101937311094606,0.5247189713856572,0.440933874535778,0.3582090063983034,0.2412212484608938,0.005749728930719678,-0.3294520654757353,-0.4791598562457118,-0.4440675239038492,-0.33848488808030547,-0.21539313119429648,-0.09737781693947282,0.010160151527087883,0.10719236998504213,0.19639260311442688,0.2732511315392428,0.3183630568115134,0.31321686277019206,0.24161623739015078,0.09402844138973768,-0.07601385297542139,-0.1905680796695435,-0.256786639903995,-0.30008816926005605,-0.32855580849369,-0.3475694072256695,-0.383170373991778,-0.48497818627179495,-0.6790991277658643,-0.8535021289003504,-0.9266337675878901,-0.9453549722561955,-0.9426224085530862,-0.9229305810419587,-0.8763704583369247,-0.7808385009872955,-0.6401024982511605,-0.560448474040676,-0.6318985910804,-0.7394703725998693,-0.7870816188270391,-0.7860773157768719,-0.742709919301769,-0.6272784015716173,-0.3414641033519151,0.16362953419088422,0.5467519338093971,0.6546888282808442,0.6251162546349097,0.5608352253130814,0.5106082348766677,0.4886192839132724,0.4886214911866465,0.4985308030140933,0.5125730999880574,0.5347174630252086,0.5684440987375827,0.6034131657636004,0.602402161327383,0.5453888545182235,0.46300211524749024,0.3875648422687325,0.32993294692988434,0.29204847040819115,0.27758694359954605,0.29286651001164715,0.34497006812419967,0.35110873321707975,0.24474112669752224,0.16320349390167527,0.11265828097067121,0.0654077077187125,0.007947090505764365,-0.06508004494251457,-0.1686472657249965,-0.28975852751307374,-0.3809939884502524,-0.39629223960605575,-0.3283400345094972,-0.19308841375605323,-0.008106206640426251,0.2092731170327671,0.43381115113353463,0.6210815977899378,0.7011486876076168,0.6760791055214751,0.6383038386300198,0.6571760078312309,0.7505807812702814,0.8076587154275762,0.6858039176975151,0.531484043061261,0.41989484695867724,0.3460657764947233,0.29788345195808824,0.26030744816140616,0.2180764758795434,0.1692020716666621,0.11725940655008917,0.054039661983746094,-0.019664606160323412,-0.08508042916873455,-0.13423910981379736,-0.17897227398471802,-0.23023440790817232,-0.27484800039873136,-0.29907160352950063,-0.3170371576877913,-0.35177460993352055,-0.41969066912113084,-0.5254888887092598,-0.65233636053872,-0.7582248560262205,-0.8032084733259753,-0.7998251759132979,-0.7731875069868362,-0.7332417707011161,-0.6770799042922317,-0.5913358895019097,-0.4643401792659245,-0.30551312783014695,-0.1482086471687019,-0.009121241103322533,0.11030846313186839,0.20523834747955155,0.27667648426879676,0.3356435518498647,0.3889301835308681,0.43615469517542554,0.46551291745529855,0.44580470478567846,0.35700550799973246,0.25118270816650984,0.17961713677904026,0.14183348197643328,0.12438955321231515,0.11583091159691082,0.11369382654138899,0.12035782209076099,0.14075854976776345,0.17746324635417,0.23139699038097392,0.29580732089288325,0.3520747340698707,0.37729673272469477,0.333374956853282,0.22466679512303775,0.1487975438883563,0.1182713098988254,0.11304179135596898,0.12488019437419379,0.14625885903463048,0.16085516947072753,0.15329488258319357,0.13471518966770912,0.12036131602772301,0.11168294777324858,0.10581583686339126,0.10111166320596285,0.09766018212188471,0.09601889533617351,0.09788937814159314,0.11022952707941543,0.1412607107406786,0.20310051702006468,0.2872253725259725,0.25081114010590777,0.15599166530348646,0.09704972825184734,0.06156594069629785,0.03962372555467063,0.025190501824180297,0.015629777395027553,0.012402102331260325,0.011257245181608148,0.0012975359653733538,-0.02206773034771904,-0.049701696630339576,-0.07038074874789225,-0.08153539473029559,-0.08546328245452676,-0.08502606130769819,-0.08299877703912892,-0.08341091336880703,-0.09380432156783393,-0.121881077552565,-0.1747270360819331,-0.2585051142080672,-0.36660523316083593,-0.4704785309521378,-0.5360094627739882,-0.5399692223890585,-0.4696063629023062,-0.3375629677349711,-0.2065574878143058,-0.1396360043973868,-0.14274335677284342,-0.19275770545115797,-0.2625378069096286,-0.31043734865185696,-0.2932624978643195,-0.21521290885867195,-0.11462482385306856,-0.005487147717153551,0.11576595391983456,0.16610719344158886,0.1441939910387691,0.1027197864006246,0.07594604787563373,0.07953378921553737,0.11284718448142567,0.17033929326034195,0.24850177659439743,0.34694375294710617,0.4671157783260523,0.593475804889702,0.672732004872002,0.6507418021511998,0.5125139917828353,0.28841125466280343,0.05326550540829093,-0.13416436531962547,-0.2472587560298433,-0.2868234389513933,-0.2781480033543071,-0.2632245177085835,-0.2814921622511561,-0.34419528705862273,-0.4359808884788687,-0.5293111704878206,-0.5951134518153148,-0.5869653233114771,-0.4224357793185949,-0.13392078196884913,0.07855984258462895,0.18678989290090112,0.24309591156608512,0.28201860649763977,0.32680211263581943,0.3831903095670752,0.42901970963782404,0.45230241833533935,0.47498507256442796,0.515527893278301,0.5794260686028608,0.6169255242525615,0.32027425777296603,-0.45867235516371974,-0.6731526477384187,-0.6881657018124152,-0.6218569507698,-0.46629866655847324,-0.1930416159773921,0.1442885962227201,0.4082135325171987,0.5701254881765173,0.6667906102616565,0.719747584351376,0.7325258626586199,0.7104723368718981,0.6680990001422925,0.6214361869191881,0.5808278991948603,0.5407459749736677,0.4817227663054389,0.35965315315945945,0.049823576609326674,-0.535172836031217,-0.7730021693334325,-0.7789300385451658,-0.7710359786328579,-0.7729056757695332,-0.783586411910217,-0.7995178507423575,-0.8125774003040768,-0.809174146569698,-0.7810672809369336,-0.728692311689473,-0.6637896972127915,-0.6142378234682206,-0.6093455364745456,-0.641202210232478,-0.6690540716959461,-0.6501672121753412,-0.5215447117968629,-0.20979237684023214,0.1715699615546792,0.41205431578574525,0.5229386166655883,0.5634835147378123,0.5660279675916879,0.5454197352533373,0.507811577194425,0.46474418489348707,0.4384646998751329,0.44779156005247805,0.49005828760961984,0.543356280235394,0.5809869268270699,0.5758023885082488,0.49801795638535573,0.32744707124200534,0.11585705433882447,-0.018027890814006648,-0.010153418833673027,0.21814831926924982,0.6342525211060644,0.7100541565732893,0.6021467209929959,0.4224831842328611,0.11949862100778927,-0.345207106563358,-0.7333926949013003,-0.8855779058570157,-0.9039273065390424,-0.8635907054201594,-0.7840954649583104,-0.6746821597529169,-0.5563642606352305,-0.4509704368280863,-0.37359092368818925,-0.32664544923524275,-0.2961301123324124,-0.2600678228061041,-0.2031904084010539,-0.11043255672445515,0.031624823397595946,0.22121844616890254,0.42502886114931193,0.5673073241477283,0.6131332708503939,0.6113649645204462,0.6046059753686351,0.6073273247592171,0.6218590481661975,0.654081191501163,0.7078395612741869,0.7656557188480269,0.7885677034426564,0.7654495926432694,0.7215762353192534,0.6747013580411542,0.6300557077237304,0.571820450597961,0.48932152272397267,0.3963208674640293,0.31808965073631223,0.27199509478058875,0.2623408624546966,0.2858458228358494,0.32714105784806785,0.3443204437831084,0.29635249749625775,0.21499435953766646,0.1297528755332082,0.030329865499150066,-0.10816526542166988,-0.2794854123032096,-0.42279023185100895,-0.47312587898853126,-0.3971556555613291,-0.22433512595743307,-0.04262104370192558,0.10258354245899781,0.21578343468795994,0.31199101373154986,0.3951490690512057,0.45069372665442137,0.44164793607076736,0.3400809529762715,0.17422145430657413,-0.005293441170019132,-0.1585823774940008,-0.24555908105033222,-0.23575701256624598,-0.1388707492276211,-0.013560436922864155,0.08326752223780301,0.13793838864660143,0.15710578824889296,0.14736783827021827,0.11611564396291063,0.0772839945618071,0.04556230540606683,0.02448117626884046,0.009101075491880033,-0.009717353071432382,-0.04962652552242554,-0.12569177684253124,-0.23921227014602514,-0.36019744611483734,-0.4582874808335209,-0.515716159327906,-0.5280483193569608,-0.49351605420651523,-0.41345479172788624,-0.30522827151479204,-0.21597970390532453,-0.18923145891186996,-0.20473445663003112,-0.2182487833904802,-0.2050915211629552,-0.15634198822663858,-0.0732357674127618,0.02317603098748364,0.1096237018507333,0.17034885303924252,0.1941089053270042,0.19140892325391787,0.18726704959485463,0.1912674692544113,0.20276295949705242,0.21802900015686802,0.2357213373156402,0.25463734315157777,0.2606941310948619,0.23621669705635592,0.17091880057773381,0.08973637966064182,0.031132484586381973,0.004105559775568292,-0.003106071933802353,0.0015689403323706492,0.013201982714232936,0.026245427756731696,0.03187543827710563,0.023272013451728513,-0.0023281388796217084,-0.04310221706652199,-0.09266741425910886,-0.14348875271450479,-0.1943347042448211,-0.239622716934796,-0.278869193222645,-0.3226917540077109,-0.37370986728581373,-0.3051562911882832,-0.06653035140520044,0.09254325902240963,0.16035083070937425,0.13284122871171172,0.03791759624305276,-0.0751665579685367,-0.2001964189089922,-0.35715748428458527,-0.5577278286679228,-0.7490197412357331,-0.8497526307280281,-0.8702177138671093,-0.8362588976378013,-0.7525589231382395,-0.6326425123040471,-0.4922333317510472,-0.34365165230721295,-0.19330647261982267,-0.04943627540022198,0.09012934587233722,0.23196330763154707,0.36462005000687897,0.45669918524487674,0.4879270816462152,0.4600331127929046,0.39132319683733696,0.30090041006582524,0.21080789721015172,0.14557697598524058,0.11854942135584405,0.13554721156260707,0.18622082292266381,0.21921703634127293,0.1911583308010473,0.09817162609041181,-0.04316231476939906,-0.20134965614857597,-0.3350602584921366,-0.381084158402599,-0.23771123051586937,0.04352320229453616,0.2713175141922056,0.4174247316341797,0.5051062440828341,0.5521366904750115,0.5711508457943052,0.5733302897441572,0.5573684205091377,0.5320121410290393,0.5188315540756441,0.5308567762387565,0.5634164004741682,0.5979190648448496,0.6022077414606125,0.5606968256314387,0.48717175745677815,0.40823939134291315,0.3482179658751013,0.3363740817232115,0.3986190103430497,0.48322801336106147,0.4722972127907984,0.373091807147173,0.24377932685084377,0.135851888558227,0.062240978859718604,0.021751165352211964,0.006629604826945302,0.005972728472333529,0.010047215323517726,0.011676554934815888,-0.0038776411885376376,-0.05740330968615386,-0.055492446035494775,0.019859309717085487,0.0989103405870609,0.1649873864874913,0.20781463342463652,0.22660283078123383,0.21882874623620585,0.18441150515333765,0.12829241734925023,0.05431285425618985,-0.03876522693938932,-0.09484157735646763,-0.07377460268513102,-0.029812332264700824,0.016274370859082853,0.06787541174960339,0.13128177820925296,0.2070062153620121,0.2912098840519442,0.3602041190768394,0.3813570199798182,0.36288885347503247,0.33591285775484586,0.3122796095122342,0.2962962144913836,0.28633877590613194,0.2843329110679714,0.29614852337059383,0.32719702207768653,0.3794901964923844,0.4459127252605959,0.4848276102971026,0.44326445256657365,0.33056446179184845,0.18659306719269808,0.0006721886816866142,-0.25761872869132296,-0.5356452986652891,-0.6691372847073956,-0.6568418062265567,-0.5934508719054334,-0.5375782618935586,-0.5176118481901085,-0.5291936050468694,-0.5398905670687066,-0.5568108843837823,-0.6131701978135278,-0.689398258973328,-0.7539713408067429,-0.8025908148073195,-0.8388173696501504,-0.8646899401889,-0.874295782890928,-0.8558267330553398,-0.7957530929916841,-0.6967605319409207,-0.5934539430994993,-0.5084335014343003,-0.42886825367413617,-0.3265173935872785,-0.18006582707791632,0.008081491861159333,0.2171612454252961,0.4157830502979789,0.5750406081956762,0.6863796090290523,0.7565179155563923,0.7858473514203329,0.7559350804756664,0.6702291640334708,0.5725519195272705,0.49957004798585375,0.4581655565945819,0.4508229785129651,0.46680759805447286,0.47445984673820035,0.4179297948344699,0.14546505932430623,-0.29772034780640466,-0.48038055240250993,-0.5033259131724989,-0.4542347902345281,-0.3535138962586041,-0.21582486143493654,-0.06228477199603708,0.08661844131165251,0.22207622511610056,0.35016410384359103,0.47038271616977456,0.5620214190799249,0.5713732630392772,0.42727611491767953,0.11039062775641657,-0.2310323708902185,-0.4037889201179267,-0.394292263441115,-0.25107678244604054,-0.02823308386923642,0.21566754695212167,0.4488438188628412,0.6443794264613737,0.735207564947423,0.6766707392730706,0.5206093706997286,0.3363936719603388,0.1730469792913191,0.06641238977892093,0.020423681538545527,0.011050964884181138,0.015341923659147688,0.0194268026512536,0.023634050073248557,0.03331020305669589,0.05253603455421497,0.07633581443020221,0.08555057363998449,0.03792072475839565,-0.12266009731434928,-0.33043897909754294,-0.4275117514691896,-0.41918860162879135,-0.36041349902967473,-0.28778386349061585,-0.22432229606415438,-0.17762343411836146,-0.1452373403526216,-0.11514548705344169,-0.0709112269210223,0.002179381767943668,0.1231080029984002,0.3010876611332016,0.5130883836843834,0.6731973217916294,0.7394813200965322,0.7443402436409787,0.7037570283513461,0.6340115518948435,0.573442148912692,0.5472823673474481,0.5707956932103632,0.6485885055632957,0.7574492175948999,0.814484492907988,0.7959317038336158,0.7549900464332938,0.7120062108533476,0.63809933642144,0.516636596051604,0.3643060446487891,0.23402679291766323,0.15935617553837592,0.14804821019331899,0.1745368689001271,0.2043706175244063,0.20412127399780639,0.17080698557956864,0.11862083103021162,0.059189795029298505,0.006322876805326914,-0.03667728875071949,-0.09244767979985422,-0.1876474130838254,-0.3321064771540444,-0.502968948186174,-0.6536199422570634,-0.7567371488293501,-0.8154812580061302,-0.7967766821265007,-0.5508861742404108,-0.1909378739657229,0.021466600728899173,0.11887440144567141,0.1576782650552313,0.16166497318133458,0.13904301674241212,0.1010216419044714,0.06545408082006052,0.046404414799001176,0.046385304767803184,0.06120427316581002,0.07974878808595151,0.09252832032305497,0.10185647949417032,0.11381905890449999,0.1322654120889557,0.15869326166476794,0.19431134426356922,0.24292610935050807,0.29521957390077624,0.3178218025884314,0.30003682048204017,0.25604059418951924,0.20146793350228992,0.15275996211549003,0.12256522449478777,0.1080821028896025,0.1003995356695091,0.09042962598338808,0.07043849310456095,0.03430139835899117,-0.028333901062266114,-0.11289075057080462,-0.18520213856681378,-0.23169213025570948,-0.25605786409607406,-0.25999228974476235,-0.24902103412227664,-0.23985574399076726,-0.2533922896170027,-0.30096399039609073,-0.38871682617893144,-0.49920624427078863,-0.6002606283201207,-0.6638748161240706,-0.6884850326979598,-0.6916218158987588,-0.6921741023702476,-0.7038328680696809,-0.7223719381263392,-0.7180871330769761,-0.6378265973687048,-0.43426433693457467,-0.14381205361343694,0.09683587151029374,0.23459506004868325,0.2928979388840295,0.29366869317815997,0.24037566227494842,0.1400827140100709,0.031157468900036414,-0.04879683223658699,-0.08629514025769532,-0.07201082319840739,-0.0031775009205354103,0.07939843694258682,0.1188482079530438,0.12091022298135065,0.10298174641332249,0.08624492298431986,0.07591893007749123,0.06736197141319425,0.055800072398478624,0.03699432667495178,0.005080491953352937,-0.04415788189684681,-0.10691700022608475,-0.14960487684598803,-0.13581888006227189,-0.08820431814756442,-0.03497388185262996,0.01869835468580522,0.07731377101857827,0.15275440043207567,0.2594331412069516,0.4040533767204007,0.5708463311068352,0.7013185507496381,0.7118653852245975,0.5900105167917069,0.43345288423459877,0.313117570873076,0.23162196217815453,0.17484993240978183,0.13412267100002534,0.10663824971892874,0.09183267399384151,0.09006220896018216,0.10539900852705456,0.14709425490827352,0.231885330775485,0.36697178627080784,0.3553303504711687,0.1677586399355968,-0.013476260710136993,-0.17447993736822545,-0.2875362782049204,-0.34432472484884713,-0.37419197541521554,-0.4103036270647652,-0.4769980355141954,-0.5768074615304124,-0.676006665339026,-0.7480848523358475,-0.7975105622494121,-0.8248608818511775,-0.8376416557913122,-0.8472778309166373,-0.8562980448134161,-0.8583784027495022,-0.8446956076052939,-0.8051349877184449,-0.7376798263430254,-0.6667707142948089,-0.6288564064072965,-0.6310726736838035,-0.6514073387402085,-0.6282734544065168,-0.41708445807004807,-0.09092596448762222,0.1208161555701642,0.2246126727804703,0.272888924553646,0.31533798739397484,0.3806400709509446,0.4796814794828797,0.6026371490575357,0.7025328092190224,0.7367863355452049,0.7289173687383302,0.7124090927333213,0.7014061293945619,0.6977132994439322,0.7044191944479813,0.7203525033474433,0.7417859574294768,0.7594865225172726,0.7587788564924768,0.7399977620521202,0.7085485514082063,0.6644485654642681,0.6120044630102002,0.5594210327793406,0.5171442901313632,0.4929442663387703,0.48626171002081725,0.4935650885363126,0.5133937087614621,0.5425078448449209,0.5714218905296048,0.5936394444762643,0.6092825693315019,0.61630587434185,0.6052622090864744,0.573728501331876,0.5288595410159617,0.4801769995986681,0.43289818575484657,0.3855805511153217,0.3381381847438638,0.29698645692034675,0.2676468979099514,0.24057490556299413,0.1978064366219352,0.10308387211592591,-0.08487478029965141,-0.3418859229139649,-0.564211532677744,-0.700803049546253,-0.7761797455416439,-0.8168901657757274,-0.8350422251631218,-0.8348914837443595,-0.8174830077897568,-0.785603061173286,-0.7440841155983214,-0.6926312123971304,-0.6118806416671477,-0.438682208385731,-0.16945327159202045,0.03482036207117811,0.13529370603813326,0.1752193151151309,0.17875075334548576,0.16150690593705902,0.13678478246051182,0.11954020387365896,0.1157444292886926,0.12002714535623737,0.12584223868491706,0.12856967358902857,0.12234269194372947,0.10666778413800745,0.09284859819117075,0.09702393346190047,0.13360643663449348,0.2037992772004341,0.2738092548565418,0.31101360772004943,0.3173450498345642,0.31314615983170996,0.30315548289917904,0.2776775370855118,0.2321494220844532,0.17425303078088347,0.0972165141206611,-0.004994817434570762,-0.1201345914262152,-0.1952264192169532,-0.21151686304112063,-0.1853514395029726,-0.13594997265884992,-0.06221812787849439,0.03729495921851936,0.14416084215479985,0.21227598736310185,0.20944976564411932,0.14513962674908504,0.06753705572038163,0.03231398606805201,0.03724030993275011,0.06211086884642241,0.0864018978897167,0.09874164560819096,0.09048281825862084,0.06557737139687032,0.04662436240054104,0.04183505168201347,0.04653911300794502,0.04921297268288239,0.042656041985620285,0.024918716999665077,0.00011213286637252303,-0.031364680393610817,-0.06857734288184392,-0.10537113922213866,-0.13110755125571258,-0.11599246321975791,-0.030465747225577496,0.09773633815472407,0.2003603854855668,0.25103009130478904,0.2602400832284855,0.2432555812417141,0.21380868516759616,0.18041782064659775,0.14858103887856747,0.12373013881354195,0.11341074124800123,0.13664903473856882,0.22785648502854716,0.2795799737404775,0.2356655187574583,0.17781209264537265,0.11568479280664914,0.054587422866432825,-0.0019477939558687834,-0.0494053669718118,-0.08696674101497935,-0.11499321412170461,-0.13657829295141954,-0.1525203845097509,-0.1674983262473041,-0.18673789672738084,-0.2247833065144552,-0.29284904072609147,-0.390274722403135,-0.5011117253485134,-0.6061201611875111,-0.6928168817662249,-0.7600191595388314,-0.806727374977006,-0.8318766058876712,-0.8285757488197761,-0.7815664451653186,-0.6792096168325611,-0.5398536876063281,-0.4052847377387002,-0.29968669407969295,-0.22185960810917207,-0.15938942729626165,-0.10256947055266345,-0.05221893347712894,-0.00918948449910447,0.026140925303924065,0.05923386242607195,0.10034918577304051,0.1525864083012539,0.2310738668779388,0.343266756094219,0.4725768043658987,0.5876170061709736,0.6810556817385992,0.764771076022404,0.8481069394374217,0.9242348957806339,0.9468951982708539,0.840219069690165,0.6493623278187677,0.4858825383369179,0.3807583244066879,0.3231098385879891,0.29743005831567476,0.29259861029968653,0.30197355201640425,0.32517480142354305,0.3603915063608682,0.39284926730662023,0.3894593112410939,0.3271412040086287,0.19874761905077398,0.044249175013412155,-0.10116400015551466,-0.24835907346967964,-0.3954623380515011,-0.521909962781886,-0.6144434624080153,-0.671989931830612,-0.6990603269056022,-0.6961970356567213,-0.6594036213590115,-0.5772567388249354,-0.4410541382000841,-0.2729584961799864,-0.15674412924005532,-0.20539696645539057,-0.4301991333485081,-0.6442442741177404,-0.7487373235769125,-0.784358837534432,-0.7787037254330182,-0.7438183237443711,-0.6895286922660447,-0.6350456867492602,-0.5700547256174204,-0.45628826397769334,-0.2490142436889893,0.028725872810128412,0.2544648786179371,0.36903949959368326,0.41957023465249876,0.4517500923552655,0.4820246059823943,0.5144668907926431,0.5441952089049106,0.5727844515207704,0.6010758770884833,0.6262067375862961,0.6455373797969177,0.6613344602996939,0.6760634273985704,0.690533640515507,0.6950002672798214,0.677417398214089,0.6433197585743966,0.6081859876441904,0.5799825586238895,0.5599683333378929,0.5353171209902567,0.4793614572819073,0.38629411730573576,0.30269000438358895,0.26474387005080113,0.2621742873962591,0.27680097561961103,0.2890516241274193,0.29629315451595445,0.3014439546821706,0.3102377328391115,0.3261116890567251,0.34566313998831766,0.363996775113872,0.3753223153804984,0.37468908977704657,0.3558099564329997,0.31188856805152965,0.2816131877235887,0.32672204166407,0.4810127914195256,0.6910609466755046,0.8002551531720491,0.7992036746097079,0.7583610442760568,0.6909769401750444,0.5769345848613292,0.39719804701894235,0.18918057443575798,0.026859486568662733,-0.051511669693527065,-0.06415592785455473,-0.049000834697655246,-0.03366520216674827,-0.0294870171439802,-0.0374709670973077,-0.057649774584114216,-0.09135429314961731,-0.14008173410700364,-0.21864968100411947,-0.3598191651196564,-0.5545379038696784,-0.7171804517300177,-0.806809936643177,-0.8530235577636981,-0.8803504605720033,-0.8961574837532182,-0.9025226101724553,-0.8995438409971783,-0.8874036266096759,-0.8644937683419943,-0.828491255322755,-0.7705151007851815,-0.6784650396119264,-0.5459979089906442,-0.37943468408414843,-0.1875568853403231,0.0025541190647394144,0.15745546208606073,0.27166808506730306,0.3440479928771339,0.3839875380189164,0.3983936892354738,0.39636924956529956,0.3810017922594532,0.36081408062423836,0.35015718992443773,0.3546639951677395,0.3691425436525148,0.3857411851213106,0.39797962919839186,0.40380833766317265,0.3981648372624203,0.3761352798549595,0.33123556220896816,0.2648947882399193,0.17488649744421061,0.02852978586429017,-0.30435561079601225,-0.7067994394706497,-0.7958168062394567,-0.8171365583635899,-0.8303826685260539,-0.827761902696431,-0.8049880357949488,-0.7558529280752438,-0.678876428466312,-0.5906516910524454,-0.5160886549485457,-0.465057416300083,-0.4416298409174564,-0.44237949113818986,-0.4651633507246338,-0.5131521106583017,-0.5593681225763272,-0.4448529007611281,-0.20178473439406477,-0.049665286318259116,0.031241328891277686,0.09048909114278983,0.18346114434490923,0.3472903452197779,0.373692553156516,0.34417127374460316,0.411235251496876,0.5702860190930932,0.6892075193946834,0.6594901633789445,0.5878971164626396,0.52532487157219,0.4784712487677889,0.4484505030832289,0.4355559166558979,0.4329843287735896,0.43259579940989523,0.44201811869188395,0.4894311578316042,0.5816383567156103,0.6431099833135261,0.6493075472819975,0.6064477679241573,0.4789782026403386,0.307626896739535,0.16725279630873424,0.07179798044751592,-0.0030703033171596904,-0.06846808300414839,-0.09147004206303479,-0.05540340574132431,-0.012914620011284527,0.0107467821250224,0.010485657749065553,-0.022040013332174545,-0.07068119064806312,-0.10315184602433869,-0.10820878802696442,-0.08738199804099626,-0.057424518264063355,-0.028756738927326147,-0.0030449939115553644,0.019747462621091443,0.041713299531488376,0.07598826680632292,0.15689151274918747,0.2782675491747108,0.2765676820889363,0.2384018626127706,0.2239912532480422,0.2336668068402018,0.26064796349455405,0.29961888841450734,0.34423307051675256,0.38971318672921007,0.4386554941315419,0.4886782640261993,0.5294639825677683,0.5588681100556235,0.579939698410534,0.5882762402449605,0.5734762133081072,0.5377663715426364,0.4563529714588374,0.2595560129988309,-0.03444196541674521,-0.25321977477088436,-0.36949340522518276,-0.41877331200873813,-0.4118699628493098,-0.3431768503038868,-0.22424290942551794,-0.09868935146118213,-0.016149736721704794,-0.024080613049133538,-0.1314011093700323,-0.2609709222244664,-0.34881291597472086,-0.39247624213533927,-0.4162899627844575,-0.44111060439922534,-0.48097686564691455,-0.5358659352371451,-0.5939391480289303,-0.6394247470157522,-0.655703312724883,-0.6154681007865219,-0.4709814126468913,-0.19639582611279688,0.1071158408142467,0.31970550437171397,0.4365432629105619,0.4936235316673833,0.5234330530566278,0.5482288956774939,0.5886527834605005,0.6528011646869247,0.7334958997129742,0.8085865791480907,0.8553755633931094,0.8695341412195409,0.8652181356872604,0.8647864911270533,0.8100236563136439,0.5562746153894538,0.29374712604889536,0.15345935525243928,0.0965875175631797,0.09826984083474198,0.14682952362013765,0.21969074743441586,0.281373112785281,0.3049173337245928,0.2836956054560595,0.20910334611753292,0.055159702915352916,-0.1949810215073986,-0.503551839428769,-0.7680846116476784,-0.9063475320854834,-0.9343023561205905,-0.8973020260699494,-0.7776115992521982,-0.345316993372628,0.15308581649300818,0.2856458248538659,0.2589492645244715,0.15334108468281674,-0.006521799936412854,-0.15928959243827373,-0.26481289970578276,-0.34753530229351753,-0.4270745027604343,-0.5049820158184714,-0.5669050918361888,-0.6044597722642145,-0.6195351975626106,-0.6200451935654939,-0.6213592679311044,-0.6364165647220379,-0.6616491200497437,-0.6655959949700792,-0.5534756230702512,-0.21502541117669433,0.12131601847648335,0.31417509954937456,0.42942637158677427,0.5107115264292558,0.5721656619723036,0.610287115160381,0.6074649426363165,0.5515380554742887,0.45959527644307613,0.37519891516618403,0.32606457701322045,0.31938803293593226,0.35114359870339623,0.40916252051699925,0.4648043979690011,0.4903098853476193,0.48981988557987277,0.4845693903996488,0.491159390622337,0.5159589090117674,0.5548312480947207,0.5880888034504115,0.6020477135894506,0.6051102801758086,0.6061869274018379,0.6041384952509471,0.5935626452517213,0.5583175839800474,0.46338411687775277,0.2995521505644106,0.1299385552403989,0.0019906080839162746,-0.07824603986271028,-0.11477893766227511,-0.12091783165939977,-0.11346188158994476,-0.09489108840122033,-0.06439154167128298,-0.03343327437941663,-0.008787654002237114,0.004957597868155891,0.006786656839757418,-0.009443065373514921,-0.0486446234329877,-0.11293353048889632,-0.18815136381968223,-0.2541868539848675,-0.28427635567824755,-0.26485619533628457,-0.19313267606320167,-0.08481377561204517,0.03283171007258239,0.12743789812157466,0.18004195276094845,0.20330261555138152,0.21349658826046225,0.2109862498552965,0.2047376649708882,0.20325263192036716,0.198835096943698,0.1712317816504367,0.0913157340000474,-0.059414857671415,-0.2839574723670121,-0.5231165540317352,-0.6842785567329047,-0.7459543491362804,-0.7331418840984454,-0.6834809824945016,-0.6474598497135758,-0.6630884424524685,-0.7229783683835356,-0.7720752466911913,-0.763312234660862,-0.7069543385157735,-0.6296315140075023,-0.5466000232305537,-0.4602095825506262,-0.3744395378617765,-0.2778405525310438,-0.12549953531178248,0.14426045510442104,0.31966386114713,0.1883671914880749,0.02855341752539372,-0.0855829037628217,-0.13936932639327565,-0.14472534568843073,-0.12321195259364012,-0.08928326332571969,-0.05303568365456571,-0.021322234009803383,0.007908955843378593,0.034966541083206085,0.059942396722872354,0.08666872511201691,0.0842457208964431,0.035519957725515215,-0.0223344777762225,-0.06365829688375768,-0.08723038843501912,-0.0911155062593105,-0.07495846146246564,-0.04475846335079905,-0.007941175337911093,0.031819327108933676,0.0656191108411018,0.09005671382406186,0.10577340412197911,0.11438518259535443,0.1148996439524607,0.10884114228341087,0.10138123496444866,0.09886464371532168,0.10381947732923487,0.11446627714724204,0.12316123007176323,0.11172790378865528,0.04363029440381183,-0.12961034002489502,-0.39789349528561163,-0.6599436090646973,-0.8192523117782305,-0.875478383605006,-0.864874225317906,-0.7947233061358145,-0.6370554083249079,-0.36538894397410704,-0.046250209268111256,0.21116173929378412,0.3696177919653201,0.4353629506472047,0.4338914669568963,0.4138529402439505,0.40375853504683,0.40945362645645383,0.42703110666804084,0.4459935912476619,0.4626495589733537,0.47275421244262117,0.47575215129786497,0.4730426871087512,0.46632139276095624,0.43757704203144077,0.3520437721576905,0.3086182457388211,0.38576488547757487,0.4481746209663754,0.39412020380688256,0.32055671892050014,0.26367777327100833,0.231824778097783,0.23456933206420635,0.29373006805339835,0.3592984781435778,0.3850046885202595,0.4185652310245801,0.4603679879231989,0.49118872360621924,0.49088770676622645,0.45631212937051024,0.40333440174325913,0.35100474964706846,0.30672739494258583,0.26512669122123267,0.2164513281358959,0.15324689223104696,0.07484878055498984,-0.03114662543184596,-0.19252246263877695,-0.4038702512666463,-0.6045795323510458,-0.7457306999026402,-0.83457883214133,-0.8929121972145987,-0.9172334029326419,-0.8363383367837935,-0.5974760632104087,-0.3795221123205183,-0.28762944554633296,-0.27650624954928515,-0.2898692552682837,-0.2884829338523483,-0.256255276419507,-0.20065756305382942,-0.130410650029281,-0.03935180109772205,0.11342230103877599,0.38457222932223023,0.567819699642863,0.5900310296255338,0.6043146770595195,0.6225695599070368,0.6220609321640239,0.5917310485717875,0.5430488878736381,0.4800212514722844,0.38465627056785034,0.2517614030743019,0.12831858577153338,0.10296980861569424,0.22557417796099075,0.36259689661425953,0.40748613035922865,0.3657637663532464,0.2589414766285947,0.11955078620064818,0.011831399856170552,-0.016483645773758597,0.03238722736037606,0.12570752878743216,0.2152506399713328,0.26563143996153,0.27646987120963945,0.2633063930450576,0.24380914210186155,0.23412732216368387,0.23815299826128963,0.24338674710915625,0.2200029528598437,0.16643683340557436,0.1279607179262074,0.12746054736128568,0.15218574735458928,0.18212014702264892,0.2109673830499248,0.24068179968935732,0.27483153884056544,0.3175191211141924,0.37103390430355526,0.42659030067519577,0.47095594581564443,0.49504907630851924,0.4910744527474577,0.4452902199993991,0.3361362169704253,0.17389387781520294,0.05358599779031422,0.03925502131433744,0.11301687004195828,0.21696571871665576,0.2907610689535184,0.3129094212613138,0.2973196159703836,0.26349803414021294,0.22940048416165035,0.20634552143277127,0.19814316739307897,0.20484375407156452,0.18760078263441296,0.10212957286211138,0.03261695595546478,-0.00989891660274923,-0.04283767395732052,-0.07515530315373734,-0.10902966088169694,-0.13996526343697707,-0.164952065533152,-0.17885230173505376,-0.17009746243794294,-0.111995717368288,-0.03250760929121441,-0.005243213471758909,-0.012948073826655762,-0.02863426704085546,-0.04289987448213775,-0.04791372732245648,-0.04869967228296113,-0.051842231887661176,-0.05622019134338228,-0.05565080348910721,-0.03724971767044664,0.014555625260307353,0.10498668579852877,0.22230261609983895,0.34131323940740455,0.4376431033684107,0.4789414017040579,0.3534212765333469,0.032245662703824673,-0.18775181584191455,-0.3018223304971213,-0.3696665010924138,-0.4136532138287809,-0.44430061023017753,-0.4678913552777115,-0.4808189760167999,-0.46510556539212533,-0.4110193269276763,-0.3539082343240805,-0.3333400748827764,-0.355316397086227,-0.4041545223466711,-0.45721464300585446,-0.5002447723633994,-0.5449143661846078,-0.6061416491352131,-0.679750483384734,-0.7447203408815087,-0.7838859357972188,-0.7938547779963172,-0.7761473430510591,-0.719519190592533,-0.5956450765447163,-0.3932735068058767,-0.18365883298065153,-0.05290425294070892,-0.0015656631655334443,0.013258587037216827,0.039653085477164264,0.12176878534958396,0.2487468437599717,0.3609033547543658,0.4238408261085559,0.4407057685170583,0.4268886730800692,0.39459684275103507,0.35597487999852806,0.3193264699941612,0.28480330451809954,0.23792354081376235,0.16289598508168587,0.05718939973513107,-0.04797919071738444,-0.11890384623395595,-0.13674608012872017,-0.09067780915947993,-0.0003442735294887456,0.09337460840454234,0.17177618738469339,0.2389280635593725,0.3000416889310438,0.36018480676376696,0.4178605049803214,0.4683721378039385,0.5090629806030357,0.5510889852008287,0.6019586845214933,0.6581644005389888,0.7101585457108455,0.7430286607974704,0.7460691816883682,0.7307153387922322,0.7235322298137893,0.7395383916772817,0.7745227974772476,0.8106897541936998,0.8342704813388944,0.834752833550997,0.8015987156404469,0.7001956284782855,0.46117900530873374,0.0972428355649437,-0.23809360512328323,-0.47192525943962244,-0.6278676490429741,-0.7387212374214831,-0.8242950230116884,-0.8931762198714078,-0.9383643424754338,-0.9435584981203707,-0.9235163862994236,-0.916133884714921,-0.9250079529451095,-0.9373673834675944,-0.947217998348274,-0.9526294732107079,-0.9535214991339287,-0.9474783876694027,-0.9244700124607171,-0.8464647603993994,-0.6023390736113219,-0.16229026270304125,0.1730115444509276,0.33662915946509536,0.4149992184573673,0.45620831456407035,0.477870891701812,0.4878453432440754,0.49215185885760554,0.4931601935256413,0.49142838554845475,0.4894867286519677,0.49186118401642226,0.511002420678907,0.5641404208693906,0.666267809028203,0.6881105508951326,0.5088860602717309,0.37688783739730847,0.32078308257457483,0.3044781231191703,0.3051549600787553,0.3104911247046578,0.3108164706201434,0.3022113281545456,0.28688779781792223,0.2682593024533498,0.2480611545655316,0.23053519992687502,0.22011525432696097,0.21806147072927287,0.22652307417297268,0.24523060193995364,0.2698769747258404,0.27855646085599556,0.21562927382585148,0.07161588418160728,-0.0739067181593292,-0.17046286822517667,-0.2177316134755848,-0.23115395370382782,-0.21829834108826068,-0.18423194230594944,-0.13003369550845045,-0.05099439596814072,0.04078902247010742,0.11104083918558037,0.14275332876573807,0.1364205207179953,0.09727245939620612,0.03303814332333065,-0.04098541438256138,-0.10543598005661252,-0.14548993486751266,-0.15866372977908116,-0.15247184793761553,-0.14313626951455627,-0.1482276721792028,-0.18245899915421532,-0.24827712321647216,-0.31734531705590996,-0.3531400852745266,-0.33335392241309014,-0.2675016117500522,-0.17275024934667763,-0.06763463332013671,0.029973922914325265,0.10679794668682126,0.15620071451935724,0.16319043258437957,0.11656470815130088,0.03399809661427084,-0.03521440956200093,-0.05820772383379552,-0.033490803915203336,0.02662694178353096,0.10451224103469867,0.1899922212538015,0.27845655714030765,0.359395887867885,0.40885689257223606,0.40653070626610616,0.3423761970002125,0.1752015011600055,-0.032211017686730174,-0.14957976736703882,-0.20698132663557506,-0.25004669689900627,-0.2916898445393945,-0.3263974625157611,-0.3587679164193954,-0.40383479471724076,-0.4239944011335939,-0.3298682435751972,-0.23602580217160687,-0.1816096595190014,-0.14468223261634644,-0.11442465215897797,-0.09021571740499808,-0.0752567844583373,-0.0747567441808777,-0.08498608275788512,-0.09915670080179621,-0.10489221415570986,-0.06037222228524777,0.24556140149825015,0.322031738926054,0.28299324483983285,0.2496874098882782,0.20874778479366804,0.16002430193096942,0.10617816315477537,0.052219924969569016,0.01109809364047219,-0.006310161816867026,-0.004560814190620723,-0.0006896976651287333,-0.01107357137735446,-0.038737602642115725,-0.07776791013370975,-0.11169157391045649,-0.12567570147488918,-0.1166592612705953,-0.08956865312735682,-0.049038070745194645,-0.003214113277585408,0.03890503356389532,0.07041906062429615,0.08636117329181398,0.08921733750697765,0.08570058959473661,0.07793704043141923,0.06758006128345494,0.05509818539863517,0.047958030813026645,0.048953445458640665,0.05622294987410898,0.066095643621825,0.08147948017254988,0.10872818964126868,0.14791787936302372,0.19303228645106962,0.23862692791840023,0.27966132408156313,0.31060732324706813,0.3311109477072708,0.34471345185578484,0.34524063794162524,0.3130370134283979,0.21516303503194711,0.05769230668005892,-0.07868376510728665,-0.1540574825568764,-0.18064710898310876,-0.17825929971081061,-0.15811522639136133,-0.12473559488392995,-0.08429170698541298,-0.046556985650614904,-0.037410414920392786,-0.11638495010505946,-0.2920436350111063,-0.4323265735664309,-0.5020013201668246,-0.5265508681988851,-0.5201247487876463,-0.4828385129414528,-0.40781376509877454,-0.2809570614288266,-0.08247811205676947,0.1774379723346061,0.44320029333869587,0.6334239480878717,0.7297119278070959,0.7631355899999761,0.754444270514203,0.7193066873392011,0.6765435038909717,0.6494995782353454,0.63758701550299,0.6290915934105006,0.6180297876679521,0.6068299847990913,0.5974247258815859,0.5755830067584724,0.5086115198193368,0.35431935017973304,0.0880240182558984,-0.2201181642728353,-0.456369788984205,-0.5939812604768787,-0.6524385841266982,-0.6407101958170061,-0.5488773666783147,-0.393002828331504,-0.32416584645525337,-0.43485642696502913,-0.5924801954632881,-0.6814218715553406,-0.697909195248458,-0.6547834819544273,-0.5445729909553189,-0.352217842608003,-0.09748717771196587,0.1483011469444203,0.3314270910036349,0.4561009004410079,0.5412849969384382,0.5965199845407295,0.6091552992797324,0.552847522953512,0.4462534306389738,0.3425332623253491,0.26558082692441093,0.20849096835178507,0.16662838465769314,0.13863630478657862,0.1195456888525115,0.10158644239196295,0.07543695068265759,0.03308439202845615,-0.03026424198906481,-0.11748470067966603,-0.231052620036958,-0.38017585542431565,-0.561908302703708,-0.726062563017824,-0.8169706592286569,-0.8294657602340592,-0.7918307576914698,-0.7299867556982667,-0.6526526984301134,-0.5532781236996481,-0.4113359816056922,-0.2258900586520727,-0.04635330440444088,0.08969386358347758,0.18444554476530328,0.2501242041577755,0.2957323427216031,0.32904156743041785,0.3536504709230064,0.3646153868625302,0.35868130701591255,0.3488361257987324,0.3525974231360562,0.3780447936213462,0.4222228170179494,0.4696947424172514,0.4997344592064283,0.5095037373401946,0.4874988072620453,0.40820084093605413,0.2980036376135597,0.21148283021111614,0.15733819160398824,0.12489434980545085,0.10372634914460975,0.08950211801788814,0.0802976887792632,0.07169223694515826,0.0542721568473497,0.013220481115696323,-0.06847445271019995,-0.1998994555245421,-0.35744831357017715,-0.4783508672319603,-0.5286088823918602,-0.5199353144042673,-0.48300873740446637,-0.43708457291471015,-0.384720140378781,-0.3308308014942202,-0.2801984848935259,-0.23305254818909402,-0.1822724603880209,-0.12033342182843136,-0.045859556303014144,0.033174861722522195,0.10090799220916444,0.1436235044705077,0.15111832352987226,0.12490118799722671,0.08703083454117003,0.055229903148758606,0.03379979318151186,0.021717139799247435,0.019508362113599756,0.028391336623341132,0.046926417370645714,0.0657466174988048,0.06002994809810081,0.006871823568184139,-0.0911102466849146,-0.2068308450173256,-0.3123091285008969,-0.40066379315578204,-0.47915220019071814,-0.5513078375775755,-0.6078726465440102,-0.629001251539397,-0.6027855070892666,-0.5365954648382185,-0.44527282192608114,-0.3428182278023796,-0.23825060600841733,-0.135680924075747,-0.04175901425951338,0.023080412236246243,0.046111780716525635,0.039253645366108536,0.031328266220427246,0.05129262246204218,0.1353921589510663,0.33403977102294496,0.6138592504713537,0.7260866253173057,0.707340131185711,0.6725438349820849,0.6463067971656795,0.6292342969967378,0.6088214125906815,0.5770987575830736,0.5437611649356344,0.5244871623086892,0.5166084210437397,0.5058579894059866,0.4776616053949873,0.430226364796489,0.38336225982731786,0.3521574715226799,0.3388344796211178,0.34103109974469503,0.35617986644810906,0.3817511682373847,0.41333643031245093,0.4436024391468855,0.46173807990416643,0.4633721591124959,0.4578561295401072,0.4501894547335382,0.4322280555791859,0.4015718503492059,0.3615454355214882,0.32111318276396084,0.2823011958402239,0.23804895049224326,0.1755239895794601,0.08980566506725579,0.0006000861747463478,-0.07751556663787232,-0.1467082884575727,-0.2107837605788457,-0.2718671749339541,-0.34180219170547355,-0.4358383724513174,-0.5631314583743914,-0.7025563032027223,-0.8159656674331512,-0.887396695258601,-0.9250115162533507,-0.9372189200749321,-0.9259268224247431,-0.8919240709863138,-0.8512861194649672,-0.8220089046875366,-0.80359355051123,-0.7860275003307584,-0.758165493606808
