-0.8686599694178464,-0.8727233842410219,-0.8086919875113926,-0.6658506568458635,-0.46310045804180516,-0.2182954883591911,0.06839547429126014,0.3354680695521992,0.512174727500828,0.5951739492457587,0.6329668342654455,0.6572368707474563,0.6887814521554062,0.7211819253196313,0.7414829089100212,0.7575479712114144,0.7783779627556286,0.7994203133601819,0.8175516399761495,0.8275682845640349,0.825447242816077,0.8016208991083648,0.7523885165187999,0.6981520728184997,0.6724645869134372,0.6857947527534718,0.71594562480121,0.7317011758727725,0.7267003334664697,0.7104000206352301,0.6844010115018927,0.6433281941127977,0.5896476317425197,0.5338174057227135,0.48498117941338087,0.4318913860257766,0.32838281085826315,0.11498552681979946,-0.17961096496838455,-0.4226873899627025,-0.5402123638215491,-0.5598227608175342,-0.5129611165672117,-0.44560285694129115,-0.4169586722751518,-0.46112876104469597,-0.5706417016718257,-0.6778840068127565,-0.7165011407975018,-0.7115337384832155,-0.6899786660438494,-0.6609256260907264,-0.6315886096688694,-0.6119211047615336,-0.6055011111547197,-0.6078771185527218,-0.604605088686322,-0.5842773713780733,-0.5552131233341899,-0.5258084013161362,-0.5037972021389386,-0.4860386560078144,-0.46923295414475474,-0.4538685035513723,-0.44132499869503383,-0.43148081952293144,-0.4365844550525415,-0.4732440630060817,-0.5389164933686694,-0.6144462995541627,-0.681482163408634,-0.7342900215157449,-0.7768572318427216,-0.8118592539042829,-0.8361532129560052,-0.8397531938274664,-0.8159514260457753,-0.7540333070514644,-0.6332740419807552,-0.4743565937185805,-0.3363840333721869,-0.25327482937493534,-0.2372828767365551,-0.26442367749553275,-0.3055725205540499,-0.33766900702518055,-0.34530966481859554,-0.3192566467199902,-0.25521955277391384,-0.15496648775490637,-0.04687228132484839,0.04152861618875794,0.11124297511689049,0.17913298704751543,0.2570669394335861,0.3289826582398203,0.3665962521435145,0.37325588034950324,0.36379595017112054,0.34850306804536274,0.3299376914993992,0.31756982652110194,0.3274588079658587,0.35699263031432765,0.4059865277622413,0.4792972608186517,0.541392746985515,0.5173255472330431,0.4611039421008613,0.43105421858336973,0.4444753437311074,0.5179179428283227,0.6233285392297896,0.6874085438459854,0.6834313149504867,0.6616495426678007,0.6488800878731467,0.6342499080383615,0.611886467799584,0.5736120630778172,0.5201038951238895,0.45421475851520227,0.3736239188489834,0.2591102289479685,0.13044389642631457,0.03343973216037507,-0.011494996566265254,-0.01079355520270938,0.019428635259614035,0.05937697961681963,0.09432239301331463,0.11377288942801002,0.11326763055397397,0.11060303467093743,0.1275515998227628,0.1576416951580279,0.15734897880776766,0.1338556530002982,0.13560440790573655,0.16308074984890233,0.2201880673585847,0.3165437274109806,0.46394815237614395,0.6501099315515332,0.745083893125978,0.6916241808032355,0.6372864332399438,0.6454214588300196,0.6747310884724562,0.6684392653656007,0.6174986648421673,0.5466231997106206,0.47350295817613197,0.4087010349019016,0.3488588704924451,0.2929723205353362,0.2467071649542208,0.20499659200582696,0.16351813389897685,0.12700814184679168,0.10467631665612047,0.09894468603274376,0.10381894738577763,0.11114954923011476,0.10918675849843441,0.07819407280258993,0.015204007932386045,-0.013810069609440426,0.044017947954441305,0.16033807916263165,0.3178663051700306,0.4932309972309942,0.6117135859105138,0.6435250309027833,0.6024811241285605,0.5189430997165644,0.4621057722623566,0.46076234286800977,0.44658100076416624,0.34825775806799536,0.23931295133861127,0.1576985754867594,0.10767823221175518,0.09526418872720213,0.12205407413483531,0.18414255717709807,0.25064608876512395,0.3015538666480095,0.3485175556795556,0.42451801909237025,0.5220370293092089,0.5879548839610429,0.6042788353549113,0.557185659423001,0.46256067129334755,0.36413061367031413,0.2949598131193085,0.23448518550072425,0.1433731703616481,0.002136091185881735,-0.1661120290202698,-0.30987100779071747,-0.3956319697122117,-0.4318472492143936,-0.4389579871955197,-0.4257213409508719,-0.3900282433645232,-0.33574997821781144,-0.27299871776216866,-0.20763543062061962,-0.1467741987686022,-0.09587665822112422,-0.082858064745566,-0.1439340506124489,-0.2574166388846941,-0.38081721574496463,-0.4836511256319256,-0.5600514706400421,-0.6062747226290723,-0.6260759426015627,-0.6432394622757988,-0.6616746228530359,-0.6791666081088035,-0.6800444826463162,-0.6150792101474768,-0.406887986219224,-0.1029072078667646,0.131213439210804,0.26464073612476663,0.3448046398007293,0.4077072584781921,0.46405956310767604,0.5143061866944607,0.5404146150835984,0.5316036432745066,0.4943131769625217,0.4121074670492274,0.27808552187256025,0.1266690158918828,0.012719542337884719,-0.031324587307405706,0.0005656552283481529,0.11439570631261158,0.28973331996871504,0.48198959668648084,0.6280872119291816,0.7130077637839628,0.756046972208781,0.7751336549878034,0.7603569382214621,0.6589570545468868,0.40297888649305436,0.07165699576245996,-0.1852520636699224,-0.33482475202776174,-0.3990931719493687,-0.41342007896802235,-0.40737502590332164,-0.3857130932653708,-0.3442644660459673,-0.29117071004138817,-0.24849097983663163,-0.21684754843822715,-0.19218016949940042,-0.16489793381051218,-0.13799971628421312,-0.12202350556610654,-0.11947176866991012,-0.112423503305717,-0.08900796102668605,-0.05101823333147164,-0.005831500694033613,0.05075515219633414,0.12086917134895772,0.18864784121729963,0.2199341011081665,0.19678198155358967,0.0990921931584681,-0.08905512434390493,-0.34511843758582655,-0.6017137201746819,-0.7948787423244338,-0.8976855299698003,-0.9411825842892542,-0.9486568541652657,-0.9309834714984537,-0.8987754214782554,-0.8632854088942763,-0.828462196921135,-0.7911037494882182,-0.7502861188313724,-0.7076590304223184,-0.6639975460733513,-0.6092043634042009,-0.535688200927617,-0.4677135259405733,-0.42305053812546506,-0.4157880373447483,-0.4378567211239213,-0.48058896146131425,-0.5321620126688117,-0.5820075266722416,-0.6184211441057286,-0.6261122823612978,-0.6156547624477196,-0.604340395029292,-0.5816062652780835,-0.5257301215323071,-0.41390485445978914,-0.169559611350213,0.29940368802216527,0.7395510332912422,0.9130480645834813,0.9630047964089044,0.9677932353007074,0.928189357527376,0.8210230281446634,0.6433844588465393,0.4379346248304244,0.29206501049880657,0.24003246181805865,0.271190848936089,0.358334757886107,0.4787833807247408,0.5832442012631087,0.6589541910107682,0.7026401200409417,0.7166266371601491,0.7082826163880213,0.6925018444062087,0.675251878851959,0.656046904257439,0.620838224763448,0.5740151109981289,0.5460642004599285,0.5640296247599108,0.6268798596747812,0.7068756678481832,0.7602263788443699,0.7681203598521387,0.751048028833285,0.7232478843084776,0.6841266176716049,0.6341686459439992,0.6000791814827473,0.5980268471955994,0.6162996360157625,0.6369740237792484,0.6436286635371385,0.6261995675034386,0.577387728892774,0.49107433827441543,0.3385718817930705,0.06322044390023089,-0.26355900114641945,-0.46772534631292534,-0.5501375766685755,-0.5674026481638422,-0.5303421989718128,-0.455287018030498,-0.39622883630744643,-0.38471941129495413,-0.4173333241071693,-0.4551332787320434,-0.4769804293875701,-0.4563774334487174,-0.37626585084717146,-0.25288995756657856,-0.10257359332218777,0.05832680776413579,0.20616714567799221,0.3178572244770856,0.39399962075216155,0.44869550806646824,0.4811694322295235,0.48681178653298895,0.46292550663206494,0.4157243779434475,0.3636372249858465,0.31014291154950147,0.24496079250176392,0.13038533695329446,-0.09028425233759428,-0.321061036089514,-0.43765584625272275,-0.4846064833628755,-0.511132774182309,-0.5259712413262156,-0.5416933664808982,-0.5602523112138085,-0.5914807501679141,-0.6290838338068622,-0.6699784164152189,-0.707866649139152,-0.7342442491625834,-0.742649009249795,-0.7416090436344472,-0.7319996352065881,-0.7069325056492682,-0.6688714269526295,-0.6263536700889584,-0.583065069809436,-0.52989922058658,-0.4606887076093347,-0.40121507819314367,-0.35235689176074647,-0.3023871587734877,-0.23945457206768572,-0.1606895253312554,-0.04943319705063445,0.06230102176518019,0.1800634324937214,0.3028007129778011,0.42838497724783076,0.541927889212999,0.6228667104545821,0.6661043538491472,0.6836044767082596,0.6936330235706739,0.6963214776834291,0.6998310539353086,0.7098596468293601,0.727598164499251,0.7469415151149129,0.7542245323772367,0.729344734488104,0.638053788857108,0.41781452102505656,0.048184381163681685,-0.2794682622235264,-0.4305305855701063,-0.4736540696654701,-0.46790249186200966,-0.43595068258221736,-0.3910811802437038,-0.3354194563920493,-0.28258355096914983,-0.25109828253132443,-0.2511621904474412,-0.2873132473916687,-0.3699804881116197,-0.49277720851396495,-0.6062827449656296,-0.6580442508727705,-0.6311876737869417,-0.5157258851749823,-0.3236994781353267,-0.11540154547756783,0.05684457081286414,0.19059988555448207,0.31063244145103147,0.42182837234499754,0.4998582525868484,0.5235304182542677,0.5103974385972351,0.45277623908015063,0.32092991806775195,0.10234241072891734,-0.08317504942063852,-0.16587116323304527,-0.1609511851617464,-0.0799671665169431,0.06605910720439934,0.26766976902254586,0.4665200056673562,0.6226206752918017,0.7340857768210879,0.7958396035668011,0.8071693922936636,0.784824768669624,0.7403897485512192,0.6708392125678654,0.5636053546693341,0.43367992662918,0.3503886132964676,0.3333940324563266,0.35847752561348767,0.4032269470392335,0.4496683661467166,0.47025432381396826,0.45997545373907606,0.42054768256271335,0.37285545624534155,0.3546933724619193,0.3902366864268107,0.4938327819188534,0.6536063542810447,0.7918088225534506,0.8513543274512855,0.8534313361491465,0.8412324617196123,0.8316798282601345,0.8301829284719613,0.8397217828311311,0.8640248429123577,0.8880434263748268,0.894675894059761,0.8859518752400383,0.8671367885055936,0.8333438811006204,0.7609101169941055,0.5831428041406885,0.2464611259736318,-0.08540564235914472,-0.2529888731711147,-0.27986216903466976,-0.17205035210128422,0.08320765353308948,0.3864735151845088,0.6018515771205384,0.7115566252032041,0.7563245788041212,0.764654713839036,0.7630659749524076,0.7599850481503365,0.748221172607811,0.6946501955602096,0.5297719663612264,0.17137462759203817,-0.32201707480945213,-0.6942315709684184,-0.8903017743435433,-0.9374819222209598,-0.9005828840183736,-0.8589921728820908,-0.8290067798248221,-0.8024347383371487,-0.7829879601428945,-0.7711100386943985,-0.7703822844062895,-0.7840740467494355,-0.8082523642674762,-0.8289333503851947,-0.8403795260003678,-0.8442729380916962,-0.8457450140762993,-0.8465391870587152,-0.8501307700093115,-0.8539922887359191,-0.8536751790457467,-0.8501583346775463,-0.8421403489267091,-0.8354283091340833,-0.8254343733186321,-0.8011662415867299,-0.7634320343278064,-0.7311175219376929,-0.7139903669965545,-0.706918736478181,-0.6993881872618964,-0.6850078507184453,-0.6554155242126489,-0.6125411947949292,-0.5633306475856339,-0.5040809906280895,-0.42268653083040125,-0.29410868900814696,-0.1251876765678789,0.05025683529994686,0.18012155131283272,0.2420412575344436,0.25753001314995755,0.2420703127501395,0.22179923893797265,0.20482173249793686,0.19545852033746994,0.1955911876793077,0.20440496661992988,0.2105242052817388,0.2084183307732432,0.1976602929077789,0.19074382799881215,0.1904195350613079,0.21398417023692348,0.26150050322141616,0.31516328387778375,0.34856308509438616,0.3582703219606185,0.3461518534431375,0.3073035606003604,0.2388792873306721,0.15756807144773832,0.09129251277021298,0.0448587940698872,0.007897115235132542,-0.025287682265335055,-0.06202924167372179,-0.10879659744981153,-0.14800064755184722,-0.15080314630990588,-0.10679890182875304,-0.02951012852175572,0.06547744210938279,0.16600632759441974,0.2716366663811984,0.39042720083163196,0.5260516923865337,0.6414777834923311,0.6926244865969696,0.6773785739062353,0.6171759961337543,0.5517317508016726,0.5186272250098416,0.5134276595541142,0.5274280026653309,0.5504879553594095,0.5826732378460819,0.6256533405764697,0.6816275772824493,0.7486279805140111,0.806649182829922,0.8212327897329221,0.7821656412747023,0.7175058055074037,0.6535517101414066,0.6029940170385697,0.5697872823615253,0.539233137568433,0.5071700473767561,0.4633411887862877,0.40020968847622995,0.3273014949670194,0.24955001020969106,0.17422055124332136,0.09814124898489385,0.016864356938737887,-0.06888140779077986,-0.13952826249012332,-0.19780471335384892,-0.2667176371480281,-0.3392154070925901,-0.39699373804433485,-0.43294373779259376,-0.45580966947837087,-0.4662105257293642,-0.461698247110347,-0.44386665286356913,-0.4140442109621619,-0.37751087717365,-0.3324299590752244,-0.2639472798968437,-0.1532843171477858,0.0003899627437412578,0.17553340816213817,0.3614486971426257,0.5057741979649603,0.4998403469522698,0.4275822085130022,0.3891951245118856,0.39000714888890053,0.4228710052113962,0.471712117604199,0.5242740262811328,0.5754338989863407,0.6267232193203182,0.6853103721623309,0.7508543750771786,0.81076290318202,0.8535417657171668,0.8783251541938211,0.8908676777961846,0.8970486815967306,0.8991650421166791,0.8994572975493577,0.8990248831519418,0.8962262666469959,0.8827457536183193,0.8376662120661771,0.6888994387312073,0.23872763055593155,-0.37825592827514687,-0.699356288763704,-0.8001398234460645,-0.7955425082400148,-0.7679863566769802,-0.7683095664616856,-0.8033470881665665,-0.8486053083914664,-0.8613952224989965,-0.81710445917727,-0.7383367756600574,-0.6661613502342296,-0.6263839566389601,-0.6246579749740159,-0.6599722198798131,-0.713756538740161,-0.7591417234983662,-0.7817466076876057,-0.7863185294761205,-0.7901134220087662,-0.8005574832335857,-0.8151444854399912,-0.8274626068648475,-0.8325505013650012,-0.8301496329845942,-0.8255131080421753,-0.8242627473507083,-0.8292073880563132,-0.8413477173750565,-0.8593613000894443,-0.8723856546674231,-0.8716783567369123,-0.8459337395179753,-0.6006395683056596,0.32879188589293834,0.6453811058001129,0.7019027508425405,0.7161133444497442,0.7227964399912686,0.7157180701596774,0.7040467245658156,0.6882919408407974,0.6687218215321237,0.6584222784272146,0.6609242016838331,0.6632918646654914,0.6504732217629946,0.6130931545653503,0.5565769636465154,0.4930443724792254,0.41230562493080186,0.31050918758745794,0.14720378596387118,-0.12259745405369347,-0.41040328416428107,-0.5780297510923961,-0.6564067654486493,-0.7017588786137339,-0.7319126887681444,-0.7527278856082741,-0.7714103366335923,-0.7990557007770701,-0.838151134533105,-0.8772731304027184,-0.8823702651289561,-0.8054695413473144,-0.6598198132759319,-0.5205000082576371,-0.4382233073959888,-0.3977590757713325,-0.3845145589507629,-0.37286482709436536,-0.3660708616928319,-0.37202608695729,-0.37910558808964107,-0.36787391944100517,-0.33411975473980204,-0.28289136627825695,-0.2287982161141831,-0.16139730416489212,-0.07926001569077769,-0.007779946142177205,0.03031748789132181,0.03222279897776413,0.020944838689583238,0.017944250411696283,0.025455705492291328,0.04538558961424825,0.08577567382047718,0.13743657558825104,0.18465787088707414,0.2135934911476217,0.22853343385560623,0.24472071100861373,0.26672593732155364,0.2898045963721808,0.31529677596743183,0.33415818371687406,0.3229684040482532,0.2751342121907401,0.20410709405382188,0.1402457546723386,0.10526263931055495,0.08548558034889958,0.05965188762032675,0.01784069660212488,-0.009797722671070243,0.020574233194123992,0.1146261233598447,0.24252044139887452,0.36116113041635384,0.4395860845261973,0.4661964530057002,0.4498241245544652,0.4149221680932495,0.395195791778754,0.42174980369565046,0.5035523952766097,0.5984274455794502,0.6468739101309087,0.656950128043182,0.6610214645622869,0.6727682141090076,0.6927422581412721,0.728027848725103,0.7755777389183826,0.8147784435087329,0.8356037178310227,0.8429981839092836,0.843690609469708,0.8455851168802367,0.8503918458866271,0.855925028176403,0.8601761799337899,0.8687095794116478,0.8832585206392524,0.8931878796673327,0.8809147587610527,0.8254661513302819,0.7097209761684398,0.52263764332262,0.26109256187795127,-0.009408123186183434,-0.2494888775816807,-0.4659110349970496,-0.6083718147170069,-0.627293828324054,-0.49354619900102015,-0.3027958177760119,-0.21374645261158248,-0.2266584298627042,-0.2632882401375176,-0.26533630002121183,-0.23764479447928663,-0.20210886831925806,-0.16744243253510038,-0.14200284108954575,-0.12554161406623623,-0.12239555776770812,-0.12826061448551518,-0.13059543388606945,-0.11779124681352615,-0.0795420099783873,-0.014918220043199738,0.0781676697473989,0.21062665843853925,0.3912024142064875,0.5651570044282077,0.6565903814453254,0.6924227584795889,0.7028327874959641,0.6947644664626073,0.6593594295157914,0.5679876932821626,0.28936284585560845,-0.28551557792230625,-0.5113381794266469,-0.4986219974505998,-0.4504714156632873,-0.39886484498794794,-0.3579220711214399,-0.31175683525302816,-0.19514649294203085,-0.0064071537842802385,0.07044614425736431,0.04489880130084554,-0.03486555481771642,-0.12922806986373309,-0.23139174754539218,-0.3483084691366216,-0.4725559040875839,-0.5889582890276834,-0.6828537332197685,-0.7308584767313545,-0.7451027968978164,-0.7560349755095841,-0.7860351865846894,-0.8319719727301619,-0.87943561519898,-0.9017321363339383,-0.8930401749309806,-0.8696977911121803,-0.8529819130793591,-0.8547071502558848,-0.8628207660324171,-0.8619126965721763,-0.8389061075253322,-0.7964299170626885,-0.7537720089417655,-0.7299942093069658,-0.7350440600308366,-0.7561283475634225,-0.7697831889163196,-0.7662439572518648,-0.7492465578830988,-0.7219463899161089,-0.6742770956577635,-0.5818926157230945,-0.4027559577676623,-0.13235672147250419,0.060076032419812284,0.13726254005724417,0.2103739620558423,0.33606625638819726,0.5085900673152398,0.6770540168809136,0.7931563378735069,0.8403391629605198,0.8467330034726666,0.8518999540296183,0.8661722425028981,0.8836963151671066,0.8907618379739118,0.8704219501199005,0.8120930731232278,0.7002200452674385,0.5262774213123577,0.3130294453315939,0.08993790968122055,-0.09892290107900177,-0.19884660074407493,-0.1811360650939359,-0.12067412717031596,-0.07710146035763345,-0.05514366755575592,-0.03740937446077014,-0.007779328691145147,0.03361573759446375,0.07444575352861975,0.10652318532095843,0.1372887907755375,0.17954443555110186,0.2403348649474446,0.325381319090521,0.4390451219939715,0.5169071959061968,0.4298956050095104,0.30419523414426763,0.22654696628346888,0.18608574491820454,0.16040951292033861,0.13832086229105872,0.11525297764720294,0.07340316521949414,-0.009206793978701918,-0.16575654165902806,-0.4096521291280473,-0.6284893765678233,-0.7467968003462652,-0.8196970074979532,-0.8817228844228423,-0.9307963532333691,-0.9432479628430752,-0.9066722080247009,-0.8369693452472635,-0.7565393862080609,-0.671797967207996,-0.6061082904767051,-0.5665603392344671,-0.5299782083375189,-0.4332585175226422,-0.15245101238581954,0.22469410707162196,0.45959278878658344,0.5988046521262477,0.6877591332504471,0.734408615280777,0.753859075296722,0.7757174409281642,0.8035161244337812,0.8138214183949687,0.7973852261400554,0.7707672690295557,0.7523047297210989,0.7447250972186318,0.7493714766559608,0.7606811615577984,0.7747313347796189,0.7785840455809454,0.7532252392946238,0.6903020656287803,0.5965153219033952,0.48551614482664757,0.3746610422371919,0.273876199449827,0.1672991057166701,0.016791310634449084,-0.20168806394083497,-0.434849412662881,-0.5564762035344119,-0.5813885439190968,-0.564789506370469,-0.524650766358889,-0.4621626985639727,-0.3864450515239235,-0.3130168440678018,-0.26259093640962133,-0.25498357300583335,-0.27599603135312917,-0.30411946301037013,-0.3299760414532568,-0.3599848761032627,-0.4052254586449658,-0.46349276047599647,-0.5152249207745326,-0.5543601410910793,-0.5858310188884521,-0.6149037154734017,-0.6434443378523826,-0.6625932602604288,-0.6672654995593679,-0.655576271481418,-0.6211558811885589,-0.5572056597348668,-0.47265293322397967,-0.3807950788275948,-0.2903749152608664,-0.20291471384611726,-0.12429377822454582,-0.05896950570644363,-0.01100901089180716,0.026311588301018023,0.059613705788845346,0.09702982682782307,0.15213080975459478,0.22965984458250222,0.32780317303673145,0.42826340198440266,0.49246548047704786,0.5167376706088429,0.5298338674665919,0.5529142262555641,0.592653799293136,0.6490255370153972,0.711127403104599,0.7686069151816037,0.8192300805916436,0.8459074972501219,0.8474428168612206,0.8395372226764061,0.8306912135778322,0.8160436377367861,0.7960391940450491,0.7687426844208425,0.7396537780233783,0.7170557156564263,0.6905704471154925,0.65405077830152,0.6121992857071036,0.5692939688146175,0.5347557591923742,0.5075702325916085,0.4779901807063702,0.4408353549024394,0.4116185157133111,0.39752793516564766,0.417138466059729,0.4607032394966598,0.500754955985507,0.38254092429450287,0.08647938023031274,-0.07431757733205094,-0.0854876680561824,-0.0170082013524132,0.051831451129535897,0.07181071836006374,0.050354946730220666,0.011743798052603364,-0.026765931364183503,-0.05609236434645509,-0.07888596190622955,-0.1073205016776773,-0.1596186471763829,-0.22838023056434664,-0.2926258599546556,-0.3427082148476047,-0.3787685346784551,-0.40236011731144067,-0.41206517812902893,-0.4096264524807103,-0.3977647283246002,-0.3835290516946517,-0.3730662147973071,-0.35868444308580727,-0.3392200602280685,-0.3104608663481146,-0.2795379766890773,-0.25188947283423907,-0.22619741823262476,-0.20219756258526855,-0.1765795144077717,-0.15208962629841802,-0.12940195988219,-0.10748809054515351,-0.08652745722832639,-0.0654863595380839,-0.041772519522971396,-0.013813347725132923,0.021592967431953058,0.0722615730925096,0.14985751340313805,0.24706093088108114,0.3347394758801144,0.3952481662789772,0.4213342031386571,0.3935924904490711,0.29790185734653174,0.1440596391365719,-0.018211715240275803,-0.16102124733348586,-0.2884018050261387,-0.3908885129851943,-0.4402120694196512,-0.42769076232286185,-0.3870388618700296,-0.3438997740931129,-0.29431887565164966,-0.2304876466777628,-0.14750931685840013,-0.05485433311045248,0.02315368303690217,0.06343309055692227,0.06578732472283846,0.03231788155037816,-0.01556738274451241,-0.039717852127166775,-0.023140888877486596,0.029854123773549263,0.08559254748860388,0.14712679979384108,0.2231077891353425,0.30898165233732966,0.39186852355905166,0.46184618155816015,0.5129600916341294,0.5467043967534044,0.5700113080036251,0.5917262471713021,0.6137473964186347,0.632467570118059,0.6416799913094878,0.6374416862185984,0.6111202854897156,0.5625022466808616,0.5067046303437536,0.46019513923497474,0.42419263471126795,0.3928087762898384,0.35707567179274324,0.300169072305776,0.2093340914868269,0.07541903707606691,-0.09284948241761047,-0.24260225342140762,-0.3471810132384384,-0.41585216574427253,-0.4657769892634682,-0.49965452129869464,-0.5242034326120836,-0.5502538030698844,-0.5910034080582809,-0.6515949043817276,-0.7077325141774503,-0.7229924364762146,-0.6764433868329409,-0.5752095173599663,-0.4497728282855791,-0.3636103927117744,-0.3610342239671214,-0.4306129426954423,-0.5202835201379177,-0.5982606856612217,-0.6615018701097504,-0.7281216291568485,-0.780288459728366,-0.7729221593270648,-0.6885354680435857,-0.54324355781594,-0.361665177475554,-0.187908841797105,-0.07048986672617721,-0.00014473756949835178,0.044176316511304874,0.07588406952283683,0.11163463127629614,0.1520661187293098,0.20285274074463452,0.26806556214014904,0.3443064889688421,0.41389364318098076,0.4493944626910079,0.43674560511650334,0.4092166465799739,0.3941628411273019,0.3853512498092488,0.3800467106476897,0.363873399648194,0.30739208833482073,0.16971534516890377,-0.09282096859903141,-0.34892470013841825,-0.4727474761931753,-0.5334684116329685,-0.5643513489597192,-0.5549949962443478,-0.49480790123410107,-0.41242095552891933,-0.32141279644783344,-0.2160446302628448,-0.07983480355046549,0.09847091440005794,0.3125878831960447,0.4928497434845637,0.5650508346283317,0.5492639773883469,0.5038861825019963,0.4561104797309136,0.4046389066177935,0.31540959116526984,0.17218546504296062,0.018632622396807096,-0.10181747830000278,-0.19181699754159717,-0.26808669043417066,-0.33525837221393556,-0.3853224508371674,-0.39059823861152754,-0.29917423997794657,-0.10726053189805569,0.04771590069628468,0.09524032793832919,0.06316552681116318,0.0045260547903701156,-0.02930154646409891,-0.019519186414800518,0.01503611564627659,0.03993738820843242,0.028800089599818075,-0.019411707712679162,-0.08997894499998149,-0.16378068903613813,-0.2276895991057762,-0.27821603728461697,-0.3150461962245886,-0.33501853556399797,-0.34081835297443025,-0.33231632456751825,-0.31304491089409686,-0.2897562020634306,-0.2791418947022505,-0.29269793865736626,-0.3374290337182552,-0.41065630540040776,-0.49876832968499957,-0.585947025622702,-0.629420725694032,-0.6155474961086767,-0.5790054357838812,-0.5469227847540387,-0.5203670896955556,-0.4903340806437615,-0.44767027248370267,-0.37995495270423496,-0.2911913863858816,-0.1982785484136829,-0.1242931171247486,-0.08251133173584631,-0.06844550212702762,-0.05052621277163946,-0.008901536139156325,0.057729947561763896,0.13000183429162174,0.17830874941118424,0.17262744896236978,0.09682438742123328,-0.04077075571315886,-0.1940251561645521,-0.3083817203218339,-0.37964346859889636,-0.4232917607990093,-0.44614554899804415,-0.4309446914684342,-0.33370084016888485,-0.12211814061679659,0.1411138128595249,0.3372159026259189,0.4647383957423636,0.5925712348857664,0.7349168981188127,0.8322948047498591,0.8596763297493921,0.8512027624162529,0.8330614267261488,0.8094594552665981,0.780946526515334,0.7566337010470282,0.7451064541089346,0.7462300235332642,0.7583000425143197,0.7768349164585473,0.7966734036649693,0.8162969646507878,0.8323527575430558,0.8428867146731914,0.8486613455962508,0.8519345900333493,0.8546911292859407,0.8573542846465184,0.8601736195417071,0.8624446480891305,0.8649924598795488,0.8631350497135443,0.8488144514886604,0.8009064971371114,0.6638587989285232,0.3175214017728086,-0.2084799989809469,-0.5635717774138159,-0.7154874881878819,-0.7796983433504971,-0.809721964257748,-0.8248973568850948,-0.834888425611624,-0.8448911443365816,-0.8504852006876804,-0.8461975025454028,-0.8378704394905,-0.8306716681807635,-0.8225917455286954,-0.8141454400512271,-0.8096115590891876,-0.8163270231336415,-0.8330301803030529,-0.8533035741948115,-0.8679389728591947,-0.8724208632862435,-0.8727961520268179,-0.8748963298158889,-0.8800687547717481,-0.8898920504089766,-0.9000152891063862,-0.90605514063915,-0.9078095769741948,-0.9094521392460039,-0.9098224498266637,-0.9062638014130894,-0.9010283871334824,-0.8997245338553468,-0.9023366491090723,-0.9075611284929187,-0.9153418978212668,-0.9032708122803335,-0.8190156756765393,-0.6463627749226157,-0.4710975373249652,-0.32873695639027006,-0.19566983727357115,-0.05833358628265484,0.06412581837730465,0.14062937748166263,0.15881133403777298,0.14058686676041596,0.12113021991010627,0.14345423582313635,0.21122441858191746,0.31780467845877935,0.45820820869499423,0.6011700793187928,0.6945857956860814,0.7375984492509717,0.7535091384266568,0.7691004366234583,0.7859764897252411,0.7967591505502083,0.7873372312293011,0.737312975545862,0.6250597115777421,0.44550808977088596,0.2402439807214047,0.08538619357397231,0.006728552011698553,-0.026859505774012294,-0.03937556174347863,-0.03258231681254326,0.03818959186372916,0.18260112609744775,0.33976444577979015,0.4375412922057022,0.47793609207659826,0.4910986694783645,0.49875544517584663,0.507372578620317,0.5222278268148492,0.5273518401438806,0.46180175396283374,0.3515463448855172,0.2765789610420675,0.2395495562049451,0.22188274196458752,0.21027071599740485,0.1851889265430273,0.13338380966944266,0.04886565400644566,-0.06437060536274568,-0.17735702550298355,-0.24279610703224766,-0.26552337616012484,-0.27759276790207865,-0.3042315830270481,-0.36524393902288416,-0.44488758749013313,-0.31732731831855154,-0.08802684573523753,0.00028383931699969334,0.013563375396628575,0.0016827502116576211,-0.005102483665220116,0.013869448200963464,0.07554326425780802,0.18149692615070923,0.3145113763614938,0.43195970474925666,0.5079159865800855,0.5495585912442494,0.5883167427250726,0.649083337747855,0.7286020532484885,0.8031375472081005,0.8441424618918651,0.8502679859698692,0.8416865198998988,0.8296931154628443,0.8156770298792091,0.7940441829380128,0.7542841037893782,0.6906019106520663,0.6071110867156533,0.5125482898165069,0.4109063505841685,0.2965996284591483,0.18002734276390173,0.09187167625178495,0.048620012064047154,0.02584354912305583,-0.0009843252889674427,-0.0480410180441269,-0.1202808083952801,-0.22676811086721574,-0.3980586699718854,-0.6790973169193902,-0.6034537628820634,-0.3569317685667312,-0.24908211139898326,-0.20025362241201727,-0.1654139037382991,-0.1269632902147819,-0.0753885048921665,-0.016551183605731375,0.033263426766129096,0.06258844487625628,0.07077704312078141,0.07075311788958465,0.07236623980074612,0.0724305698864658,0.0638358734971743,0.037595302742781334,-0.0068231632877913196,-0.07479625242793009,-0.18188041625080695,-0.32229491380296893,-0.4635016203152496,-0.5522446340690496,-0.5827574658627949,-0.5751476787280742,-0.5543419708353893,-0.5412764413421828,-0.5509512064108542,-0.5879933386279431,-0.6449086684163724,-0.7112827716663751,-0.7690369520083554,-0.8159297630987866,-0.853691592875882,-0.8744368274912954,-0.8725510620799957,-0.8594978106390595,-0.8572017403877268,-0.8703141672635909,-0.867908843232286,-0.8165525627241508,-0.7316937287377863,-0.6573567446750074,-0.5914942463496208,-0.49188073970117896,-0.32650057318329884,-0.11307228015507774,0.11142789235899711,0.3261281277566339,0.5358765069696176,0.7191712121205,0.8467323633791836,0.9153446611206565,0.946037883662076,0.9541821925506695,0.9480610133924947,0.9251431691287442,0.8874400624967589,0.8368090155331934,0.7838714701257384,0.7365376515975797,0.6905485036163511,0.6250932257926942,0.5164303881657919,0.35778577624308,0.17800343307978014,0.023465165560777438,-0.08766962672291155,-0.163870705142895,-0.24147708820549021,-0.31439022296782926,-0.3479036555761267,-0.36401695295181,-0.384692170025127,-0.43392624525367207,-0.514364608695982,-0.6053713665662983,-0.6886920221952925,-0.7529399135659425,-0.7877040715426405,-0.7969738279959986,-0.7771084200126985,-0.700451594624739,-0.5361153181101441,-0.3005498353507778,-0.08657657461847644,0.03107548857154822,0.021167925947669437,-0.09767452103693507,-0.2534657463633719,-0.4022262163335758,-0.5074100389107736,-0.5449748585239497,-0.42002453118211946,-0.09505307200624297,0.09546216140738785,0.1985641099839421,0.2862957881645157,0.3927052589112777,0.506281756325205,0.6093403527410649,0.6876569020517086,0.7347366787877297,0.7552913375888798,0.7469494929334072,0.7030156598502937,0.611503640023456,0.4896487388816508,0.3784468642794151,0.2788211555209665,0.15705042782847667,0.03907573213090144,-0.0346397033147117,-0.06256376306172223,-0.0581322774913307,-0.03506408495614742,-0.002132356212192938,0.034348170993743245,0.05945244004674952,0.06359753991223134,0.04256649620394058,0.004713006368074345,-0.038358503219747514,-0.08041906236549531,-0.1221705105492588,-0.16571681081335915,-0.18384391852189588,-0.13593226412365508,-0.05794353658111218,0.032912566428202776,0.13486422442904775,0.2014755519729298,0.19509521057654375,0.1287442677400143,0.06178109831375955,0.02842628469477457,0.02862127518759826,0.051155741903417415,0.08681274945883911,0.1254522483930387,0.16818931950261445,0.22060967314582464,0.3060470295917196,0.4197146299382156,0.4435216504605596,0.3521858353796169,0.27103912557772425,0.21904972476940904,0.18236501951545275,0.15242370402945632,0.13737547745847908,0.15981605027406415,0.2102295774191795,0.26826251961798303,0.32394024480149547,0.3656815881259411,0.3737587472832752,0.3184407711738859,0.18908143789835222,0.03418755797904386,-0.08915744940695955,-0.1735170021198898,-0.22654017357351736,-0.2568940905558234,-0.2722540637143174,-0.26918383336908447,-0.2550584489894734,-0.2408858943628773,-0.23598891993087465,-0.24478334740091137,-0.26569609189917903,-0.2976742451049704,-0.3402229749153449,-0.3951486585143748,-0.46151716306460144,-0.5320127195133975,-0.5916653669142253,-0.622307265474628,-0.617259439533552,-0.5826299098803467,-0.5352135972296957,-0.49263251173407796,-0.4769391511508599,-0.512231475886412,-0.6109691318026179,-0.7092946140474368,-0.7632445566149166,-0.7303885851401836,-0.5985045592942508,-0.44542005633016,-0.3069513400857011,-0.16946680974580444,-0.00041244238638864174,0.2167142963658677,0.42901346182473327,0.5875624458000808,0.6980584120980798,0.77340342068366,0.8184004013329221,0.8383254716281361,0.8440238025669472,0.8515507969794108,0.8656527405939214,0.8855041874959617,0.9070761210253518,0.9241222099375805,0.9314198856513288,0.9321033919941539,0.9307904532461085,0.928642956025702,0.9276892712977796,0.9264807505019854,0.9224221786280743,0.9047774884936267,0.8344748038709173,0.5951121432552644,0.04094045256960592,-0.4874377996944135,-0.7153486749595579,-0.7954202884750462,-0.8219505751848042,-0.8135719230825817,-0.7970346573063153,-0.7879702706758948,-0.7911362913774754,-0.7978420543649425,-0.8022783309574738,-0.802841364469504,-0.797259077407693,-0.7889026472074531,-0.7770908305768321,-0.76032337207055,-0.7468625646431365,-0.7433200708679476,-0.7562787650454901,-0.78671256380534,-0.8183209499124092,-0.8407047587369071,-0.8517480338101558,-0.854612489655392,-0.8474134088022335,-0.8321485610319201,-0.8147803133889366,-0.8088712020385159,-0.8179443700134769,-0.8321202783495262,-0.8433294869548424,-0.8344620421215591,-0.8019066892060388,-0.753273370452857,-0.6910967910768739,-0.6162924391080066,-0.5400561722102197,-0.4761283822052621,-0.4385639165966367,-0.43132940100244893,-0.4332009946064375,-0.3761128696952721,-0.21324401057481054,-0.008968557899123781,0.12430690708184088,0.16248398573133835,0.13203541816495679,0.08393554013162656,0.05290429553388525,0.05938475500880254,0.06869885361181674,0.048572813386429776,-0.01572499229029178,-0.10883196689400773,-0.16191910621223554,-0.10119473059891035,0.1050127127186057,0.3372155981281073,0.5076170255223071,0.6127251988927073,0.6768229632995523,0.7167369101766078,0.7088015042596176,0.5820563162767595,0.03666114063113307,-0.6331956319679021,-0.7626050394162089,-0.7167424730601147,-0.5441782263921301,-0.2324054094278562,0.10754524768277685,0.2965401589744188,0.34396234438011036,0.3129379643165198,0.25540176281111365,0.20100803402547435,0.1587439059147111,0.12743449149597877,0.11050229894643875,0.10444722217168331,0.10465978076215002,0.11324096612418573,0.13918320720323837,0.18894444008635455,0.2594476803277665,0.34059555746084674,0.419139449241879,0.4704805531772099,0.48716147765114487,0.5232989441108236,0.5947324819482623,0.6822896568816887,0.7566033789937997,0.8185324087732594,0.8679441126669624,0.8925287283533382,0.8844870724947755,0.8594908141920954,0.8355746535268517,0.8163407096337338,0.8050663194474782,0.8078805430888326,0.8234474010716296,0.8391417640822627,0.8417527502057688,0.8273416320673707,0.7968201433695254,0.7596065589189521,0.7355658970745548,0.7383667506253703,0.758266966737507,0.7808488446861312,0.7945772822329047,0.7945631987893723,0.7790599227985481,0.7472040099224041,0.6650342588917925,0.4761167712925073,0.20952322232214957,-0.023270286640007912,-0.19574231838827766,-0.316971492019128,-0.3702164546765438,-0.364193112505037,-0.3160703490955246,-0.2803648753229117,-0.30073773741306087,-0.4061459869034889,-0.5673092951376522,-0.7013373580283025,-0.7675088033397439,-0.7860964451918109,-0.7826669293311437,-0.7533368717383709,-0.6638492542321857,-0.49655123624558983,-0.28012695786618985,-0.06818348040235547,0.12643258414276595,0.29278628056426725,0.3605407452733648,0.3386508110510334,0.33492105268486366,0.3706412654519394,0.4189971463830867,0.4637707166170629,0.493346088763562,0.4992357591880049,0.4895304456958631,0.46786877334892313,0.44010515880227685,0.4000079902062948,0.32955101372203705,0.23164554057663192,0.13692347121827125,0.07006669460449405,0.026792451800705504,-0.018700912823933456,-0.14422618424070244,-0.3846646922971302,-0.48548587320410735,-0.5057640144315831,-0.5194646299907516,-0.533302828761659,-0.5515494725555711,-0.5784693338895619,-0.6169971486875456,-0.6604168128447441,-0.6938454250117495,-0.6991780567480272,-0.672657012725417,-0.6294067272635839,-0.5833632288266535,-0.5373211019560084,-0.4982477906077274,-0.471557816517396,-0.4624357547495632,-0.4713578816711558,-0.49225967607502014,-0.5257495332419013,-0.5796316474219756,-0.653896783368665,-0.7260309046133342,-0.7172278405005944,-0.6056041783977446,-0.48636626444240727,-0.3921702295517414,-0.2914932983588024,-0.15738837073774203,-0.027361352420190447,0.05570657725899302,0.09427205708553187,0.10954071787110714,0.12307947284821566,0.14022858047411338,0.15586359941663802,0.16576272626565158,0.16884121753901468,0.17332265947800216,0.19080043707249508,0.2317768511584017,0.29258884954848535,0.3511367735444361,0.3884608071278425,0.4000791230812006,0.38772840461675,0.36848705160326245,0.3610137076215948,0.3827972468948789,0.45109759534712246,0.579413525446835,0.4446763912198632,0.021003374468840496,-0.1298806101565136,-0.17144561732280894,-0.1628935915096242,-0.1368239674123131,-0.1275286883938,-0.1501337798000826,-0.1841244558658667,-0.1938850193042092,-0.16288455827554532,-0.09904006529050778,-0.01273000474333163,0.07764645460315665,0.16258521496074355,0.24339428982995745,0.32206423361698094,0.39180253462025866,0.4095416119765862,0.3923688708865721,0.4070718505204259,0.46988701734580285,0.5718416639629534,0.6907443787376604,0.7819065915716031,0.8059669295321447,0.7750282044422687,0.7275366819096843,0.6865851223301154,0.6554804659291603,0.6295618674987253,0.5984249891386032,0.5127166976902189,0.36401513824663984,0.2632971132006599,0.22999710573770923,0.2257701493430884,0.23055844681276486,0.23919948769976154,0.24534569451682658,0.24296193655312617,0.22455461345203323,0.18463075984423946,0.11980366269052219,0.038291580481412554,-0.03935312283707168,-0.09284944809396707,-0.11980594775703224,-0.12976236841622488,-0.13943569827705843,-0.17196225574285928,-0.2651708754619695,-0.5803794290126658,-0.5264008540657652,-0.26281034288808786,-0.13930444148152854,-0.039852493507050675,0.04737634123332,0.10365829839646146,0.1150240123239794,0.08685846825850546,0.04670434017208144,0.018825315919057676,0.023690955826344146,0.06607878892910228,0.13708414421175863,0.21389029758883873,0.2636442229433036,0.25708968976692925,0.19460812494793345,0.10818355775321854,0.04181083022867277,0.021039645937049652,0.05602152867759975,0.13504075005669455,0.22767516040831598,0.2993960415687909,0.337624136059464,0.3551614728249087,0.36055119303964406,0.36772256404868686,0.39048501750321085,0.4317860935539812,0.4777693376832546,0.5273182995888005,0.5831095232004788,0.6442113412559904,0.6998375908742411,0.7415420495190538,0.7627720748193341,0.7604913237276592,0.7249571183090336,0.6255584060786559,0.3416935937120098,-0.19902818042611978,-0.5527761368461921,-0.6969998252867723,-0.7623772776633483,-0.7922444742180148,-0.8052696787852871,-0.8167649157692064,-0.8355081419723351,-0.8572399276748011,-0.8678967227876917,-0.8609846529681169,-0.8402468840576065,-0.8172131470026174,-0.7950848237756071,-0.7726051117545402,-0.7513963889067553,-0.7342301671441577,-0.7287762489741019,-0.7386781842570138,-0.7601608307624862,-0.7729502481145217,-0.779539313540453,-0.7850332796608965,-0.7875554223213036,-0.7908402440317174,-0.7983324957897926,-0.8059487345874874,-0.8014448704931377,-0.7803162913078654,-0.7486440375500634,-0.7234437435690545,-0.708034350509148,-0.6984856093529214,-0.6878523206126415,-0.6781625700890138,-0.6948267349008808,-0.7456631218596094,-0.7819723224277786,-0.7740084932229851,-0.7553344849270721,-0.739153864421517,-0.7173158716042439,-0.6679750245956562,-0.5908604885674277,-0.4999779629807109,-0.40332904992010526,-0.3115325010496885,-0.246992443528674,-0.20058127942511303,-0.14945064600489658,-0.07624937951032201,0.0377182092052481,0.1829086012106182,0.32749366328390467,0.4453436104695655,0.5425945577907492,0.6361312729980424,0.7181190881152331,0.760244445277644,0.7463977677230709,0.7049840591863359,0.6917645067196412,0.7253154845448767,0.7667171051980175,0.7700515749081628,0.7537560305536266,0.7402818674411581,0.7301718018804388,0.7225502842787964,0.7221426743636384,0.7167066965604968,0.695457980034038,0.6627458358967668,0.635269881528959,0.6182540464541786,0.6098890334421095,0.6095700845155353,0.6163384421363564,0.6294121834900839,0.6452206094072532,0.6610612270635109,0.6821871197541045,0.7108500308676481,0.7429898828201599,0.7751035223219084,0.8045151890822462,0.8301536965208549,0.8480621877535974,0.8587050868066497,0.8657815804146097,0.8707785956547224,0.8690270996029498,0.8583587337114126,0.832914884173764,0.7533910602148197,0.4090440678900757,-0.2701163947486303,-0.5936437260937034,-0.6988816607849744,-0.7329926703628663,-0.7141596818171094,-0.6590893367480903,-0.5815386254654475,-0.4910213936837136,-0.40394748110039536,-0.3450568460325567,-0.3298185362723117,-0.36466502826727254,-0.45175419105108955,-0.5722584925525059,-0.6742811785057151,-0.7332016613175524,-0.7695534577372,-0.7989152649855146,-0.8237628372181165,-0.8432653635429167,-0.8459070350566902,-0.8245898322138152,-0.7851127803896703,-0.742269086046397,-0.7065142555830491,-0.6643840289910481,-0.5614152759374401,-0.3627228489831175,-0.15330922677160724,-0.020256701187391393,0.027881432434614762,0.0204499811955141,0.021289621822496507,0.08264443270435068,0.23568740168479335,0.34882084110971806,0.33965512298607886,0.26736919550148414,0.19571236013806415,0.15287179920003807,0.1420830484890869,0.16409815818457732,0.19679213055525216,0.22429535832882402,0.23695326188997354,0.24064485463734753,0.2343652865224191,0.20857280403120923,0.15338588500630126,0.07770856073155265,-0.0012171281067543118,-0.06922737367292096,-0.12328606600676148,-0.16274822952396442,-0.19697350409274345,-0.23360858679762275,-0.2798302937232368,-0.33608371939683024,-0.39673355729088144,-0.44685411796029,-0.4858454624752655,-0.5169109992062397,-0.543965348368638,-0.5614844530109138,-0.573430597854069,-0.5879961093881958,-0.610560850782903,-0.6403043081342629,-0.6613128067426968,-0.6603143488690371,-0.6394285130277805,-0.614550906655899,-0.5906993006134145,-0.5628552759607788,-0.5127268065925972,-0.4144225672888957,-0.24310244789402963,-0.003120716269570453,0.23745962601601986,0.38875891776728305,0.4716850826527796,0.5313337409242861,0.5923089398518258,0.653124025211675,0.70741907062648,0.7531169126733316,0.7901856813144361,0.8137998266504478,0.8227653537427746,0.8170477520478447,0.7975526652247164,0.77222410916414,0.7471687790623206,0.7265252182181992,0.7086197087273889,0.6857813604086812,0.6460515606770258,0.5886994478736498,0.5053848892300246,0.37804614449789564,0.18580191528540627,0.04312524950954282,-0.009362855585168252,-0.10013353665092888,-0.2632002596908848,-0.4181550312544652,-0.5099492696110736,-0.5618161116225014,-0.5925329648258807,-0.5994735523876243,-0.5862577702483037,-0.5690982419931647,-0.5708193601940318,-0.5913193020068458,-0.6105618204960452,-0.5948018471529255,-0.5123922152903272,-0.32738820059650225,-0.07267483952372199,0.11041344251364539,0.19966832036249613,0.24938298768327916,0.30504747144410793,0.39237131052287527,0.4904516497539521,0.5780115927077787,0.6373059231375523,0.656999319681283,0.617582211828734,0.48101658575311684,0.22371507289198994,-0.0445823273275549,-0.18971290568339488,-0.26131644423207173,-0.30813517482954095,-0.3431638467716661,-0.36485148719866173,-0.4039796877498135,-0.4640200055308394,-0.5520174553333334,-0.6327693696317741,-0.6828085454559412,-0.7075443463910297,-0.7220253481662519,-0.7379840243472022,-0.7480079409926088,-0.7444136324445688,-0.719127188104588,-0.6679488941579133,-0.5992463139755719,-0.5325457940909898,-0.4869323336639991,-0.4947843972764872,-0.5725703323103501,-0.684262831771817,-0.7548141578429821,-0.7631976260596911,-0.7337078012508502,-0.6727937138322305,-0.5946853777977006,-0.5166429410744912,-0.4520846462042229,-0.4123032515745942,-0.4015877906838063,-0.40480322147115605,-0.3934876390295926,-0.33041708458583413,-0.10843573233640491,0.1691095990288227,0.3358893102768238,0.4440305729745815,0.536282564307061,0.5945056318942329,0.601396629705561,0.5565895371752415,0.4760590964242167,0.3988001503971655,0.3549719012553406,0.33698859477561616,0.3272525403450958,0.3199788912163319,0.3127720681345623,0.304323757226711,0.2967445234587222,0.30063270620771704,0.30439874003757383,0.298330318440401,0.28321076654126837,0.25496597595773113,0.22194307312819972,0.19711683281514233,0.18261462694989286,0.16803937482591488,0.1711996617064723,0.2127049671107546,0.2938847760779074,0.37470093827420536,0.423376262186105,0.4336116533641421,0.41281726224027865,0.3831091541719507,0.36109081555653827,0.33302932906319765,0.305646683926868,0.2978954915254477,0.3287317127951865,0.3691697946087695,0.3645705996012388,0.3062977068726159,0.24654250005595382,0.2056424133974087,0.15836661837183347,0.10143570283388419,0.05515149667381513,0.04734387252841288,0.022560360090089996,-0.061808805820846094,-0.08823234858888813,-0.013298045902151489,0.16546441009661553,0.3894132554564368,0.5456716057295962,0.6119101189883407,0.6254954855575243,0.6003297880713387,0.5347549599495044,0.4077571417319559,0.24917707700331423,0.10171676549645285,-0.025349322505930215,-0.12513172396680272,-0.19357294226800736,-0.23347074421259015,-0.23577114907156219,-0.20332241505298376,-0.14427197314241713,-0.08394928657651363,0.003165565324394004,0.11181896478041628,0.16534932117289744,0.12131122116850997,-0.008115181688410645,-0.14180240637473546,-0.23163374338255965,-0.27164752240599416,-0.25205030018182395,-0.18723212521735366,-0.11189558214129727,-0.04061308914722404,0.03151587537745154,0.12207470001723578,0.2661754143342615,0.47969619175370115,0.6359330957639594,0.6698115818341553,0.6806122614295149,0.689938068118597,0.7003825053499823,0.7104049977952042,0.7131058750217971,0.702604813960025,0.6768267289217307,0.6587675089720557,0.6819997048854435,0.74186613396476,0.7488619078083824,0.7177350256427468,0.7125610441079718,0.7306300496980009,0.7617629800698738,0.7936274458078527,0.8168316085477678,0.8265506965127338,0.818878452401431,0.7773619422431686,0.6439344195553655,0.2674919841100784,-0.2529133470263136,-0.5244895212704501,-0.6201866493922377,-0.6425795924809788,-0.6169604868100856,-0.5628130278919087,-0.5093020090061638,-0.4716441950635403,-0.4503945608761768,-0.4432054282322204,-0.4477344473870656,-0.45936779472951106,-0.4781765628431356,-0.5057359952475033,-0.5512321745319243,-0.6287749237633697,-0.7376183072522869,-0.7294665498042755,-0.5012856902227637,-0.3262577130554092,-0.24525780503159328,-0.21707476466876843,-0.21754093705013108,-0.23284030086629784,-0.2339488207809987,-0.18662940367327355,-0.09456329340761073,0.026289778195218074,0.15160316799941126,0.2564344577682967,0.3327203491170523,0.3754078298709626,0.38286571374110345,0.35958539240412385,0.3118871325882265,0.23337987241103395,0.006201016297624361,-0.3007462073953143,-0.38990316690628396,-0.4197336958568559,-0.43611393594030995,-0.4450160601782898,-0.45110973975146995,-0.45620707428996793,-0.45909024840721935,-0.45616665839260034,-0.4629842966175154,-0.5053411672627647,-0.5902639346316808,-0.6736280690010275,-0.6847444047623762,-0.5808751298456385,-0.4222286690443908,-0.28819558238712467,-0.18762925595839897,-0.12209946426443505,-0.1004891072648338,-0.12412989344850892,-0.17513699530303878,-0.2474647763343941,-0.32815259497795696,-0.34867593840272554,-0.170239085941212,0.01620772532547954,0.13182177266680856,0.20307587115717032,0.24273501576817694,0.26509609824575775,0.2823793786690232,0.30266903000431483,0.33579350491535065,0.3641219844578885,0.35615172627461433,0.3100488045016353,0.22381357931234966,0.11612998250717564,0.01304268167762584,-0.07816418263420141,-0.17201890975021408,-0.27670637097977,-0.39049741415010636,-0.48229735782751826,-0.5160952773887514,-0.500424994274339,-0.45539237826077,-0.4027923986782907,-0.3522000241935615,-0.3080368314651622,-0.26529490860762717,-0.20741173123341966,-0.09394392051943423,0.1256524988154845,0.3887243962737228,0.5455009272488134,0.598307667488974,0.6055119324183306,0.6036030896718041,0.5956279379219943,0.5819156108943709,0.5677909138951781,0.5548780440198444,0.5436716425003955,0.5167635791880927,0.4465766687599524,0.3163330737726235,0.16353202246032314,0.025396448689921067,-0.08475569103764656,-0.166696219608507,-0.20963795781613953,-0.20340844058073046,-0.16119566854947964,-0.12358695518707236,-0.11904474371074734,-0.16233434961641433,-0.2602671243784822,-0.3823196373089435,-0.3977914734339486,-0.23839079836436952,0.01620836538966283,0.24919304289820707,0.39313199175466207,0.45795567321052827,0.4895362943051879,0.5174691431204401,0.552888347382766,0.5583012944446158,0.5073151518498017,0.4269533826238791,0.35691467650108816,0.3139825320893922,0.3012781834501799,0.3107961345344962,0.33308755746713026,0.3475815268771875,0.341324154931126,0.30203424774689247,0.24782768462507607,0.19222621526010858,0.12220296762184688,0.037640895434076546,-0.03919115542092174,-0.09377437091730736,-0.13933024629511295,-0.18967646593206536,-0.22927494214175068,-0.25248895121432113,-0.2626731883778934,-0.26486640116313115,-0.25566900622317373,-0.23358871711943466,-0.20073519125319633,-0.16477534690494083,-0.1261916754585011,-0.035063514900486745,0.10519002502435086,0.27363777245156645,0.4304241227907837,0.5150170922448426,0.5371059117819101,0.5238000050808692,0.49849833557128204,0.48612909506046087,0.5090740281099878,0.5705836237043761,0.6591134489266087,0.7475174906674861,0.8147835352764045,0.8569438428917963,0.8829384847232561,0.8994787975738467,0.9113434886650469,0.9189978131247089,0.9196058408919392,0.9106848534067296,0.8906776751096176,0.8592838962454044,0.8031837957126335,0.7087269943601204,0.5729834216248584,0.41024959426176666,0.21363758560454052,-0.012742831016672748,-0.23580365194236894,-0.4000472668675293,-0.5097599253720927,-0.5893275945997728,-0.6477451856830717,-0.6913248089269318,-0.7309528981737929,-0.7602457444636106,-0.7768963208756373,-0.7864809204559738,-0.7959718911278203,-0.8052713706963978,-0.8089060467224777,-0.8054350270727565,-0.7963318628466759,-0.7911168119859141,-0.7977000514301446,-0.8152125965246906,-0.8344575992900279,-0.8399566576974179,-0.8244153508584099,-0.7968907227320495,-0.7738752722441693,-0.7682322325784735,-0.7853748280580853,-0.8113069243423531,-0.8376256065161567,-0.8598723050294992,-0.877900696030541,-0.8731779272188812,-0.5837478839957007,0.07373119111957002,0.29676924758187223,0.2911261582069767,0.12054361787313744,-0.2733846224760028,-0.6440116462679959,-0.6833636104337099,-0.6537267273548067,-0.6391923740541856,-0.6409783248809691,-0.6443947948982955,-0.567226619768273,-0.34206378640775875,-0.15794664290642568,-0.06921347917057655,-0.009912073926877134,0.07866047266110618,0.20229787882637396,0.34739419349621364,0.4943169793970129,0.5940695697009641,0.6368076748986237,0.6391070175718131,0.6145081951116182,0.5862730253936784,0.5798700509495729,0.604828887697326,0.6491964443962853,0.6958702046895097,0.7377496009142814,0.7692540278411492,0.8011461786062877,0.8324989477673843,0.8561634999016519,0.8653931787054283,0.8574736491039203,0.8363434653774754,0.8140037035027031,0.8059764604875637,0.8149708423953572,0.8271616041112947,0.8344161652267983,0.8300502932246769,0.7941822873436275,0.6692635426496878,0.4583603040533837,0.29213889432343343,0.20713557995594756,0.1715483056231393,0.17148782780824948,0.19134807003743484,0.22110084395424898,0.24956010673723436,0.2629245507647061,0.2456004353910638,0.184880500640025,0.04552248901097259,-0.21742450358240675,-0.532204249904155,-0.7172028772014497,-0.7795197689962555,-0.7928957496912338,-0.7952840519684795,-0.8008036623798499,-0.8148911549976167,-0.8361995546158385,-0.8562455162421949,-0.8646482811123082,-0.856000220320572,-0.8315127078618239,-0.7949785986747421,-0.7463696924743363,-0.6950503451436099,-0.6521858435914677,-0.6191005592227012,-0.5970488938110025,-0.589361301360687,-0.5832012266157528,-0.5662316624936774,-0.540428584444332,-0.4938734285265727,-0.3939145030225043,-0.12772611640617568,0.4185439734411596,0.7278154294583575,0.7765530848344387,0.7824841807515384,0.7833231318433067,0.7807450513678773,0.7721808059844987,0.7555507405248979,0.7104543985681895,0.6235113125108003,0.5213601785388775,0.40298672359024196,0.2720732207618338,0.1637016597745811,0.10352923611654594,0.07137771925415437,0.04462599412365978,0.01639355555873742,-0.015243196300140356,-0.045496724643140016,-0.06084034250772798,-0.04722439805268986,-0.014548071884592872,0.011114059230186747,0.016658074829939657,0.004617316247090622,-0.022543187856961345,-0.04915948334842747,-0.05600007316897434,-0.01634060327543152,0.05905808888948134,0.08218762193121947,0.06233776481134305,0.05434970318903507,0.05639203353696247,0.06436381260382258,0.075332731751767,0.08912453867038246,0.11046542925318889,0.13514457207894776,0.16122394409999496,0.1854614665810533,0.20367421588471055,0.22004360913156726,0.2471308227988177,0.2851182013418618,0.3384195993183765,0.427861211390223,0.5686715588214417,0.7058462368693438,0.7550261678398194,0.7536233855397937,0.7502482023295596,0.7454334184721563,0.7201199220824147,0.6461646367700973,0.5059327848343957,0.3451588755996921,0.23163494200912882,0.1749474778587364,0.17491856392500416,0.19891931648493033,0.22849928587066098,0.24515680151674898,0.25219425776147353,0.2501977546185411,0.24250871674572466,0.24488680354300169,0.26301475858794987,0.2913355434887932,0.3078037096767668,0.289410980729686,0.2311215164150688,0.15450368330630465,0.08575588488996848,0.029387225582097404,-0.00939418886465923,-0.018658636879628928,0.02338051890830184,0.15878630433339144,0.37303729967193605,0.4966594957314218,0.461105659712601,0.31557933477314587,0.09092633515117303,-0.17085494146319422,-0.364417576361103,-0.4599429181914204,-0.4773096489994607,-0.4504387889679851,-0.39922276357680364,-0.3408147797879939,-0.27920564769454737,-0.21691641537752474,-0.15280629698351114,-0.09350969462443649,-0.047369749121627544,-0.018302573386600195,-0.004798078838481554,-0.003025621754937288,-0.010359905221347849,-0.01677348830502465,-0.021441459402703065,-0.026600508342945466,-0.034820617554840394,-0.024117054967299784,0.021697410307925418,0.08995241464216296,0.14707872366854727,0.17919371825545868,0.1832297988970409,0.16802545872258604,0.15012760851255497,0.14828152150179125,0.16943819862315154,0.2003435252120529,0.21597087790772604,0.18958478237516582,0.09902130434965685,-0.12630683943326582,-0.49935536692581595,-0.32306813540474344,-0.2088912100314825,-0.14461000634075127,-0.10643238952215335,-0.08373646452159171,-0.06970639284931072,-0.05874059015262775,-0.049627455434852204,-0.04198933539649595,-0.035923017707256116,-0.02932802865622481,-0.02266268125941259,-0.0159906665654743,-0.008097769820215416,0.005493168714478279,0.02900284092354564,0.06964011125927203,0.13643385663702934,0.24057455947158501,0.41343238762831735,0.6535969970648807,0.6576011496647409,0.5716510386814274,0.5478954142771982,0.5663825123336846,0.6069149744391475,0.6487077349824165,0.6829743308566955,0.7061521412639715,0.715609253170293,0.7106551183956289,0.6892947486595379,0.6378805637344642,0.5186410737974749,0.2609634298301799,-0.12031499072705167,-0.41792651871792674,-0.5717585319088184,-0.6444849688386107,-0.6787948293576144,-0.6945054266099759,-0.7001627190978766,-0.7025470314973558,-0.6993950120698754,-0.687256727782054,-0.6664220557180759,-0.6393135000516282,-0.6082768989700955,-0.5732227166208891,-0.5343054390281777,-0.4886463688810546,-0.43425586484323325,-0.3722912531460085,-0.3036594845850049,-0.2310820064325182,-0.16251352418149617,-0.09718260347300531,-0.038734865746500424,0.022869796679335738,0.1163602909769458,0.25387584787513173,0.4293243201631718,0.6087084172542272,0.737102069831346,0.8014155366661071,0.8301967012286334,0.8470428572024403,0.85776544896053,0.8602016573449688,0.8516024947158418,0.8292830520279837,0.7864409918361698,0.7093080376030506,0.5914151430389034,0.4213477050404777,0.16445841209908332,-0.2029059106358372,-0.49851180084065716,-0.6348197839436133,-0.702393991324638,-0.741153820373537,-0.7580384791902207,-0.751369910913822,-0.7342627024433331,-0.7308743322610034,-0.7499202625732522,-0.775551202893056,-0.7877218164383654,-0.7783539989057825,-0.7498329209421829,-0.7141196682182218,-0.6765496175616892,-0.6357035489685416,-0.59641014273048,-0.5625127044671901,-0.5407221980192864,-0.5288358964157525,-0.5184625212461517,-0.489262856907616,-0.4299690202363009,-0.34886141759358413,-0.26829987111234427,-0.20369000452031047,-0.15221808973315037,-0.08925707897777617,-0.025918626391088266,-0.00809576557229684,-0.04575898878223481,-0.11826180889233048,-0.18786071525900033,-0.23626725268625215,-0.2556128774257366,-0.2506550018230678,-0.24511585367106725,-0.24399685601450016,-0.24219802325787287,-0.24219969541407363,-0.2573455579518256,-0.29424520253639835,-0.33475927665284216,-0.35089413024661087,-0.3462123482016994,-0.3228565907326119,-0.2705368896494358,-0.1885213009483324,-0.0957461124685889,0.016203625491401173,0.15825543269922682,0.313763297115396,0.43423625265864046,0.5057898265615504,0.5512642884397991,0.5941855711560037,0.6395663038806084,0.6934664453608842,0.7514297365325316,0.790163968933406,0.7827929616103514,0.723186514916661,0.5819421225423365,0.3155702675206372,0.03566786014434519,-0.014637678269695,0.09614336514244752,0.2108963537562021,0.27057597948587836,0.3120856638113191,0.3521191309986567,0.3795699058398692,0.3886743872246181,0.4000438122048126,0.44958207987478127,0.53211956699682,0.6099275693174532,0.6524952218279358,0.6460310828049417,0.6156933587080579,0.5951388011015539,0.6088648075331392,0.6432691871463517,0.6726047004538682,0.6811962325204318,0.6653683665434387,0.6494740678385958,0.65515536615022,0.6911249455166131,0.7542395546878807,0.821511404578202,0.8764315890970553,0.9173265651039668,0.9423407846512069,0.9548341272711955,0.9418223201571116,0.8749140596852822,0.7204293073081348,0.4807360309807362,0.2283157396372134,0.04433434743963978,-0.06429284398357106,-0.1256988211196229,-0.15727075526900025,-0.1547930667380911,-0.1260578938560308,-0.09900378682047978,-0.09531863270483291,-0.1376601550123559,-0.20957665102584072,-0.28793934053716863,-0.3601040091095915,-0.4277195524843878,-0.4871227284294765,-0.49923139734544847,-0.47322778318685166,-0.45403843968011837,-0.460396115039798,-0.4627403298047453,-0.44555261101676674,-0.4106912102457501,-0.3535801721411297,-0.25851386730784115,-0.11355545579709939,0.02016209661466924,0.08514679426911266,0.09753043793920446,0.09525745781334963,0.10613572023623484,0.11928462723704444,0.13249910448541938,0.16292595198102927,0.23946423258441885,0.3475832839065191,0.4583253013955209,0.5658588780945276,0.6633909474652656,0.740006225322575,0.7878683609856992,0.8052473262976986,0.7941241933061816,0.7524569274684276,0.6596592541900271,0.5308674928167014,0.38219501130262395,0.2301307612981908,0.10496344356022644,0.007553566334660724,-0.06035322101495984,-0.10971686675260464,-0.20040089453456522,-0.3755798395303877,-0.5982781998471641,-0.7294004490522984,-0.7533894659290039,-0.7357695443283351,-0.7021354977135725,-0.65622654090207,-0.6010185284055652,-0.5349370160900591,-0.47190376316150995,-0.42646476133275396,-0.3930217727761229,-0.40127478366187264,-0.49615439253666804,-0.6401049192451774,-0.7346245182042753,-0.7769688157979986,-0.7876319276273784,-0.7774619535121476,-0.7592838119179193,-0.7464428150785575,-0.7454213838719709,-0.7572228411092652,-0.7688180387201606,-0.7666271696212592,-0.7195978432362232,-0.577139587596384,-0.2692465763167983,0.07959599616934294,0.2940534136061958,0.4075786629912477,0.46767810700413515,0.495753807190063,0.5020995316212153,0.4880722320284097,0.4627848175064545,0.42952059722974134,0.3820881569050102,0.3258779924587524,0.3206931379758497,0.4047927049401769,0.5756510994646332,0.7598213895739968,0.8546380905370896,0.8511721382526765,0.796195269706783,0.7125370063061642,0.609323848121176,0.49158488249676513,0.3627472364037472,0.23308178424440526,0.11359419263755853,0.010450822574809514,-0.06789905858082539,-0.132228393893812,-0.1950662003875112,-0.27647368375556647,-0.3760662992278591,-0.4391978690408404,-0.42823110183714597,-0.3797008730363203,-0.3472818321829246,-0.3656805763888174,-0.46761936525557574,-0.6324294879819417,-0.7379326155967793,-0.6641522117108772,-0.4549248027145405,-0.21101191089696306,-0.03698994242843278,0.03434607181415829,0.0505712382640868,0.05998507379164402,0.07566713327010859,0.09294489431499456,0.09472972167061726,0.05393930536729094,-0.02427494338911084,-0.10605749928869225,-0.17287358633715924,-0.23353598253916744,-0.30112423710458947,-0.38194772812221334,-0.4635894713863542,-0.5257043741617727,-0.5399797899421901,-0.5018227154382364,-0.4044621340296224,-0.3189670125587254,-0.2859182074697481,-0.28763732954507637,-0.30059207515945896,-0.33506590724472995,-0.40954803476072804,-0.5503117090926621,-0.7628998908994996,-0.6083381823181615,-0.3275381375604391,-0.20689602122725848,-0.166049882158077,-0.15024955073459434,-0.1387462780542242,-0.124697182271358,-0.10415998333799306,-0.0729778492622796,-0.025408669578477913,0.038970108096253876,0.11172399142023683,0.19434157939780733,0.2927189037517883,0.3962026739432876,0.48342858438494124,0.5399665079941104,0.5690949595937667,0.5823983432770812,0.5892044591302291,0.5967201555001362,0.6004710587285758,0.5785583043498915,0.4859144833624923,0.3140555322999353,0.1455233478359121,0.04558545485908053,0.019857733302676914,0.06498984919271494,0.17519350410149304,0.32413984185088845,0.41530248350257337,0.40669323176158073,0.3402145950715329,0.25294969760059105,0.15737809230774288,0.06457758452398521,-0.014553239125825512,-0.05695652350660898,-0.042551170253810715,0.05851232116889309,0.22113849063906857,0.3574336343450815,0.41864249342040066,0.4247192834087194,0.41029398448931254,0.39204777183495176,0.38188587135506813,0.38934489267680095,0.43273285308030657,0.5123008656265895,0.5951127174599988,0.6529995262582681,0.6901801606661477,0.712724267989548,0.6999907067040537,0.6443158040615616,0.5504073521626353,0.42287941047132793,0.25463702694832296,0.06205999906762771,-0.12054526977044622,-0.2848203620830303,-0.4492629040055567,-0.6202639534629404,-0.771409161946369,-0.8531797876896982,-0.8743193629109408,-0.8679430413964809,-0.8389033483496271,-0.7893185832039094,-0.7320746885125563,-0.678650673865366,-0.6348293141916277,-0.5941458292908373,-0.5561119965309106,-0.5207628480150609,-0.49240151409502014,-0.47126748264011487,-0.4560300381926357,-0.43842002850752115,-0.4131125112929217,-0.38059443481907007,-0.3469603377696228,-0.3141060446115735,-0.29450408632736214,-0.2975037984066166,-0.3150605928564576,-0.3158466433553551,-0.2830421029081983,-0.2236855607011597,-0.16327849603444727,-0.11110502527927646,-0.05803261425028342,0.013949218635276456,0.10940411906412187,0.2067435769981777,0.27980020978631603,0.3011098365919499,0.25781590726684767,0.14560133140974024,0.008990108181492828,-0.07553467005054039,-0.09785309006525239,-0.08173163768509495,-0.056225049062354884,-0.05037324516676508,-0.06414337852577816,-0.08113162652238298,-0.09864503848483554,-0.12337542421904886,-0.16161553099466422,-0.20514491780298158,-0.24710722525155765,-0.27546154211263524,-0.28703333585102103,-0.28857338666421084,-0.322275668215636,-0.4103974958316719,-0.5220296637804291,-0.5712686359158291,-0.47212235687640014,-0.19334275919573765,0.16895793653949917,0.399842365202915,0.46841327224495505,0.478501209790843,0.49888638539097785,0.5470812306102492,0.603084483373695,0.6494464972699774,0.6933168302658307,0.7359382309962724,0.7467815934171124,0.7053876568759155,0.6373703297301985,0.5983813890186268,0.6014972411908519,0.6332423959432738,0.6778466149039553,0.719651355459665,0.7534446096174197,0.7807374393252853,0.8025788686701033,0.8251481797659909,0.8473161530727125,0.8625158603521946,0.8600664924230556,0.8087561333192843,0.576793942541192,0.07651651239123881,-0.2522561255902215,-0.3224510067552743,-0.24565744169630707,-0.07838555397986179,0.12732733174436764,0.3036379008348876,0.42854186217673795,0.5155513335275496,0.58258141816199,0.6277019622665814,0.648326338813577,0.6344429729406822,0.597437495320129,0.56096242645751,0.5452995698690091,0.5452066867807888,0.5331031676843608,0.45981418719275924,0.2567021556725357,-0.01043307056077646,-0.205918917946105,-0.31881259642140347,-0.38383536682428737,-0.4207966605433609,-0.4449987922803109,-0.46398268711995033,-0.4861762057054291,-0.5118358350254024,-0.5370433954024919,-0.5535505677007713,-0.5595871018995985,-0.5594173097940814,-0.5561555277003654,-0.5503664542963708,-0.5453290157029198,-0.536956560000729,-0.5040871821004762,-0.4005875726394637,-0.20897477451308547,0.014044806911488598,0.16153955555205424,0.19853427640447296,0.1657781009369257,0.1133756256960886,0.07118152865554822,0.054714774797593964,0.08219095547781102,0.15288537541601444,0.26078737459767515,0.4132241588268204,0.5735245415964637,0.5705009400700324,0.46670954394720077,0.39147798539549217,0.3397371863860439,0.2954501746713734,0.25094093912701637,0.21035632693621928,0.17966511922903414,0.15845788869821284,0.14967611588348764,0.156834373103275,0.18563563314061055,0.253770520231095,0.39817379530845776,0.6006306163108516,0.6569173845689784,0.615354363689346,0.5746704066496916,0.546848065025147,0.5394834341189524,0.557192797465201,0.5872184223252833,0.6109792815836799,0.6102741377172987,0.5731798711184486,0.4890728219176524,0.3583559302821292,0.21322762729957903,0.085359466103654,-0.017988280340672964,-0.10145503544657532,-0.16980440893090956,-0.23981050022551734,-0.31751404443977843,-0.398749644302032,-0.46639322927106885,-0.506949399718836,-0.5240402567964699,-0.5253862736820306,-0.5068058686082274,-0.4670443038860192,-0.4082195857117222,-0.34806371711251455,-0.2991308477726022,-0.26920111384083495,-0.25412786782293323,-0.2547535046514071,-0.26634628332169347,-0.27675455880076066,-0.2773492286048261,-0.26529700981909893,-0.23859884209866752,-0.2069893554890642,-0.17133933971603643,-0.10502221123192303,0.055195670765453175,0.3279055007415956,0.5853852220118306,0.7244261388553759,0.7888747760178414,0.8281865009931204,0.8621461913447646,0.8923272695226558,0.9181001125946364,0.9326552374811862,0.9258850182691742,0.880867252728291,0.7569660169188612,0.49822045004062193,0.08682688038037455,-0.32624291612765866,-0.572278640252483,-0.6707243631076167,-0.6971959982558148,-0.7057936183196534,-0.7115924814695355,-0.7183903716395699,-0.7194928958703323,-0.7130626317212279,-0.7033154737159576,-0.7004620771289066,-0.704338353677457,-0.7075699428360134,-0.7052440189450995,-0.6864149329371478,-0.6653145501340606,-0.6525233182010208,-0.6326096332858381,-0.5962240252139334,-0.5689445065988579,-0.5617212317185323,-0.573842624582642,-0.5840343220840757,-0.5911898156889949,-0.5993427199786424,-0.6069503777125944,-0.6237566778398285,-0.6446239822555339,-0.6589476468016024,-0.6569110145683519,-0.6373980391807426,-0.6067409530868971,-0.5757508272702366,-0.5462160497050257,-0.515543443298694,-0.4817786884313258,-0.46035200501757484,-0.47614398171053857,-0.5238541305506008,-0.5770056261366051,-0.5974144463094568,-0.5798153737541751,-0.5186427780844258,-0.3980524349833686,-0.24838418418820665,-0.13844514478091746,-0.08414614792218876,-0.04063471381550796,0.0407367820502774,0.18127441792898127,0.3579638671775058,0.5275459456565431,0.6593917407625494,0.7227940309214897,0.7119618508223353,0.6855241331469455,0.6755702673820742,0.6857889237595247,0.7100607950265203,0.7565374162656561,0.8130092521430703,0.8203729763409162,0.7944858736463948,0.7849593881817155,0.7955547769509879,0.8140769569083225,0.8309778659736092,0.8375802746672164,0.8315152280293183,0.8135671415412529,0.785101655712447,0.7460246124577354,0.7011490016041914,0.6657848075130487,0.6473057353475494,0.6406342070413914,0.6335496142900687,0.6199472674049817,0.6109391292349646,0.6192571640447952,0.6451587622769429,0.6450061116185769,0.44801075880300173,0.021551775349927974,-0.2386780081000387,-0.3685063803816639,-0.4492368471674771,-0.5128959656810006,-0.5647557425134243,-0.6048911913790426,-0.6407677174096846,-0.6748026161474224,-0.697234445739146,-0.6937684862420652,-0.6676897650704172,-0.6332792662419271,-0.5938767056646838,-0.5492721131788847,-0.49637956253111787,-0.43247622056253937,-0.34896792021894896,-0.23748266108057042,-0.09219129306872255,0.07900756420528404,0.25158060285050404,0.3929890654347263,0.49150736804665013,0.558482220235517,0.6134360960744216,0.6708166389008825,0.7326370766511512,0.782177001769176,0.8128464793474525,0.8321788718893615,0.8432729389445229,0.8449742781770543,0.8355943839604769,0.8245818026685412,0.8195312469712204,0.8228542160055681,0.8329063500253908,0.8099149410369786,0.6663056187248616,0.4155367275803974,0.17366034518491166,-0.019805096423735475,-0.18887640958415344,-0.3477076778332624,-0.4803003218478131,-0.5771857628983162,-0.6470145208416773,-0.7053487299234661,-0.7591616811531711,-0.8102036319473143,-0.8493736400282998,-0.8647048399147749,-0.8497177617257393,-0.7985208507267068,-0.7077848439101608,-0.5900344375441108,-0.4768088421573574,-0.39520087614864713,-0.3493530708906175,-0.336251367735973,-0.3476692959246657,-0.3710351594596094,-0.39810801206997837,-0.42250102343521234,-0.44591369267178377,-0.4772776127355326,-0.5246961554355805,-0.5860757837249368,-0.6476827633047104,-0.6875607255437884,-0.6962805447315242,-0.6750186606704366,-0.6232437510678306,-0.5458269260393288,-0.44956549536402063,-0.3476353334864333,-0.26093839786241396,-0.22140485347470465,-0.24953282312134556,-0.33232218260750396,-0.42745934944373054,-0.48289891135408686,-0.481645080654395,-0.4336562326597613,-0.3430527874560913,-0.21355195571998878,-0.08543244365133461,-0.002791658330219696,0.020071963772270236,-0.005241315647336214,-0.061493345907092004,-0.1222618991203137,-0.15660246987994328,-0.14549753175121657,-0.10927412156989921,-0.07510063486594648,-0.03503574469595364,0.003665987385060857,0.04425559666858541,0.09032488161962299,0.13281606243200217,0.17690132636815947,0.2282340278235895,0.289726619555414,0.3573030523191208,0.4247805035947447,0.4768863437371976,0.5032806523934555,0.5176384823393185,0.5196536919963869,0.5020005155454559,0.46376836895207146,0.4174490972247879,0.3794445389118205,0.35783189720659736,0.34560121007706646,0.3323015593335074,0.3114741611085874,0.2742731904248425,0.21416140001089215,0.13549280839506192,0.05124193201664796,-0.002145171655633738,-0.00915146290288903,0.028254772358445042,0.07533751375715819,0.08630735007885534,0.06724326349754955,0.044599473742941584,0.03186758887087578,0.02765176325581619,0.027642204224712225,0.0250266748712953,0.018192055872271296,0.009836281896124368,0.0007492597362669784,-0.0030394998405928395,-0.0013156421030103462,0.007776220971574672,0.024896294680840963,0.05493797057989011,0.10860460820359145,0.1884055478505695,0.2836282165529521,0.339686612489925,0.3447568017917047,0.3325827632407682,0.33060028388949075,0.3434806861517198,0.3707137771400446,0.4176022921403801,0.478148525135306,0.5480011968974803,0.6219901597417502,0.6877481121188339,0.7299557050687911,0.7421510715533445,0.7347041434170619,0.7167039541484822,0.6885196548095899,0.6503435990306714,0.6009937892905273,0.5305143658805123,0.4041427183274267,0.1714407291782726,-0.1663049425695725,-0.47004175494862294,-0.665732589829925,-0.7835870488003792,-0.8414736863243633,-0.8473817175750802,-0.8161056250348973,-0.7615294131987662,-0.6938205807919459,-0.6245950439017454,-0.556831393604045,-0.48917413107823554,-0.4206661389783065,-0.351738392876232,-0.28976507143716623,-0.23964582863232503,-0.21041707856750785,-0.20738139248282267,-0.22678991612400043,-0.25281799685701783,-0.2574967693393674,-0.22112156294438423,-0.14591647647509776,-0.059657320081998255,0.013069722388243565,0.06259532269824956,0.0993900265250008,0.15736805183717886,0.2852398959746235,0.49559872429848956,0.7084700319140967,0.8154513381687616,0.8258556831317734,0.7959784479473734,0.7610145607176522,0.7368610071558909,0.7237827407001997,0.7160970710224313,0.708422771934413,0.6944051800451236,0.6618591706079493,0.6030732503557705,0.5219879316435977,0.4300173167791134,0.3382902946779047,0.24045475496035604,0.12441214792132763,-0.015223741269181959,-0.1710916511423282,-0.3343953725084852,-0.4862135601991604,-0.6004820205686277,-0.6776521443010374,-0.7242103835283453,-0.7508823428214725,-0.7688599847981089,-0.778837212595227,-0.7841452606634175,-0.7898304650902318,-0.7945906517932436,-0.7947172429188191,-0.7884797831925198,-0.7741325633960378,-0.7492479113745064,-0.7190565571887789,-0.6941047956564154,-0.6820930267856876,-0.6596289969102079,-0.5993503908717873,-0.49422256054114677,-0.39102613083761806,-0.3377648962310397,-0.32530325775872465,-0.30943942671149477,-0.2525793229162016,-0.14773576553078713,0.0059730753872914676,0.17348499067347778,0.3196043744389748,0.4410712607427499,0.49585848343580147,0.4690263241521222,0.4869934736759789,0.5447367907112667,0.6074030958390898,0.6672683362299482,0.7135794102155,0.7405406747627512,0.7443738352038617,0.718094098399142,0.651282003939079,0.5288171199468537,0.312422170170581,-0.002315350745412694,-0.2515332858654055,-0.3919169712725138,-0.4769816772474492,-0.5142144707216757,-0.5214010578986997,-0.5088034303744758,-0.46757447434092414,-0.4065467075125377,-0.35027077825312036,-0.3188764348695801,-0.3170581229428458,-0.3340179327723334,-0.35762443884658135,-0.37240769678791635,-0.37585758957500137,-0.3797112283884891,-0.40174766307937065,-0.432802245895636,-0.41163157115172555,-0.3613972174177623,-0.3469840796971675,-0.36754747223082485,-0.38603407192176825,-0.38361525759274745,-0.3595566765956576,-0.33054802227545116,-0.30401734031141475,-0.28401798130445266,-0.27396718201319603,-0.28142445561233664,-0.3105417241141557,-0.3637228689059772,-0.43931896969774503,-0.5307807833773028,-0.6148136136486981,-0.6481227438882615,-0.6281456875122338,-0.5936531933505937,-0.5583495504143119,-0.5084056815693729,-0.41395529504392126,-0.25719791386977336,-0.08071485768109277,0.09802850736650388,0.29733339142735865,0.5442587395764223,0.7757209033922635,0.8637409194087121,0.8418468150836542,0.7915109186731301,0.7700717283133404,0.7742668110815679,0.7835507370007966,0.7952776198565408,0.8151283883570166,0.8405919133840601,0.8572161402374343,0.8625105275620426,0.8641232426253306,0.8676449588179792,0.8685371714821606,0.8626867165286738,0.8494498790202133,0.8295150127411037,0.8036985723467639,0.7749232387819003,0.7467103927058596,0.7210241743077256,0.6993278004919483,0.6737848332646921,0.6159945152658907,0.47851462197843553,0.28768053539037647,0.11467034727811481,-0.013203929372387548,-0.06948824880304066,0.04334529964837012,0.20282500928689765,0.27176294895440156,0.28668772555101185,0.2569329065936678,0.20186691647878063,0.12666839788457035,0.03558378615898873,-0.06669952319193737,-0.1250912280201162,-0.020740505749098446,0.20449587024182744,0.37914748282112476,0.5202355108620633,0.6450359363885401,0.7408422333443292,0.7862936246470537,0.7749973041000954,0.7384314952074603,0.696055843225406,0.6504564356399312,0.6075696767498768,0.5675313528244588,0.5341704534877962,0.5116460243181737,0.49247863324791263,0.457997550467359,0.407778473476353,0.3822159796271034,0.4446746296358051,0.579791470285888,0.6712677090992175,0.7165634150052038,0.7400393241933236,0.7479176335212576,0.7394672283261786,0.6800350291232662,0.4640526032413545,-0.0171722424021749,-0.4253983559485333,-0.5950236189912356,-0.6491944983168333,-0.6588689556638434,-0.6575138253341953,-0.6702346760158963,-0.7006109905992634,-0.7449617564961459,-0.7979672361245239,-0.8475188913665823,-0.8802780534980311,-0.8892154535175318,-0.88006823903214,-0.8555852180551708,-0.8150081905807677,-0.7614450870226035,-0.7063361759535767,-0.6611176941002029,-0.6282582529069425,-0.6075979512137427,-0.5962615622958743,-0.5918194841134337,-0.5812573988336001,-0.557487314434982,-0.5422398362335475,-0.5487965669113101,-0.5716822133505219,-0.5987217439898384,-0.6154763026451271,-0.6080671280071086,-0.5603465496696667,-0.45501881859429105,-0.2965004363643836,-0.15502403419327107,-0.1432292273153002,-0.26680914859565796,-0.3942225147300144,-0.4607092338058585,-0.48536327002571705,-0.48510463426707423,-0.4715162554613941,-0.4681846018504586,-0.5009116999312198,-0.6043528470494973,-0.7690658927378945,-0.8939685783911877,-0.9389527100927966,-0.9390927668525241,-0.9122073749489477,-0.8617386926288114,-0.7807721864166398,-0.6706179663474489,-0.5563294500309438,-0.48267665333288756,-0.45694424261080907,-0.44747110816561453,-0.42522099827054244,-0.3829183754934945,-0.32897950192023073,-0.2650041419766786,-0.19296691815489034,-0.1070191635953975,-0.025625886720154208,0.02914834153249886,0.06484878921920463,0.09589760938773104,0.13356993290803496,0.18833544949242317,0.2647088915649422,0.33963036849444334,0.3884869799878411,0.4170967142269454,0.44950172794976334,0.5003458540849861,0.5704807346294509,0.6476235530558526,0.7153914634683374,0.7574154426219808,0.7633608229144156,0.7253404000518133,0.6454696446953705,0.5736092034067917,0.5624032826681488,0.6262184224969525,0.736232798204853,0.8188379762147442,0.8133381823081581,0.7230816304771046,0.6181054879033296,0.5404524694051175,0.49547669749593765,0.47699598298688095,0.4668965204308798,0.4516308057382804,0.4328694173395926,0.4296385673916543,0.44921727697144087,0.4780985849351462,0.4934529362262105,0.4680599963584531,0.37945416775480795,0.2084421620981369,-0.01609303366743268,-0.18833838589999882,-0.23795644599076532,-0.1995237852472375,-0.12462793456902989,-0.05154066886620482,0.002986381575060784,0.03970622179932729,0.060070815558058495,0.07051239228506506,0.08091089843185259,0.10065569434252518,0.14257962372741825,0.21642845924538942,0.35301586955775116,0.5676833781883525,0.703997376673134,0.7341617090025758,0.7477988113243679,0.7659813031262728,0.7777853662408528,0.7834654378432049,0.7881730544852504,0.787965618731455,0.7776642258687395,0.7613180753668237,0.7518601567391882,0.7544662150145702,0.7629191374919356,0.7714441433509335,0.7764304558724673,0.7777287875476764,0.7770179284991098,0.7783283622137918,0.77997944292163,0.7573627616931775,0.6831993718229347,0.5882307325590377,0.5227451413505834,0.486651860640719,0.4523908617693893,0.38988156965125853,0.3118966569672194,0.23709146030555067,0.17016442396886894,0.10728157469640155,0.042596325878525514,-0.02805043159609411,-0.10337724073777797,-0.18114122116598824,-0.2610596617994652,-0.3418386973246881,-0.42823375888328385,-0.5263818677372906,-0.629498305702892,-0.7239344488479951,-0.8089834713470065,-0.8782609244740338,-0.9048903640979465,-0.8648606299986543,-0.7850918952864634,-0.7117451171607968,-0.6655878406869392,-0.6463732311545832,-0.6409050928755312,-0.6349931390994166,-0.6206659613879758,-0.600279536003337,-0.5812823734227026,-0.5696623926674026,-0.5680982304232225,-0.5736057549839232,-0.5884856668318179,-0.6146979800981462,-0.651698605916952,-0.6909853337025358,-0.7208776657007501,-0.7453812602147456,-0.7746384571064359,-0.7990928386696251,-0.7931572917388203,-0.7409550850120397,-0.6702470142807373,-0.6134829216566099,-0.5648157293066262,-0.41226791114870026,-0.15112538839298228,0.04615167358721116,0.17012625614819668,0.25158001043269185,0.3042827438242596,0.3421076294276777,0.37614317196737856
