-0.08524231208693257,-0.07632398461890562,0.028225574982354677,0.13601593871249054,0.15643006842060087,0.14079581941031502,0.11242876794049123,0.07746568445654035,0.04441693382902352,0.03500264042447359,0.06764869628362802,0.13032363728034713,0.19219959853510998,0.2285527402950865,0.2278135250575278,0.1975209589656534,0.1560817626529241,0.11103039095379331,0.062000745850489654,0.0114986274774781,-0.031907833992091225,-0.07370210840396833,-0.12614678441006047,-0.19150045472715216,-0.25510122894093906,-0.2983429644801214,-0.3101507100682386,-0.298853183595833,-0.2732813496157103,-0.2469605831151948,-0.23354370118674758,-0.23270700496727312,-0.24168281159470986,-0.2493916225753601,-0.25447525898145584,-0.270698866673824,-0.3051946373022371,-0.3614526450211856,-0.4381464356823877,-0.49540923750665283,-0.46869081868832474,-0.3518282634537735,-0.22688513625837387,-0.16032813985059627,-0.14677505414472228,-0.14917638593440727,-0.14846769293692874,-0.1494177247918954,-0.16427412430511845,-0.16136260842574662,-0.11842196302937164,-0.04325054823722825,0.044546442177758064,0.11740648068485676,0.1549710455097072,0.17972817825974005,0.21850640010149397,0.2761463448439349,0.35219711813756727,0.4329259703854152,0.5159385475478541,0.5980669065233084,0.6540503001316874,0.6652801408147577,0.6432401589556235,0.6116287248024632,0.5899816040618725,0.59500868749122,0.6328942100979592,0.6934647970713883,0.737086502427877,0.6937318263252598,0.5484694206243541,0.40814000371304715,0.3277729030892617,0.2943702932550404,0.26010000360453867,0.19771930628354822,0.10331346124354493,-0.010156066695387586,-0.14464061181053664,-0.31488082605561635,-0.49811538207035544,-0.6181457510319901,-0.642448327691587,-0.6093361259391015,-0.5462282167393788,-0.4705764162260356,-0.39350460403189785,-0.3232461336703365,-0.2756838300551485,-0.26930863826787915,-0.29558976077713456,-0.33676148848800724,-0.38965557363102776,-0.45041901248198457,-0.49275172809154544,-0.5050178159237704,-0.4934485140554336,-0.4641164772157829,-0.4296731569314393,-0.39626963990714925,-0.3689473276789841,-0.36193384198333434,-0.38124015893406477,-0.42368386498899807,-0.4721129340477219,-0.499635688246544,-0.49055497555662436,-0.44093600842474767,-0.32317664674684465,-0.07217280162800764,0.15520333530964875,0.26388779479772967,0.32659685005277744,0.390723398484486,0.473510537079378,0.5807583879420309,0.6957709089433319,0.7707362359886113,0.7959948432600413,0.8100374171560648,0.8400588327888997,0.8706697217500831,0.8622334797383825,0.8098425516098157,0.7513084367761522,0.7069215675322019,0.6816124503151576,0.6667692132262854,0.6479193287287414,0.5963383712246967,0.4746686529307071,0.28421565297390256,0.0983726631556676,-0.047952969999383296,-0.16560881210343606,-0.2796389383703558,-0.404242867195598,-0.5283154101049307,-0.6313720405981381,-0.7022841905826706,-0.7469504598024185,-0.7803894673392892,-0.8048126518039048,-0.8097855050175403,-0.7500781248180961,-0.5587947361994553,-0.31647818003078454,-0.1621887207657722,-0.09486031679728885,-0.09210908028128521,-0.12118228042547775,-0.054065810891224905,0.01325238883486846,0.0849929662998137,0.17339471761388991,0.2757883784062469,0.38549078042515306,0.4827795917218758,0.5540493936147886,0.5994614951635441,0.627518609381856,0.6382345818437926,0.6356019887151143,0.6338643069701275,0.6571595684428454,0.7251591288987578,0.8218188833628629,0.8876621091861667,0.8774468160547229,0.804567139334083,0.7104339498322793,0.5999662001186282,0.44607848287916757,0.18996340801663805,-0.19666156037742175,-0.5470787633724755,-0.7277204119751939,-0.8064166643801957,-0.8376226168488532,-0.8420869529572527,-0.8212458988165697,-0.7782848896520262,-0.7322664918217031,-0.7098831791112188,-0.7251006415173129,-0.7615076591410808,-0.7788366519953687,-0.7356532128088312,-0.6500414172777544,-0.5773239608320542,-0.5386815031365971,-0.5258438919190849,-0.5026745750334396,-0.4594315719926965,-0.3974604067765983,-0.32115984412635074,-0.22963284072010912,-0.1401578412433118,-0.07853288030106685,-0.06090974203729551,-0.07783932502810169,-0.09720945239238979,-0.0809681808725896,0.01317784306004647,0.19958433480258406,0.4116534696523532,0.5739080675946936,0.6715546022060631,0.7240906977273344,0.7476218307667182,0.7585447892399185,0.76878099597404,0.7683561898012208,0.7230806409328144,0.6342714389934221,0.5563012185260976,0.4869213048750702,0.4124971250795279,0.3237313851735734,0.2596473812384349,0.2514131805470579,0.2882430823009845,0.3360564208638875,0.37941225824713903,0.4173681159808737,0.4479852943150032,0.4712254486696339,0.476996789790576,0.44814630006894646,0.38986571742652176,0.33827007309442647,0.31358148030870264,0.30911492210635666,0.3196579673824186,0.3021319157939518,0.14943566238057635,-0.059176910958155186,-0.22640138373716842,-0.37683153968003436,-0.5245489866651182,-0.6347354279197575,-0.6943173452013883,-0.7218232182680601,-0.7429063664352327,-0.7659558981119423,-0.7819441431274438,-0.7859002930187149,-0.776496249460598,-0.7421864433413917,-0.6615108255222938,-0.5150956111951751,-0.3204757857607462,-0.14184122451115325,-0.01724677932952992,0.06817602809176844,0.1277863068882826,0.16613270248566264,0.1884010972913563,0.20047174239515933,0.2134484907111717,0.23636024962129668,0.2817802910190015,0.3719880402025097,0.5790629416548622,0.8395351628206311,0.47000897630002586,0.2603931333066986,0.14692638711975645,0.04409051695815363,-0.07393340685049875,-0.19924630114309486,-0.3161722141736035,-0.4018068708471181,-0.4510882843359725,-0.4684018612645559,-0.4515726207764791,-0.41032292497896633,-0.36398004949496293,-0.33058531138395963,-0.3146605670464636,-0.31104852218118517,-0.31251969265010354,-0.31753513444190906,-0.33655143380241676,-0.3715024315984861,-0.4126874579099556,-0.45335051014899125,-0.46802342527386204,-0.39588655147699536,-0.02062564166971748,0.3209847073094768,0.46837610071065855,0.559656501459083,0.6328057620513585,0.6906198695858549,0.7263562955952093,0.7420308589991615,0.7479208191174739,0.7495728622994688,0.7528853153586708,0.7651704290867064,0.7954021219101394,0.8427973687880672,0.8878996213528726,0.8830917353381712,0.8337187476219553,0.7949679599181703,0.7946011457626809,0.8150239978314512,0.8313305772832393,0.8290811298531072,0.8239446579709331,0.8281372716595097,0.8398971174051455,0.8480353799630266,0.8399573098797981,0.8097383101545889,0.7533488758992642,0.6570471085498425,0.4886834517113407,0.20952156594646168,-0.15768477137958611,-0.4410609616204023,-0.504165367583317,-0.482481505789315,-0.473327755556844,-0.5045953776697288,-0.5642683927500453,-0.6323430041296608,-0.6977978445543929,-0.7437206062396782,-0.760551722845096,-0.7504145188507003,-0.7180078890914477,-0.6797384253010962,-0.6546069414530937,-0.6632704139166468,-0.693769279461217,-0.7232804980104591,-0.744327318183574,-0.7573775558714081,-0.7551728152379786,-0.7357856972619796,-0.6922223850427238,-0.6302014199250916,-0.5846827474384834,-0.5588010984873856,-0.523973669957258,-0.47531017297973677,-0.4454110800284889,-0.4706855769575014,-0.5921633886840432,-0.7586224211366726,-0.8233782859285632,-0.8135753304605938,-0.784046209276962,-0.7588996877765113,-0.7424412724914774,-0.7290790647340599,-0.7120605721795116,-0.6870085131303412,-0.6499174605169015,-0.604418049855182,-0.5554261005655814,-0.513271904520048,-0.48320079498357077,-0.47699993902438587,-0.4973926602758269,-0.5306248770012498,-0.5321597674754863,-0.45140938589124346,-0.26963344184280047,-0.04431323497531594,0.16772496215754654,0.3352694852270667,0.46021553381987057,0.5620119600870525,0.6375620882113875,0.6861217405930157,0.7062681510723187,0.7046529943480486,0.6941850672761236,0.6894803762193542,0.7003723715051088,0.720459152845163,0.744483089208486,0.7650696804323762,0.7699392631284673,0.7600913687708691,0.7478212068556552,0.7357351838431312,0.71218854234158,0.6716002716687347,0.626731730685865,0.5929781495652297,0.5828502271415941,0.5341651361588549,0.38218954011647754,0.1642063135901459,0.004564596113780597,-0.06819862983806992,-0.06678342113800705,-0.005153107237963177,0.09102309284736668,0.21246883826680055,0.34580221594218935,0.4927144192682425,0.6203775906068101,0.6959791268707277,0.709575388509164,0.6654995020117931,0.590533753525665,0.5280665064895453,0.4985646360586982,0.4790270382042018,0.4461350073696615,0.4038127718091847,0.3743034363533774,0.3591655828042944,0.34584791530307857,0.3193296228013878,0.2654285822395638,0.18596743315471442,0.10083572355218089,0.027199405096557296,-0.03415449077371644,-0.09712943343838962,-0.20150601864658582,-0.3440984583276877,-0.47992875212893205,-0.571679616429679,-0.5928149320445183,-0.5277989240075157,-0.443325326888024,-0.38500417317987795,-0.3496634663571201,-0.32248001782935803,-0.29074741190612347,-0.2551554068715374,-0.22741158259550795,-0.22342416324058859,-0.24364421327621663,-0.2724431542511219,-0.29501445388975894,-0.3035059760219492,-0.2842461218996755,-0.2198914247545049,-0.11327964383364482,0.03809892870293483,0.24956928134225015,0.5211142883950262,0.7353364221422152,0.8184975274072542,0.830520392081971,0.8264018998019879,0.8253630828861015,0.8329336298207711,0.8387817359879717,0.8333738444438373,0.8172656270852345,0.7932739314337417,0.7650979199880809,0.7364349557385711,0.7146071069005215,0.7106099274416176,0.7363350882307601,0.7618101207216382,0.62317772161562,0.35717480867578677,0.17071497439291897,0.03110591917055061,-0.11488779318241034,-0.27091270637615983,-0.4094440913376241,-0.4954749065186342,-0.5334735917238345,-0.5373569133885046,-0.5297791312381228,-0.5338175457736773,-0.5671567133259321,-0.644892215467885,-0.759551124611444,-0.8573493383846187,-0.874112071680594,-0.8405020821311324,-0.8094026234161473,-0.7904016786677854,-0.7739132686659759,-0.7460573412829579,-0.6857821685147205,-0.5806870165134267,-0.44422034390777426,-0.3034655390976233,-0.1824450359741477,-0.09359253800209713,-0.022925774958430043,0.043603058492555795,0.10896366960444707,0.18302096498947876,0.2729580160810134,0.37497085220577897,0.4698141175470086,0.5348953319071484,0.5699461837832405,0.5857519072774756,0.5869052907588522,0.573825433818027,0.5273320587412302,0.4319379730760318,0.30216615644696043,0.21213674340678965,0.22906798574383935,0.3128918841637609,0.36301929510412145,0.336094428282383,0.22247711184977656,0.04733155399968781,-0.09313901944231628,-0.15368593973016426,-0.16167265300486083,-0.1552726764146423,-0.1593512892918703,-0.1836177779158955,-0.22935881992915813,-0.29524876907803577,-0.3770608939039213,-0.4620448409359484,-0.5347822961990457,-0.5921993473221614,-0.6391793064745678,-0.6770506943223431,-0.6827413054842858,-0.6452457617737472,-0.574931495841311,-0.4922496219169403,-0.4123975529609843,-0.3398162662465321,-0.27637643595515077,-0.21938058971326838,-0.17120247520981177,-0.1331833434989005,-0.10358896369223859,-0.07721564685920253,-0.054624012423697764,-0.03464382684255246,-0.014771426589793177,0.007848604709318837,0.0392915908159085,0.09160108044076735,0.16899012673163885,0.2596587605042103,0.339578871151547,0.3987432926431989,0.4403112719438694,0.47134549016002014,0.5000837225627397,0.5282258659497363,0.5527499925894449,0.558603691497481,0.5190374164292599,0.43121522138682017,0.3451054356919031,0.30055114637370817,0.30231835827340925,0.329424119465782,0.372634887604998,0.4230470689462309,0.4612887226002834,0.47382697913380534,0.4469647977841855,0.36432509780584993,0.2449661251659808,0.15121880966317033,0.12244489910493891,0.14668719977669833,0.19676317539751123,0.2286753454671745,0.21862646023682208,0.16445163714130426,0.07835298449995312,-0.017718125198916856,-0.09245803325149111,-0.1340719753292162,-0.15042382215382347,-0.15992177588298315,-0.18482898942003734,-0.23766731717053155,-0.32971345542492614,-0.4493861327231496,-0.5478415609684317,-0.5982526608000719,-0.6142635032658056,-0.6132253190966023,-0.5648025962952279,-0.4009717816353193,-0.2710715765050448,-0.22308088074183194,-0.20630316741358753,-0.19624126886416646,-0.18822967654692133,-0.18062320581881508,-0.16709598163636669,-0.14376404305980472,-0.11012043241637477,-0.07116636481020826,-0.03176686241682203,0.014193202583396028,0.07873354064472983,0.1836122638188826,0.33450139332678913,0.4786946204252148,0.5578346695455195,0.5759897135528589,0.5566055769512924,0.5274035323637121,0.5088675525452032,0.5138861222685336,0.5544616436345096,0.6343016124456857,0.7170182948813711,0.7422013578956751,0.6869332629937076,0.5977914914383925,0.5293230650402588,0.5066109105013942,0.5249554140448118,0.5716600900082646,0.6290850004767444,0.684054171114955,0.71993741028586,0.7336519506234158,0.7272320112698797,0.702609632457991,0.6620771575611161,0.5988309264609866,0.5082329491431796,0.38802653042104107,0.26788415633406804,0.2104171278933313,0.24655574478399686,0.3592534225263596,0.4922520205837234,0.5718127605868555,0.5598104749198741,0.45268828441481623,0.2614162702673157,0.02426306068360936,-0.19870051582050235,-0.3609191746760761,-0.4431343424493743,-0.46740367903739,-0.464577806933446,-0.46244620736599246,-0.46282314687522563,-0.46212165720982773,-0.4719424000025358,-0.49843576687935515,-0.5455010281399063,-0.6058556144755398,-0.668216755311132,-0.7268299438871232,-0.7621710827985734,-0.7714418612721455,-0.7647060816725395,-0.7560139788780069,-0.7575679117607338,-0.7723783703823766,-0.7925528706249407,-0.8128543216095614,-0.8319764268289199,-0.850353375489329,-0.8676715842325727,-0.8907238257156426,-0.9229360168494068,-0.9390384216965305,-0.9150921857596247,-0.8670307809564982,-0.8182062034539447,-0.7793058729781053,-0.7548592036092179,-0.7460949404628022,-0.7370641156699363,-0.7152915924120657,-0.6623016997195947,-0.5537958739900051,-0.3900446186513339,-0.22107579774499,-0.09119266051555412,-0.012315773438990195,0.026721387101004124,0.03810190905021504,0.010062243549263874,-0.03999174553149997,-0.07547462889729761,-0.08571055581419296,-0.07975523863320749,-0.06873146089549632,-0.05907511343676427,-0.05343375517915913,-0.04379320778010862,-0.004869901909599299,0.08346674198828476,0.20877991294072015,0.32592873612564804,0.40670421104471277,0.4329392816567833,0.38886935196628525,0.28477686179522593,0.16090807097505336,0.05803209298902006,-0.003973593432919368,-0.03008745160005837,-0.03133400686044177,-0.01625003600093256,0.001621584589695691,0.008930889859995067,-0.011088805622959273,-0.059201931180434694,-0.11366441805346629,-0.15517922075896454,-0.1834855282588045,-0.19540367932845254,-0.15331340721659706,0.0019034011793048636,0.24658721232711509,0.4536787214497245,0.5790447593570555,0.6380384587466592,0.6564632383595823,0.6552007233947201,0.638915633363786,0.6169436242907281,0.5931478994397592,0.5646871054595064,0.537207400766892,0.5144560947518614,0.4965810222736409,0.4809741722724387,0.47064391294220337,0.466668585317586,0.47194460246732667,0.4934969506934653,0.5315664403080375,0.5780688172836839,0.6256884564571229,0.657364215541765,0.6403507479358378,0.581251191432716,0.5327842996442976,0.5111258567923863,0.5209239932990224,0.559504140992245,0.6183183974967187,0.6936890587691185,0.7667072822027979,0.7898187696608856,0.7331391514140957,0.6284721711283812,0.5160278823569073,0.42481259080849215,0.35880112254564245,0.31010648353592096,0.2950059329283033,0.3225159872682088,0.3658473736971226,0.40844958498762096,0.4515032893734144,0.5030480140626687,0.5492293705740331,0.5748537599421146,0.5750090696335347,0.5605891616342839,0.5404329043701459,0.5239301583771897,0.509421807230243,0.48065404670471923,0.42391953678550254,0.3320801524584811,0.19996332044707654,0.03261212549544959,-0.14997936037397205,-0.2946738326184162,-0.36352329070305406,-0.3812277379461925,-0.393052262302475,-0.43075150381236876,-0.5005062933854343,-0.5841628382165455,-0.644949404586598,-0.6666722648981968,-0.6524274799691395,-0.6227051516878287,-0.586189879605775,-0.5491736083317678,-0.5335562865352348,-0.5696488267576854,-0.6505885210835124,-0.693030205415815,-0.6629232078111139,-0.6155405199401826,-0.5838957526757358,-0.584166636030974,-0.6364646017020681,-0.6575336047318989,-0.318903771367051,-0.10503728817872124,-0.012905676183238722,0.026218083627247674,0.03394100857192857,0.0186084728511125,-0.014627400048767746,-0.05863524100356861,-0.10790399286583596,-0.15773969423095605,-0.2169895175989478,-0.30693451480456907,-0.44288283997357386,-0.5995437517838025,-0.7418687770380258,-0.7907668713237638,-0.7028448627306084,-0.5492033343312012,-0.42212569222890983,-0.33386294934168786,-0.26681711589784796,-0.211756146303566,-0.16480429654370152,-0.13740605895134655,-0.15717142715591867,-0.24475832380336873,-0.4181220526748845,-0.64796118024789,-0.7821567030618006,-0.7559989799331274,-0.666353234090377,-0.5576032313727307,-0.4442304076542915,-0.33452210007835165,-0.2415214039521121,-0.16898335443161533,-0.10537101933408374,-0.03230966234720578,0.07370065568717762,0.22502485826328036,0.40019001979889235,0.5661758079267198,0.6940995118678668,0.7607281324694433,0.7675534844536739,0.7425816431751087,0.7089265553923603,0.6756525505101957,0.642550010188411,0.6141683870827211,0.6069284255360813,0.6324971937169893,0.6877480441055176,0.7611856094201074,0.8338731964691342,0.8897223693594282,0.9115376399870689,0.8984100064720213,0.8672536465479104,0.8375557324414605,0.8063067197493288,0.7533401249728403,0.6779097519510187,0.6119013469233996,0.5898187052934091,0.6189584076818645,0.6674661301831687,0.6223349761161754,0.45730590570217006,0.32295850181975777,0.24659255466166263,0.20050697616952312,0.16307127802967486,0.12541934881395178,0.07030344646337029,-0.012159009774086377,-0.14479476140273365,-0.36657990430018667,-0.6380090089040601,-0.8160341760150347,-0.8833758946863058,-0.9036982118663016,-0.9089692722166264,-0.9031485710841071,-0.8729298710278413,-0.8240174777634991,-0.7560193625267215,-0.6767736433653739,-0.627004369897862,-0.6305119279981397,-0.6590547035398342,-0.6698843413266269,-0.6238477987442059,-0.5442755628578427,-0.4461256289281654,-0.34385851724790445,-0.24500361701502746,-0.1555134345463219,-0.08697019183449592,-0.043264792415613706,-0.026531619648867782,-0.04157841055607691,-0.09556949150625682,-0.16289180221566987,-0.1725632992696646,-0.047129470818293474,0.23043422530796154,0.5419811820937811,0.7151143903245967,0.7561505521152541,0.6785895998698204,0.4988095094999357,0.3207844637565726,0.22916572502949073,0.23469309492099819,0.31150047393671904,0.4199721113071786,0.4989784257753844,0.5071188210033256,0.4854178019540105,0.4696572101457857,0.4688852147374756,0.45787617369254807,0.42162803735763477,0.34401477060131996,0.2156114612624998,0.04026780431916272,-0.14618943031910864,-0.304127815414944,-0.4019110010079212,-0.4360078215650566,-0.41400783698891036,-0.36964152427880076,-0.30044944620319447,-0.17133781545893087,0.10732331891089603,0.37629041194348395,0.42158395717840896,0.36892915292058887,0.296122070161289,0.24281328421414264,0.20745412555418574,0.18010308305724074,0.14296910405027113,0.09341234584343255,0.024180660440600594,-0.08315997420236436,-0.27668100964402836,-0.40083141030075187,-0.4226843475709324,-0.44943914380432454,-0.4901498293057683,-0.5051900595100355,-0.48817309434939765,-0.4401797773583414,-0.3671249605684269,-0.28988529419100395,-0.23279395782530854,-0.2077000763096319,-0.21944757020443412,-0.2582836141187406,-0.3100478390348124,-0.34751431351538764,-0.3678676029873374,-0.38209093389919313,-0.396435654128482,-0.40784202643894546,-0.4118428108479486,-0.4131903707690684,-0.4135214614665242,-0.4036523831756073,-0.3742834512157577,-0.33573769499247746,-0.2806698870025578,-0.16796622121488386,0.04451752088013078,0.18251050141974515,0.22707160952738523,0.1850831289654647,0.08921955070913042,-0.0037521539346977426,-0.050426490305789336,-0.045383444993372934,0.0015671509208700087,0.07202706470347582,0.15854534796064107,0.27837328438483133,0.4360981164615048,0.5817077742651436,0.664079952814158,0.7081333590658052,0.7257367812917551,0.6985006753739167,0.6312806531655865,0.5584981138629067,0.48943416763323766,0.4177482937587932,0.3330130164402556,0.2277574389113565,0.12230938291143637,0.04637457635995252,0.03036051893986286,0.0940509916801747,0.2317237241454876,0.3972183894192702,0.5341031304931146,0.6264554202333148,0.6734262152355578,0.6464714256981341,0.4835468465124529,0.29796755312230455,0.212530391683322,0.23404012356504278,0.3202665341183211,0.4029925219411884,0.44746107925004186,0.45292427241259997,0.43282332469591644,0.4045491198265222,0.3706694951979822,0.3221504133635013,0.23343782224045082,0.0950492919199309,-0.07470239013166666,-0.2291540051728644,-0.29459903490033457,-0.21191821379210274,-0.030292105123421422,0.12074466776690274,0.13674125571139534,-0.06453132199884272,-0.4428999642825882,-0.6748541074119795,-0.7467627228921331,-0.7530415998442458,-0.7386752499614855,-0.7111882975076483,-0.6886350740116681,-0.6770738683053569,-0.6681389464800219,-0.6282094295937531,-0.4408740755754389,-0.03482018529391371,0.27805737944250897,0.4318187283432056,0.5018253556521665,0.5221310290801986,0.5162425478209105,0.5146356090695078,0.541264603298792,0.5951477993450492,0.6628623102842893,0.7291144900815771,0.7782663856509882,0.797620197415373,0.7827428156169972,0.7410036814290275,0.6936357627970207,0.6597822143721757,0.6396294640546618,0.6014125355716604,0.38096868925502486,-0.0034001420730642574,-0.22364478307379237,-0.3322183113152692,-0.4131723066504558,-0.5187053017638504,-0.6475495663994391,-0.7577299011252852,-0.8062514466369386,-0.8059978359381752,-0.792709604942918,-0.7863206091190246,-0.7848045345537077,-0.7752481236798321,-0.7465807991103692,-0.688880545206094,-0.5858547575183869,-0.396959192814099,-0.05870427901870962,0.3585780600294304,0.5868967380150835,0.630858372463574,0.5792692838234844,0.4373248374968863,0.18014575277207692,-0.11395107153211588,-0.3128082417759613,-0.46743174228985984,-0.6319752474022977,-0.7524326323262649,-0.802259424085236,-0.81562196882292,-0.8273206442411613,-0.8504932735092227,-0.885567110571325,-0.9174953525887355,-0.9148344966013063,-0.8355405782953552,-0.673056350410753,-0.48695940101391255,-0.33326801766933045,-0.22313978635491274,-0.15473195285015648,-0.12339314159473934,-0.12399053956168293,-0.16454181514023164,-0.26379793716724953,-0.3903399534898378,-0.49617702021616195,-0.5499553132047634,-0.5269101678127597,-0.41563613531564486,-0.2811905036525649,-0.18993110594069096,-0.1537716746929386,-0.14792453477517264,-0.1562358993769803,-0.16165247908975292,-0.15712495989727315,-0.13870128008549723,-0.11035236044497639,-0.08199001287358086,-0.06943585640276044,-0.08519515042496087,-0.13599402222844237,-0.22039871745224246,-0.33250172960275476,-0.46537696990083205,-0.6050389739669112,-0.7076050335355111,-0.6971915659150865,-0.5925786469796538,-0.47413733246991324,-0.36276723313897197,-0.26031140665722446,-0.17399188062178594,-0.1275572188066079,-0.1465971871482779,-0.21978959195728215,-0.2739818234113858,-0.2189103950168514,0.08798354063054925,0.42424395963090966,0.5329788962564855,0.567873408384303,0.5852309671141441,0.603316694492932,0.6220436605022458,0.6222441929391632,0.5934913955117864,0.5581714326066923,0.5543461347368815,0.5974187816108576,0.6698993887674661,0.7416197748881069,0.7936753961322011,0.8248244910385406,0.836804225808092,0.8281269669381932,0.8003037466313893,0.756909153117198,0.7125600328468059,0.6775211558677493,0.659612970715849,0.6547600620144072,0.6557288680842956,0.6566673876331068,0.6566819457273982,0.654732488074055,0.6580882109739861,0.6730126921671018,0.6944126170076842,0.7131056918013274,0.7266783657150232,0.7295869648577409,0.7121406967063549,0.6445016675532028,0.4757254039148399,0.2523087337047974,0.07893210496274256,-0.01475446354558161,-0.04145683094783297,-0.03709068002026916,-0.02631317458184536,-0.024894499655967173,-0.02690873721277456,-0.023219296238203086,-0.001350469540082355,0.049679004655142835,0.12497211066784711,0.21138334940868395,0.27641889816945975,0.31636494039167107,0.3405331570523644,0.3629888584562939,0.3853447129701109,0.38624784601992246,0.3377996286582579,0.26570052936600486,0.1995565541139802,0.14291179839308824,0.09396914029364489,0.050304220390296084,0.014923824773002105,-0.009458973389783024,-0.025309346284090786,-0.03474724860563251,-0.041606477941505376,-0.04976442854438238,-0.06410645485373143,-0.09896671942149037,-0.1594010523777733,-0.23346399758452333,-0.3063039749059937,-0.3734746983390076,-0.43486664291904975,-0.49810142197471907,-0.5811046245816722,-0.6945847847893457,-0.8086305021637467,-0.8418044902190605,-0.7978815026520524,-0.7484845002659407,-0.720385687674741,-0.7110756890454883,-0.7072655764049958,-0.6965950227448816,-0.6669238912875606,-0.6193350196751557,-0.5611839353244412,-0.4955150634164395,-0.4237183945897777,-0.324281574781857,-0.17222628965729303,0.04067669825265412,0.2641738137587835,0.4483875696208452,0.5910392450009598,0.6962053112175343,0.7770276512346544,0.8311683713692007,0.8390820113764733,0.745624552434942,0.45280885024138273,0.04092856967534742,-0.24580325462860533,-0.3381511095201028,-0.22454100340645,-0.009457321518516405,0.19758044510475958,0.3756009705821382,0.500277050491933,0.5554761532986267,0.5474243491662868,0.48352844901681297,0.3750039115204959,0.26043112557953174,0.17589307694007408,0.1413120822399967,0.15050548092944538,0.1805138964670643,0.21740237412376817,0.2630763863125814,0.3253017915527313,0.3972584553788435,0.44539978472099373,0.44308125314405167,0.38245686278220836,0.2553747501780079,0.0770321628964356,-0.10206191937033002,-0.2254303570489699,-0.28363309406457066,-0.31412972311870013,-0.37283931687204935,-0.46979954113191724,-0.5580542546915392,-0.6088803928652486,-0.6113430773703307,-0.5938109182218546,-0.5890072054072626,-0.5972264000382093,-0.6111142398136971,-0.5888416462318713,-0.5181121992552102,-0.44871002593849174,-0.37732375141537905,-0.31181122154059254,-0.27215472524519607,-0.2793683319832886,-0.3349844387452849,-0.40249255066713463,-0.4507013447030511,-0.4798121114405257,-0.4882932526262715,-0.4683451193347977,-0.39501555553676915,-0.28058014502363043,-0.14248162718234036,0.01431748258341256,0.17832649023770944,0.3056951073717368,0.34432234134410644,0.28549460129853216,0.16044667573111426,0.03506758330540107,-0.08590005682113759,-0.2276991232752907,-0.32640099611066226,-0.3688175820694827,-0.3896437788981067,-0.39547701782610606,-0.38472065917007814,-0.3600536948199896,-0.32802509839125904,-0.2931580083317199,-0.2592881346729093,-0.236880483927979,-0.23327431248802033,-0.24601643272075982,-0.26047871752031065,-0.26168050715062324,-0.24059201391702084,-0.20242094659843368,-0.1571162095385159,-0.10912745354424612,-0.06676228863746456,-0.037699174275312226,-0.023094366224497665,-0.02312970236175257,-0.029084048093450353,0.009002272368739387,0.13760119420297626,0.29942989819405796,0.4349793666086695,0.5313188117356713,0.6019498873990461,0.6554501089643807,0.6875436961946194,0.706532776965545,0.7195690736600128,0.7353825725096744,0.7601887003037141,0.7963515893645668,0.8333026256054709,0.807308580615426,0.6320922061982678,0.45050389486813674,0.3549038578054988,0.3047465389465697,0.26938229463419666,0.24856782631247362,0.22889462848815456,0.20522803498534697,0.18175239759655168,0.1689155305189092,0.1840425907244044,0.23567655972454193,0.3122277061559415,0.38913748732202386,0.44378887236490494,0.4810595720347769,0.5163244587792195,0.552564573826778,0.5824840673705276,0.6053042838650216,0.6223387275686257,0.6309494052162928,0.6260120059427532,0.6027205050431791,0.5722994583705066,0.5407682426003012,0.508981834699914,0.4735797063528376,0.42357541673768817,0.32083539912724657,0.0845291864899277,-0.35635769041610893,-0.7501143207739003,-0.8706761173640744,-0.8601786315851176,-0.8085962948681957,-0.7531553584803244,-0.7184535189171538,-0.71184672260074,-0.7293727461064458,-0.7565635726956393,-0.7741465260855365,-0.7593918240635119,-0.7010929542747771,-0.599466703786488,-0.46586775835643246,-0.32638329758393597,-0.20399563681262772,-0.09216751738563057,0.007614116184438217,0.11067185918435338,0.22551867901170478,0.36199876541336523,0.494709696078859,0.615613633527266,0.7262902742013384,0.8242560773785369,0.8869900855765156,0.9147344594481263,0.9239258121803544,0.9255080710126191,0.9069920314404117,0.8553419113741125,0.777813170790959,0.6959651181406951,0.6161922513776822,0.5257944715869932,0.40188022318695577,0.21099853385918135,-0.032695470260698356,-0.23582383245054903,-0.35126687529329165,-0.40718067265279345,-0.43716173751581855,-0.46664295620705337,-0.5066805343810017,-0.5651595385383895,-0.6465130039863626,-0.7443024081042091,-0.8369411352244295,-0.8967773642185459,-0.9183297015296761,-0.9177934427731066,-0.9120662572384931,-0.9071846597074888,-0.8987901887827712,-0.8737632294838886,-0.8176875686824464,-0.7294910028232986,-0.648888762314847,-0.6134357347257414,-0.6298943232621276,-0.631323220623813,-0.49339101854215006,-0.417253541388771,-0.4344245806378997,-0.4737905527704911,-0.49835282409786924,-0.467462041622396,-0.3581168265923709,-0.21279639331310507,-0.10368991241850929,-0.03744649644657377,0.0036753466877131862,0.031167202959733804,0.04884804290388913,0.06595116410555961,0.09439611691829805,0.13698540424452285,0.1876449884265437,0.22676582317095428,0.2197448137905783,0.11412030783513695,-0.13222216007050616,-0.44094741685821104,-0.6282454383900451,-0.6551512057042995,-0.5708952337654861,-0.4681010963776837,-0.3934274252169642,-0.3407188083067763,-0.3003766697487006,-0.2624098983001879,-0.23376204975629836,-0.22334323541614037,-0.22496149360091228,-0.22079686277520819,-0.19687071041651966,-0.151152977442671,-0.08251324073679113,0.03458241197243841,0.2523448748639264,0.5002225920990346,0.6679710979647286,0.7628809179985718,0.8142571330669472,0.8434556489132273,0.8584624358800726,0.8640026606942223,0.8658138692822053,0.8681457559420191,0.8669349514324914,0.8573604485899659,0.8317927634903686,0.7896749034435648,0.7325972727552096,0.6768371136401458,0.6431304230471105,0.6347370145849202,0.6387850370038973,0.6419280478994486,0.6302354140955608,0.5912299057945709,0.5198819025900285,0.4133034372687231,0.2613101397436625,0.08055429604388488,-0.09408078046109326,-0.22358145255482165,-0.2896591252542586,-0.27856462370308055,-0.18067571193190277,-0.03721579802978211,0.0874576881747741,0.16019137901671507,0.17289391034628507,0.12060976232807552,-0.02035357024943949,-0.17310090321434715,-0.24410588699800065,-0.28202135997535105,-0.30330327332600665,-0.29229909940006027,-0.20783966684221009,0.006825540271903598,0.22652452148123248,0.28029369822252775,0.2593631408902991,0.22077398921606403,0.20995836427062944,0.2664971526697213,0.3809628549859248,0.4897818864320752,0.5678720455402541,0.6341494090760293,0.6953860153529577,0.7552728144567552,0.8037713170944735,0.8236738562237667,0.8146982549211124,0.7853954938062805,0.7320082829392114,0.6155741994414317,0.2371613342845427,-0.3328303078710174,-0.5437064582671749,-0.591458664635092,-0.5794771093374251,-0.5245268774073862,-0.4432550059455924,-0.3742884626569438,-0.35396133752676456,-0.3915751841857761,-0.47097816517907554,-0.5739471897763584,-0.6765390059984477,-0.7530106240338692,-0.798286989988755,-0.8180533472285745,-0.8085895587414474,-0.7674044797644782,-0.7099051084394474,-0.671572440038095,-0.6696937410321656,-0.6839694509531076,-0.6860955050138916,-0.6642389668142563,-0.626753497440138,-0.5772450693399847,-0.5282819856682639,-0.49149187883795875,-0.48436630608844494,-0.5182953452635397,-0.5619283839500002,-0.5859372221986171,-0.5606091737096094,-0.5014727998899426,-0.44008186208858424,-0.3968981067143629,-0.36729635974657243,-0.3333223931185587,-0.2615785682440737,-0.17241451056967913,-0.1003064838213362,-0.05020661226061374,-0.019375600786430944,0.006975285596400536,0.0372374743438837,0.06400171184056652,0.07999841237020662,0.07750715220508167,0.06663465313795815,0.04868413796355585,0.028681187631281267,0.016647546127156184,0.021529765649579584,0.04516848768027307,0.08286347441454187,0.12495741766274054,0.16953516146428216,0.22052513066672805,0.28211141701224673,0.37089351514715263,0.5213692372356611,0.6953784864996505,0.7123386415397647,0.638666175631227,0.6026679403434637,0.6051924054189446,0.6142915647312661,0.6005603591236697,0.5600833480979375,0.5128008316128582,0.4665030292153822,0.4219309479681747,0.37727756296537496,0.3317877581410588,0.2787865518041799,0.21446550669378198,0.14788048964875933,0.09812646488859354,0.07705736422679915,0.07893512814492487,0.07515387999698278,0.040849147291399955,-0.02015239022751524,-0.0804010876712622,-0.13190702557881517,-0.16701874190068738,-0.1643329233596954,-0.1246984491967299,-0.06831445610391707,0.008529670724073079,0.11383942156386062,0.22818271132362455,0.31772927780937454,0.3530181529118337,0.32527744478196247,0.24310332277563645,0.152009792464043,0.09646550566753988,0.09210432712786285,0.13749364053694071,0.22786053248074614,0.36603794174575105,0.4930618066985149,0.567600689575123,0.5949721670342395,0.5998732584428167,0.6084488358099569,0.6175579333603044,0.6172056128992962,0.5855424976166905,0.4857767475901026,0.3274457260165589,0.13567704075029507,-0.11618368451023853,-0.4112650318323265,-0.6367669664333666,-0.7121742934576009,-0.6844789379282293,-0.6437244874936446,-0.6578224952620706,-0.7362491194487165,-0.8191655136876679,-0.8358586956544863,-0.8047213825306654,-0.7726820312163767,-0.7570956508696758,-0.7528827617342225,-0.75410659184243,-0.7512972750427781,-0.7249295505295941,-0.6314105234677265,-0.2352140285285546,0.5616110656439608,0.7053378120131873,0.720058569430942,0.7304590615899612,0.7407839831408153,0.7547104944246982,0.7700921581806444,0.7860930102212965,0.8006189808902388,0.8026019051942103,0.7741395364891129,0.7075026347347392,0.6440864718619306,0.6255644227761725,0.6477680398245508,0.688349400438891,0.7303442613921574,0.7683389025998748,0.797772140073489,0.8204649584675326,0.841064802081271,0.8529013356223233,0.8497442035492669,0.8334164114129545,0.8017948807849055,0.7528704348899611,0.6949532745916097,0.6022957245988578,0.4333902576987185,0.3012771606585077,0.28956605209050185,0.369436952710763,0.46692049474107344,0.5286297822421153,0.5493194792585709,0.5366641028441544,0.500445629884799,0.4731632838310506,0.5225425757926091,0.6574151266621439,0.7638677868537135,0.7975769004043106,0.7939408681618196,0.7632626421729525,0.6608130635411145,0.2626881825246987,-0.5379231917914302,-0.8392673806530084,-0.8969457024304506,-0.9104923319014516,-0.9165547741786917,-0.9205434030043118,-0.9174294053467394,-0.9003351880684584,-0.8674067245417622,-0.830777729590814,-0.8114451453177529,-0.814390018328371,-0.8296353733691518,-0.844014289470711,-0.8513699100270699,-0.84912166562394,-0.8399925573769026,-0.8319963068623465,-0.8307693952899757,-0.8291002809873388,-0.8070720186963887,-0.7523699889836097,-0.6978469002042724,-0.6661829623260161,-0.6404962059431004,-0.5818996041888622,-0.503220661925365,-0.44284310755058653,-0.4099435869214521,-0.401018626590774,-0.4215868486377669,-0.4732678629129593,-0.5234787532747707,-0.5518124911219902,-0.604269587099412,-0.6838442187759765,-0.6863617616131072,-0.5985936287020798,-0.502019605806369,-0.4408989298984882,-0.4246351367001914,-0.4376433481453818,-0.45678438234669017,-0.4719436817929347,-0.4876934162536392,-0.5306231512864085,-0.5928428161372452,-0.6497262856064571,-0.6816245581883003,-0.6689511607816138,-0.5182668308671651,-0.1826973215869829,0.09125161283284539,0.24757754435051188,0.34907435208116766,0.4345902209359008,0.5264349931039825,0.6291618370751028,0.707033477308483,0.7153772351788076,0.6741792053741934,0.640258178922149,0.6416664938279342,0.6772802922725037,0.720789721610251,0.7572087593528818,0.7819625344666116,0.7892264752019095,0.7787146243392782,0.7613846803316969,0.757368952600002,0.7766226392999755,0.8137861901420854,0.8487251146274951,0.8645965934220491,0.8575208616241414,0.8264765902920491,0.7746705123674554,0.7102208703594991,0.635067624591786,0.5442366133582466,0.44545925096558675,0.34824939016454215,0.24526686216625915,0.14053080655285044,0.037996216353292776,-0.048058688523325475,-0.10359999061929855,-0.11931665570514426,-0.09736004354563665,-0.0397300806414559,0.03407126099866576,0.109488574013829,0.1792665314684522,0.23729714978670308,0.28404607044195684,0.309519317751145,0.3102970778932829,0.2932916854304715,0.27147774519266066,0.2508883640154762,0.22337260471375145,0.17038933381678087,0.022529798269436293,-0.2687214476552176,-0.46465055264711685,-0.5272388457438819,-0.5273585256994534,-0.48849979670241545,-0.4044648994515327,-0.269376571754138,-0.09210816581935197,0.1053340955377227,0.29825684820093484,0.4478006100973551,0.549704668370061,0.6247068721595379,0.6781230035398519,0.7135332395899319,0.7331494546522868,0.7400989858185043,0.7382589411409781,0.7264971566906387,0.7054471876495363,0.685758933916561,0.698509929367407,0.7436988683703969,0.7954988147826522,0.8241941455150859,0.8254141711646574,0.8141277788982368,0.8087466788929478,0.8131121861966735,0.8242075366091053,0.8367828563669304,0.8484001231941948,0.8569674519278309,0.8570208031098158,0.8382629258159443,0.792953630278239,0.7270126966389397,0.6320632158776255,0.3696241019278604,-0.3547042038991808,-0.6972352706918051,-0.7799898984702907,-0.8135160698631605,-0.8305771005900029,-0.8349273888112699,-0.8252405389392453,-0.803728889113245,-0.7758382611118847,-0.7480205272555062,-0.7278788552142367,-0.7229879862083266,-0.7301103384293169,-0.7432813512541873,-0.7671093038286295,-0.7976994775433447,-0.8135583341160112,-0.7914787546433724,-0.7337276365295384,-0.652008537598115,-0.5566552713606295,-0.44821249299771915,-0.28218477366755373,-0.03946124354856753,0.16525061720270576,0.347038851885223,0.5695547897960255,0.7735352228849305,0.8573545331938158,0.8728076448166687,0.8769885301298646,0.8814826131205734,0.883351797659271,0.8806989396353825,0.8718348021139303,0.8538200697182068,0.7609624489451635,0.21611519774828866,-0.2354800660206511,-0.34729473103744557,-0.382506783749985,-0.39875328964080037,-0.4073841094901264,-0.42320676081396597,-0.45538626817770217,-0.5038254714431741,-0.5634007854117311,-0.6338050777181027,-0.7125510063971928,-0.7869719549622614,-0.8107188737396498,-0.7706781638873478,-0.707299852639338,-0.6440504862457207,-0.5852121429839922,-0.533121557168214,-0.4931274574400196,-0.4725339491211846,-0.4777820500097077,-0.5167829668427102,-0.5885282127174842,-0.670742026447805,-0.7296551195978362,-0.7361517674116405,-0.6963671141158965,-0.6445842389169314,-0.6012066133151244,-0.5585966045058608,-0.49428953274777054,-0.409513033449092,-0.3140080896356473,-0.22401149717622146,-0.15018686782637986,-0.09741467477835596,-0.05664554928155024,-0.016583673449479575,0.03148822734888021,0.08698580997496234,0.14210250648180178,0.18917351463976287,0.22499891455082124,0.2558072785600613,0.29920857583259214,0.36039112199834195,0.3928457590110527,0.326934471752058,0.2428399432179763,0.18471212477652657,0.14900593998463169,0.12242483639119595,0.09241224828649927,0.05852000447150553,0.020437083028835713,-0.014869721227771535,-0.028526103666040033,-0.018960588528886112,-0.003924043787777338,-0.0064994691395161225,-0.03557428869909688,-0.0826943844063893,-0.1291495811254641,-0.150744833896241,-0.12401184493543634,-0.02617755664512414,0.14101956021934436,0.3319250034786382,0.4915427600944401,0.6090575605368193,0.69269962890988,0.756145712299849,0.7978780201263914,0.8085625955272417,0.7898540630046798,0.7603856516992488,0.7453316921784086,0.7558707032412976,0.7890326253321519,0.8325343064721792,0.8696553809088328,0.8896208275226687,0.894034948601846,0.8906496801790675,0.883371731477612,0.8740417602345462,0.8643041168277098,0.8555585524458102,0.8458797391896324,0.8357410194556866,0.8268359491446345,0.8234905122515721,0.8250286088572881,0.8260317069332118,0.8221608327601027,0.8015765052427379,0.7445279517876312,0.607952335456215,0.29627860990379506,-0.18994211948596595,-0.5630024178341224,-0.7274006554415513,-0.7761274116656428,-0.7694015797565578,-0.7394342840024017,-0.7045669743359972,-0.679149962485767,-0.6695720052239486,-0.6718989786324641,-0.6782774267056989,-0.6891427400644599,-0.7121987671384429,-0.7535259609895998,-0.795278376270777,-0.81612277821088,-0.8056582283952176,-0.7713887625076467,-0.7286874052864977,-0.6935292126135074,-0.6676806539207544,-0.6412950235909789,-0.6065818885828527,-0.5700975970732838,-0.5339793868686293,-0.49978853699952513,-0.4663537941604484,-0.4410157809558547,-0.4267050000194289,-0.4272326991707769,-0.4391061753793173,-0.45465122987093814,-0.4732448247910774,-0.4992137666411154,-0.5381474219989254,-0.5982042715384931,-0.6757739775638936,-0.7456728591600223,-0.7830744418725074,-0.7912560997824134,-0.7830610747170114,-0.7674482306362055,-0.7509064900184138,-0.7365190474824305,-0.7260363558124203,-0.7199318377148575,-0.7189787585599845,-0.7207099520715201,-0.7120373531606289,-0.6795458610201571,-0.6188468864464048,-0.5322964347437402,-0.39903369060721133,-0.1472179381816775,0.29318087755990485,0.6509638725754876,0.7877750367096216,0.831588506110642,0.844369465679669,0.849857293019869,0.859912286598474,0.8741176761037598,0.8880582938598771,0.8967418842596744,0.8988980944287709,0.8963714340496439,0.8919125580199885,0.8888816648711746,0.8880294659705942,0.8889464430066574,0.8903581725228699,0.892921533376251,0.8971119656257928,0.9004796117547618,0.8982009693576996,0.8830151212831017,0.8524573076697863,0.8100958257436591,0.7664960015617469,0.733121591503816,0.7131286611477775,0.7019401380572988,0.67463482964175,0.5825625434589039,0.3880939088866207,0.1261873867721062,-0.11886272108899568,-0.31458908541152303,-0.4745870445029785,-0.6180587060592003,-0.7436383112366582,-0.8271299903851209,-0.849237960004221,-0.8263396701001154,-0.7917933395462248,-0.7582482945892285,-0.7330128305266698,-0.7226243584696643,-0.7292848514497717,-0.7468306596233114,-0.763723172857274,-0.7824122445633876,-0.8072704320754331,-0.8421142556269726,-0.8762436803037985,-0.8991928880282546,-0.9103722363628741,-0.9063299272297207,-0.8750869002260183,-0.7996844590292007,-0.6768130408368228,-0.5333178314294256,-0.42931593521679695,-0.3914570288307355,-0.44382777678665564,-0.6094952789683893,-0.7589063326918912,-0.6372203474849089,-0.49196517145172997,-0.3965661812016333,-0.3266048830933765,-0.261101306147622,-0.18609289237726837,-0.09552110728062446,-0.002136194776731021,0.10025751856154407,0.1994191598214066,0.2514682951580084,0.2440265833651421,0.19952092247194128,0.1614513087371598,0.18624026969907975,0.3265093331604467,0.49797325557746286,0.5305085401814575,0.4974122432085832,0.4652431934660484,0.4442205919257521,0.4110343344602395,0.3333089127996912,0.2625840244287151,0.291692302298778,0.4555619956448233,0.6323735976633823,0.7349709165037198,0.7927272946820848,0.7886268638112067,0.6965427009775318,0.547674733811909,0.40430757833178776,0.2956697149272926,0.2246913926560282,0.24902828851410455,0.3681598589863263,0.3006940074702598,0.25188147552647133,0.18470869210235322,0.07732764413526258,-0.027257968597411024,-0.0850544078962889,-0.09701927971296415,-0.08435261455276398,-0.05354993037333455,-0.014256527099316326,0.01368329407504928,0.01646701169117215,0.019526282333714146,0.03977260890344834,0.07768896650117381,0.1289290886632394,0.19705598342696376,0.28883110561339587,0.3855801892297366,0.44055790564628833,0.44607734711561475,0.4222134132497709,0.3904517461906302,0.3674858440919432,0.3482816253868432,0.32866956671652725,0.30590393459326964,0.27130706779501174,0.22106415282936331,0.1666650643516297,0.13830457836673798,0.15987230427222723,0.2398295545533197,0.3200534095468096,0.33762407470153033,0.2775339591584353,0.11647672264169737,-0.1039401919113867,-0.2176431609401275,-0.24823908940581552,-0.25552360726025264,-0.25900019577652056,-0.2680119499332188,-0.28691320640413703,-0.30835706655545414,-0.3237989369308685,-0.33034096006349994,-0.32997109993183055,-0.3252094556130955,-0.3203397515082756,-0.3218640043572212,-0.3319279514933448,-0.3528257033171243,-0.3728422596734,-0.38329127578984157,-0.3779647489975391,-0.35476836455910055,-0.3115448421086414,-0.24399142567079943,-0.15835242150675038,-0.07036154163001745,0.010047077630904422,0.07482213662034065,0.12198889814065872,0.15836663336607773,0.19692411217037703,0.24947419069311075,0.3249638864965375,0.4373760768638531,0.5616985657374914,0.6494202991433201,0.689183842318445,0.7009490454396343,0.7024993767717791,0.7052651497615317,0.7149837583359189,0.7365520941423481,0.7657987260242731,0.7855340030085907,0.774448659231398,0.7300792001620551,0.6740401571810353,0.6229694437359069,0.5786839077258091,0.5379798549501402,0.49226237028384706,0.44000224694463996,0.3809527970337041,0.31100676159001056,0.21802500827439966,0.08508955290705357,-0.08325392463461957,-0.25335072736302705,-0.3935954851103897,-0.48581004509649994,-0.5381364288753094,-0.5598208794018164,-0.5629652088662777,-0.5542854514708031,-0.5410308745749438,-0.5265600500880859,-0.5122432357096764,-0.5013093713298173,-0.4976138386866859,-0.49962733240087487,-0.5046741476043477,-0.5139235806347098,-0.5141917466469365,-0.4844202084154262,-0.39440742288630787,-0.2307584849857126,-0.042488272661951376,0.1285578773186574,0.2756190829164712,0.4110678476115953,0.5394161282146352,0.6565729727608668,0.7544873082842168,0.8154973529594188,0.8482624641337243,0.8678026231700198,0.8774463486385747,0.8802935566864674,0.8790256486121624,0.8749147041075642,0.8672454067740162,0.8507426683018788,0.8134299093463807,0.7386716253232127,0.6150371281130144,0.4580883086609334,0.2934440858787253,0.1267591798367947,-0.04811504770281552,-0.23226743010481374,-0.40054607144715376,-0.5341040754287939,-0.6343791145983988,-0.7051304930383677,-0.7528437677639312,-0.7802110129716077,-0.7899963864038305,-0.7920448320386035,-0.8021948342296679,-0.8282545860200557,-0.8577487383139182,-0.877009327936238,-0.881480085925184,-0.8800832460506661,-0.8804037935923141,-0.8829816622930099,-0.887243590603369,-0.8924450120302108,-0.8973224643193193,-0.8975023876679604,-0.8839616930167039,-0.8467733680324702,-0.7776654491831115,-0.6698477150362412,-0.5121303155305001,-0.314449480812786,-0.12509978190078097,0.01608978149255212,0.10981094493040344,0.17498810852823898,0.23484182000502535,0.3032557238231069,0.38231427945131846,0.47231243404055484,0.5695312562893888,0.6591482511958585,0.7244330883671777,0.7616986557097397,0.7809185041254441,0.7933217338080355,0.8029664401986312,0.8138966670402217,0.8292043029830403,0.8454843368469807,0.851785829099488,0.8333376925933502,0.7816261899181621,0.6859412068886411,0.5510990904790646,0.4091665721064542,0.2943666225942901,0.21514408649162325,0.1717085096564671,0.15273597084888493,0.14551551887050707,0.11050499805910464,0.022635166328123943,-0.11665363423296192,-0.25635369424103915,-0.3364459135634916,-0.37721724368297854,-0.41533178573196505,-0.47625667272830435,-0.5511170037969978,-0.6085399216054048,-0.6349308703672962,-0.6335062697008056,-0.6100934356098249,-0.5470283712853049,-0.3777297940536018,0.029657828257072447,0.35049419753101335,0.43675467952716035,0.45298240465044204,0.40237621696534126,0.13429946248518998,-0.19937263188703583,-0.3263435059084068,-0.36904302977884773,-0.3987659067864816,-0.4277831546495299,-0.4542239714664566,-0.4798222071996179,-0.5014862884308626,-0.5167583451919797,-0.5299012565870734,-0.5590050980866941,-0.6166549281957573,-0.6982486445658499,-0.7654794864516848,-0.7845973583091259,-0.7318643402945842,-0.6259362995230406,-0.5105758216013665,-0.42850692120671535,-0.39440552055763844,-0.39677324367375144,-0.40956446531660207,-0.424048800612686,-0.4410388537723835,-0.45347767205484496,-0.43052432608705477,-0.3366038091072601,-0.21416665569835902,-0.09751308864401868,0.03116271009007985,0.18707703298608042,0.3510628095992042,0.48493813645725486,0.57617024779533,0.6356318283472697,0.6800700095824701,0.7176306408441141,0.7497569415838976,0.77592473279661,0.7922990934600129,0.7970502927817505,0.7909370487094484,0.7794015078949814,0.7666959749189467,0.7468615778051253,0.730027895671127,0.7378135424080629,0.7845174720411723,0.8433274744468409,0.8109013436818331,0.6783944478000818,0.5535362356669374,0.45076743987759504,0.31638663971650277,0.08166382258474363,-0.28916253957377014,-0.5997336153603936,-0.7336390679841995,-0.790817425860713,-0.8220099413516694,-0.8441950075916038,-0.8618368807090985,-0.8761251551797927,-0.8807477769592243,-0.8685944211199967,-0.8365853299657086,-0.7933317776479052,-0.7446798568237896,-0.6816031181165491,-0.5703325845673777,-0.3627437753452143,-0.07530185506234188,0.1716243184047038,0.34226566427308697,0.4738127248876519,0.5919697025118424,0.6984586771063563,0.7816363766800732,0.8288097068273987,0.848644639229032,0.858533502365446,0.8648702225104983,0.8706931510351383,0.8753481772975434,0.8773709487647801,0.8765899294974369,0.8718801159032928,0.8629252269726624,0.8455644718905859,0.8132285316884758,0.7553354271970429,0.663253072887436,0.5320092958891439,0.347751977878843,0.08588921871236865,-0.22497239018541046,-0.49976101914969534,-0.6819379766497151,-0.7846581108713028,-0.831479580909683,-0.838867076221206,-0.8189008907746369,-0.7887381230399151,-0.7723811956834506,-0.7810746338014433,-0.8096029347355548,-0.8383123697232019,-0.8533676893699358,-0.8571370639960056,-0.8506950336862149,-0.8440331698085966,-0.8414179378920148,-0.8476947214590638,-0.8605880007050211,-0.8692585472689425,-0.8657754046683931,-0.8559816850254186,-0.8503758279352374,-0.8536483488780351,-0.8636804002162446,-0.8760220242454103,-0.883386273041632,-0.8804042999539698,-0.8618329458345931,-0.8179208611572254,-0.732235593774633,-0.5944270270186708,-0.42254458279690166,-0.25304391879511307,-0.09960246749369821,0.04173953670343581,0.15963508158225345,0.2605141336746608,0.3537530760559757,0.4420939493472369,0.5206463997964781,0.6007348950718345,0.6855452525815534,0.758208196969879,0.807415919256545,0.8259621732747423,0.8075384175660093,0.7206937621331805,0.42135519554930684,-0.08630831184239125,-0.35955587207723394,-0.41966157716631175,-0.39319553612865704,-0.32556641185993884,-0.24225697763091503,-0.17075668009732833,-0.13312410786189496,-0.12646320157589064,-0.12923460347430274,-0.13171848682025752,-0.1274587357685799,-0.10621765396072078,-0.05606065595952098,0.02366145749185738,0.1405052689120323,0.2586790588550104,0.35357351451861924,0.42669885186954154,0.4954173832469683,0.5770268315998879,0.6750673111764026,0.7791961857502563,0.8640297295070574,0.9134491415683813,0.9327166573111573,0.9343083392084874,0.9304641093884489,0.9238358269320353,0.9114021648036744,0.8920094720497828,0.8706988341125849,0.844000322251582,0.8080653082678705,0.7516009178960682,0.6142718673345291,0.11311275347938769,-0.35886596570554447,-0.5138775065676211,-0.5738105735303564,-0.603172255005491,-0.6219334308515011,-0.6322499130696206,-0.6421993529081312,-0.6534107804223512,-0.6521135282701688,-0.6156106161996615,-0.5199007463494495,-0.4019062537588586,-0.3004948247099078,-0.2121099688820143,-0.14913417026832798,-0.12972567116415443,-0.14297724446536778,-0.16026345698079297,-0.1472613046154939,-0.08803134055679387,0.0020216744299578434,0.09687656537895646,0.1824543481367636,0.25560447989221585,0.30686902918755476,0.3407423354042952,0.36987321529386114,0.4081807788439719,0.4650547278367648,0.5325235081866635,0.6057476204650086,0.6811778302522062,0.7460099635806074,0.6541728831392438,0.3411120961180143,0.14544650641710793,0.05647405564812545,0.012769414367349362,-0.012862911939444412,-0.0360614175566374,-0.07012346709146872,-0.11505614937491102,-0.16110203102014947,-0.20211970779067115,-0.23943339303188482,-0.2781282663522657,-0.3259720158514763,-0.3931577948802332,-0.4929875073797149,-0.6265123063868134,-0.7540919439424707,-0.7969129786184086,-0.7716799535878054,-0.7410365039875016,-0.7070299893267601,-0.6519874034666028,-0.5876655419420043,-0.5327547686266526,-0.5011275672113799,-0.4813452941675308,-0.44842563640173544,-0.3708210468655149,-0.27120210105747466,-0.1803015838386917,-0.11178988050079469,-0.05663648446055797,0.014323535668422089,0.13474197779371613,0.3008906180219852,0.4483850631496667,0.5262573554362083,0.5638414392032025,0.5832427722812709,0.5971083061606792,0.6151706742786895,0.641192732818852,0.6726283720379853,0.7073681576812619,0.7436301724957394,0.7807261341231971,0.8143879888147628,0.8316708721104752,0.8185706075201639,0.7604817758279323,0.6438802060487604,0.4693752918124969,0.2658374796557663,0.0741833146307269,-0.07106958387304882,-0.16838239430743462,-0.23560249045853499,-0.28528845102950967,-0.3309868897761243,-0.37808674550550964,-0.42216805503601645,-0.44689126939170815,-0.4246540171841012,-0.3830255370017084,-0.35804108563272463,-0.3563285518028903,-0.3726390440900247,-0.37814545978951863,-0.35511355647183074,-0.30255916655576326,-0.24150062925889607,-0.20494303364575014,-0.20278998025756378,-0.22298441280704248,-0.25033241886105717,-0.28110927849946865,-0.32027408246894457,-0.3773530026235124,-0.4575720254208117,-0.5466013381030259,-0.6174903622448886,-0.6498869805700984,-0.6447891741050629,-0.6112724582296248,-0.5586801290978808,-0.4979798644341197,-0.44200828972787853,-0.38633722205419974,-0.32058854376424784,-0.2434070738811165,-0.1757442102829936,-0.1423318677813478,-0.18146674595007273,-0.3300222243922516,-0.5178432024138194,-0.614191138581019,-0.5638015935805488,-0.39494207508219675,-0.13232177282094018,0.13037298487883348,0.30936761878426905,0.4119162561664093,0.4673961253287745,0.495893384664318,0.5098379722599236,0.5192599605199231,0.5504106628487258,0.6240676291144456,0.7176352359063147,0.7940814828745963,0.8432877017704642,0.8748837978646078,0.8907132388877974,0.890465001618911,0.8610654563927924,0.779391596171252,0.6320388880055895,0.44482836017241484,0.2841048041761873,0.19452601539692677,0.18768863194360155,0.24925684842862164,0.3327814297923418,0.3827963639992573,0.3683008125260899,0.285138797367478,0.12279353922246913,-0.09887410926115796,-0.3319176029373048,-0.5255689967187951,-0.595152908416295,-0.4732170635820812,-0.3253615372667574,-0.2528632603291827,-0.2383816075331842,-0.25655596849657364,-0.2730166363354001,-0.2811095747654441,-0.2837845736186332,-0.2862087543980929,-0.29220893338545273,-0.30529982554108187,-0.3252701403069996,-0.335724777798089,-0.34388459108429936,-0.37122758344860485,-0.41306600932664106,-0.44071164083726494,-0.46113258576191796,-0.47769896882881185,-0.46661654967721655,-0.41077004420371754,-0.3406027438744958,-0.30071081505702074,-0.3344222351578273,-0.43824198955138016,-0.548478176696238,-0.602685229969034,-0.6193646118679935,-0.6148535080871343,-0.5756019332215425,-0.48491392268326783,-0.3462022854958673,-0.21454674107046395,-0.14553237271113897,-0.15776866009238968,-0.22661322160364872,-0.29532839855184745,-0.332273612236491,-0.3481300641934756,-0.37743434156887484,-0.423991549420292,-0.4811277805286101,-0.5015102270500531,-0.4375136418553318,-0.31126363287485015,-0.21271151795225687,-0.163824872694075,-0.15492467325889744,-0.15652340399253137,-0.13404884156706026,-0.05794839754131307,0.11490033036965575,0.3333726177584248,0.5314243227455815,0.6822239651671218,0.7687083262620577,0.7780421747229754,0.7127058531911167,0.5974659225676896,0.4836276607564364,0.4183499741906587,0.40803378385788086,0.4344843495071517,0.45896086997442154,0.47745321173313493,0.5131005989341061,0.5651007647702225,0.6212581255780223,0.6722875411352669,0.7141205860165813,0.7478286875082765,0.7776257988096178,0.8004248100501393,0.7986633680900298,0.7333542588257301,0.4961415334401315,0.03485478792488414,-0.28661620682110367,-0.42895056188770314,-0.5390471643055178,-0.6727656547759261,-0.8005577369150935,-0.8822239247064633,-0.9144779501451398,-0.927848498626012,-0.9347638797944768,-0.9303908979617156,-0.9070385207397288,-0.8697086861610277,-0.8421501545817047,-0.8344687942636176,-0.8294652433880298,-0.8123693231368416,-0.7594416420525923,-0.6550610820285744,-0.47785566881209135,-0.16676151293820404,0.363208823209755,0.7925144918264407,0.8859521299669328,0.8779755982278781,0.8611997756685256,0.8481160742702946,0.8359318466596503,0.8227680101085069,0.8101428908060015,0.8000766485321681,0.7875627085716119,0.7663012704559043,0.7272044510740483,0.6658990232017712,0.5847063939924354,0.48228600014259343,0.36139899041279855,0.01365894851104098,-0.2492968745580168,-0.3027708723273919,-0.3441019690761095,-0.3723039391396821,-0.35985917288680364,-0.26630020009858163,-0.1725835280356925,-0.1686229484304457,-0.21248919217748136,-0.2598394633491311,-0.30797784336350975,-0.3639432957420818,-0.4320040727895114,-0.502437747708688,-0.5550512207390127,-0.5984732184588496,-0.644568571970068,-0.6879676442079322,-0.7114769225528474,-0.7172411698593104,-0.7194150519993143,-0.7215903577903799,-0.7052124067332042,-0.661202519949509,-0.6079775131352154,-0.5610182810505057,-0.5182216936143595,-0.46974626932021624,-0.413583682490138,-0.3494809011184439,-0.28523789131764377,-0.21163184385501418,-0.13924356000168653,-0.08272692885532243,-0.04054807164015323,-0.011501832727161305,0.013094273782528334,0.03504843206567989,0.05403922981000009,0.07134333092594723,0.10372897627628697,0.17080382193657076,0.282815203594464,0.4295969702278059,0.5570345341982745,0.6279649477339098,0.6450956731674777,0.62728772926436,0.587501793560602,0.5386382468160559,0.4898692987645268,0.44766935637712163,0.4051990748643699,0.33954615013938566,0.2339973470926498,0.12025845611555122,0.04169271964774269,0.014831330512132826,0.03111773763973365,0.09667971807726013,0.20235099667412354,0.34623940533146214,0.4955819423354005,0.5712242730409726,0.5565326169670344,0.4787271710742235,0.35170598561656785,0.21922713975447783,0.11438509584618259,0.04917701045310342,0.022106102792241906,0.01751406170792801,0.02997247998535656,0.05957749492105129,0.1029217192952597,0.1528282887989912,0.19137695310976294,0.202881666762456,0.19127171876873353,0.16318955606179003,0.1206235279820394,0.05720724843774224,-0.02095778226397376,-0.0983593070855167,-0.17386205108030983,-0.2621672285896323,-0.3610914837088019,-0.45702683684673145,-0.5323962539747744,-0.5804335894000721,-0.6091903749944312,-0.6205923554588216,-0.5784958485008468,-0.4045249406596133,-0.1694030362199553,-0.01915051786798229,0.049789670822619835,0.06468283455795713,0.029833246855345077,-0.03427781352042568,-0.08888730946076367,-0.11085098625523274,-0.10569392962297791,-0.08281236622968727,-0.058218883624779755,-0.022629428501284177,0.05390262545568848,0.1564123912831802,0.1989150807625903,0.17879229095081467,0.11937607439634737,0.048592607932301086,-0.00875678512364165,-0.04976374073533818,-0.08955755624613496,-0.13423739028345752,-0.18748003687498463,-0.25076924778739673,-0.3246113336956418,-0.40139538926352475,-0.460902073088212,-0.46663090082898523,-0.37084434271151945,-0.19278358636149187,-0.015228665067288087,0.11955654690890456,0.21155143796688747,0.28831217761375655,0.3644707888774308,0.42522790644434216,0.46316189847911005,0.4828879475380452,0.49125486206461844,0.5042162675518687,0.5497298126347928,0.6152884590091368,0.665681493886605,0.6885220029433874,0.6932258470741746,0.6894668403108191,0.6836168588905297,0.6778903678590831,0.6731955152513093,0.6620678942863779,0.6271548752238054,0.5503218878019145,0.42132544425999596,0.2521508436975783,0.06184063662927355,-0.1027487934697693,-0.2178550635219403,-0.29784374953674536,-0.36570152516461574,-0.4322551633647883,-0.5086415038702392,-0.5851236718624554,-0.6418838470144131,-0.6543348079028161,-0.6096217769937331,-0.48305802505774614,-0.29812721204548054,-0.10005921774314741,0.07685964150401516,0.19740485796329588,0.16714219066475347,-0.02414353224084924,-0.15505000908741165,-0.22920598310322549,-0.2883905741541665,-0.3242181857246634,-0.3349394990464038,-0.3029861774496387,-0.21355425612755072,-0.06568889566812938,0.08356121629430378,0.18717542660758363,0.24650010497222533,0.2783782908904915,0.2975293221921179,0.3152198646536531,0.33175199353232954,0.3353323934523279,0.3142313250331135,0.2689252144196218,0.22228946201958866,0.19899593693812673,0.20823938588020952,0.24885883020838018,0.31445643953507607,0.3946294735385555,0.47362884562561425,0.5409587931401478,0.5864578955138827,0.601879633730692,0.589573507344718,0.5546815644465394,0.48256248589056117,0.31378727635834,-0.0012506125651200288,-0.32128276532199307,-0.5028540103229143,-0.5814182341745974,-0.6133449461107779,-0.6238347046635222,-0.6232870927561449,-0.617771524501903,-0.6040562993004813,-0.5822140085046953,-0.5535526248230795,-0.5210932044807584,-0.48699218462332694,-0.44789540654145016,-0.4039962530430161,-0.36113118088197005,-0.3293821272149643,-0.30824113135435927,-0.30297447080691065,-0.3525078939281277,-0.5059590685610308,-0.6878710238406417,-0.7425961465127108,-0.7361610087855245,-0.7262633326379009,-0.7188247690265027,-0.7075740316555091,-0.6316429987953203,-0.3813104342412284,-0.056377214482030015,0.18169519189722086,0.32698580434998337,0.4182704134184636,0.4634951637641265,0.45764342002486075,0.4084964063349899,0.3349088916350177,0.25461582874102073,0.1656525323734878,0.06734943926231815,-0.026277114783225218,-0.11830425554744997,-0.1919483215421566,-0.2554699295702534,-0.3021020683648726,-0.3031860799038773,-0.2513573114793651,-0.14967880633900826,0.0027033387159400247,0.16908656397077793,0.2585803742584618,0.2077277684984089,0.06220680718998233,-0.05492511702175138,-0.0876995970672858,-0.04904252867791039,0.02941242883100738,0.08989994229204593,0.050038341699394494,-0.0945313264633828,-0.258806208666387,-0.36396485606858586,-0.3617594064004952,-0.25572040143095365,-0.10852360147571201,0.055452547509586204,0.2445630027565857,0.39270055207436205,0.5016506217050445,0.604192568494768,0.6859105232821987,0.7379632425560454,0.7800525706229231,0.8118607249683912,0.8343516347622851,0.8489248235412561,0.859036040817632,0.8670587461753619,0.8721352096252565,0.8727553604339662,0.864848504402745,0.8414718238893657,0.7957423830188978,0.7299549397773348,0.6705919242098228,0.6467251478308474,0.6582915785614628,0.68767158083181,0.717843680159519,0.7425865486966193,0.7648199462792254,0.7891578869486983,0.8170079930404973,0.8449268156697394,0.8652670953983775,0.8703818441740896,0.8601774343627598,0.8407261300961978,0.8170409707063464,0.7863462640304953,0.7323996527018266,0.5995220326746066,0.2591587344045242,-0.15711730197444124,-0.3615380727808902,-0.459986848159361,-0.5529306491219106,-0.6691626853886163,-0.782455039315769,-0.8576040161203483,-0.8934665368592867,-0.9021916413485381,-0.8859941374737682,-0.8539780493296184,-0.8246162525761787,-0.8101445813448562,-0.8107343413791723,-0.8202659434175698,-0.8324089350616106,-0.8446232397490528,-0.8541894926953403,-0.8609306587357106,-0.862644258538549,-0.8605921572985163,-0.8582842371422384,-0.8554201329028306,-0.8527963490255428,-0.8510962761861685,-0.8530295120394276,-0.8567565142749556,-0.8582199294747099,-0.8552807904103186,-0.8473515635275302,-0.8372177001720691,-0.8252042767182507,-0.8156197630964742,-0.812495616281893,-0.8140214087881964,-0.8164169065416337,-0.820168650229362,-0.8226966764165807,-0.8295012371827484,-0.837534984660203,-0.8385861031314853,-0.825407103432696,-0.7912651592602398,-0.7376424789027404,-0.6653806338742704,-0.5583212085582167,-0.4117781407642333,-0.21074710893289897,0.04368576165927277,0.3310479682419863,0.5775642018285654,0.719346308318255,0.7868777952477491,0.8377565145410181,0.8880813105851327,0.9159574733985892,0.9194070177655864,0.9099369258734696,0.8937560576928755,0.8763423350917404,0.8643038979036264,0.8611279381315584,0.8625001094053375,0.8606415776918074,0.8553380912272044,0.853111420635715,0.853307951338114,0.8496992792527278,0.8389782776998312,0.8182065911395189,0.7898592097597514,0.7519750757240354,0.7031526308300484,0.6507774120510977,0.6042869860658964,0.5692445312276201,0.551861178190095,0.5417429598370709,0.5089573777265005,0.40761028507354063,0.14165422518365348,-0.210963722890457,-0.3582097313735112,-0.365762590026244,-0.291270260013734,-0.1313868199055137,0.04859579406038044,0.16385929948267244,0.205388480073333,0.19886544214342053,0.1591853101573583,0.11027797498405313,0.09870494656277042,0.1841351783023554,0.24529721597199874,0.28095466744794284,0.29223984711850287,0.2819046875150905,0.255029189952277,0.21561800433227402,0.17189061602833444,0.13284022800837808,0.09890692502788277,0.07730321972015754,0.0744788400195209,0.08271830618155011,0.08835625452043312,0.0921606698906308,0.0956299582143451,0.09462845280791267,0.07975830725503259,0.032078722327967844,-0.06798049814029622,-0.22355956491399398,-0.3424878910048774,-0.351519614204125,-0.31947371121204643,-0.2826495289614458,-0.2359075430905293,-0.13869477909299047,0.028604779204959997,0.2604269984074034,0.49684170621030677,0.6559250254398226,0.7325012370962518,0.761904372481043,0.7655634022041281,0.7455465642804705,0.7019280824794281,0.6291585361380906,0.5523101634532772,0.4990305818487781,0.4652484396496582,0.43701361136631156,0.39421358640140103,0.3235371069757081,0.2324159005992747,0.1431617668677311,0.07349902785189541,0.031130933980753374,0.011078734221995647,0.007033335704823143,0.014226236726666596,0.02267932322058599,-0.010439889417086175,-0.20796216437676524,-0.4789884334844174,-0.6555342490000015,-0.7315776307239539,-0.7430982062131247,-0.7135062091805751,-0.6522478158131346,-0.5661608855181729,-0.4708085724851469,-0.3873051807078439,-0.3259800442873672,-0.2851281055555697,-0.25936645054647767,-0.24286709134655185,-0.22696787445990385,-0.20256854666055119,-0.16915993498357362,-0.12646612115514316,-0.06920112763168988,0.0033609792329298547,0.0896591889539454,0.18162981849032683,0.2641818081092529,0.3241268707198753,0.358346286728566,0.3735670978952068,0.37566093234737125,0.36815033664352087,0.35094773896452647,0.32003910687345044,0.27313899268585073,0.19954697660409662,0.04707631667327347,-0.23025932232316654,-0.4133143910726008,-0.4828974105680001,-0.5363421113159058,-0.585933258854803,-0.6144683458678394,-0.603129456195481,-0.564647852078119,-0.5239369547451905,-0.49372081334732215,-0.4692786646081371,-0.4450810743661787,-0.42255750949626864,-0.4058112620871617,-0.3989231806754425,-0.39468994055889994,-0.3840145952594191,-0.3632723591022788,-0.33922086692511405,-0.3203288297973266,-0.31467573923815106,-0.3161990554816153,-0.3164001587572863,-0.30158553052369447,-0.2653212321761815,-0.19831365722677002,-0.10030548992980784,0.02817312641025605,0.19142615535618906,0.3659844299631026,0.5181950702575241,0.6142715423713043,0.6414866360800175,0.6080962104281491,0.5453472256292203,0.4942401032011862,0.46596720103935735,0.44382384737700625,0.4154711976114442,0.389094552382259,0.3858089713598544,0.40577506220584536,0.43803638418142177,0.3941340404440253,0.2766738933641282,0.22514160886186035,0.23939590871312877,0.27667383460037587,0.32363259568970365,0.38070451890295604,0.43548859706800536,0.4753818387206526,0.4874943239882941,0.47962484006200456,0.4729182482369026,0.4723042964093511,0.44366341662688225,0.34493528562673986,0.2253186372526995,0.16393533235240432,0.15219759803623775,0.16541644837481653,0.18452836772363865,0.18008921469958544,0.14212342899153754,0.07821071147349506,0.02601469550946442,0.036479035584415904,0.14319190982351682,0.28740987708531335,0.4177415817940981,0.48863713902771794,0.4728759603714083,0.36202224706532904,0.2099958854345749,0.051804584999032705,-0.11671273770297952,-0.2832348819787662,-0.41490950649737823,-0.501582647071943,-0.5473358424393672,-0.5587604110448868,-0.5685369331509419,-0.5710941118777617,-0.5425164601795053,-0.5132998021713442,-0.5083462942331065,-0.5322870652724724,-0.5732499605850301,-0.5942458563303646,-0.5385091343487217,-0.32786653400571175,-0.07321209387141377,0.07216601737006935,0.13368196815870423,0.1169528802242174,0.02674539951284497,-0.08084074456081992,-0.13875787267467354,-0.15548523029260872,-0.12285549943192536,-0.028285509031636274,0.14921508894685498,0.4108064672577235,0.6410283597802845,0.7526434454168555,0.7918884501441148,0.8011367525391284,0.7964446210186545,0.7843558145275068,0.7777290113119559,0.7808521405945246,0.795035403803001,0.8177612757571898,0.8375505130955379,0.8466155946050552,0.8459377664073008,0.8412630465663025,0.8389140858020155,0.8371613073992503,0.8252634752682415,0.7984243866793161,0.7584137742594665,0.7071824651861495,0.6381307155802165,0.5337995712311341,0.3807658109878409,0.20635591421740881,0.06275072996160681,-0.03250426301531564,-0.09212523811586244,-0.13447872445299375,-0.1912318473885234,-0.3076843636774574,-0.5851648879783392,-0.7484317345773494,-0.6262082396733202,-0.5670021834964828,-0.5517126523809383,-0.5287301065530646,-0.46371941753413426,-0.3878616060591728,-0.3326213250378855,-0.29303112785258556,-0.2577277206419484,-0.2236915324328712,-0.1885769995047889,-0.15436450939652518,-0.1206174913439782,-0.09587061958853803,-0.10187861145170267,-0.1831744261249282,-0.4370300642236705,-0.7659036493839599,-0.8546717936667005,-0.8093872771640929,-0.7325295656001021,-0.6397362341007472,-0.5478360402992188,-0.4737525594912136,-0.42153597858039055,-0.39231275395497583,-0.37903501271753237,-0.3775052872568984,-0.3858416271199364,-0.4026253482830418,-0.42843617684807034,-0.45951760532799735,-0.4880236497761446,-0.5086345721895155,-0.5157003898641416,-0.5085733884993746,-0.49710024395237895,-0.4990591060251261,-0.5189577554893174,-0.5276062586223256,-0.4944508346161909,-0.40318321264635704,-0.2930478219739765,-0.18227315036095373,-0.05643760062973192,0.07069452948636513,0.1765009399557338,0.25537233272774335,0.32918224485737474,0.4069684990446632,0.46456370204509134,0.5015613093924733,0.5261134266565425,0.5343942623450074,0.5171367266690422,0.46982220483960174,0.38871628361395194,0.25893876098524116,0.09661794151109028,-0.036245350013954354,-0.09506822468110099,-0.09013087302593807,-0.028067981740250162,0.09864559576101292,0.2987846503603637,0.5002400998852192,0.620058627790394,0.6552185768407831,0.6627714346434784,0.6753548816693212,0.6973825052607437,0.728969513391751,0.7729472550998913,0.8138244749335432,0.8268177210171199,0.8283876911971525,0.8458728717425749,0.8768007971985813,0.8971725005520246,0.8948587743116451,0.8791002587652731,0.8666043849371631,0.8621218307911729,0.8663673463399053,0.8787251994270922,0.8951752776733816,0.9077463998114534,0.9134400383833413,0.9149998946396836,0.9121937395257061,0.8952413698082581,0.8374428898578967,0.6807300835262468,0.3097732338356661,-0.23811735353102909,-0.5999063644002431,-0.7662959695986687,-0.8406069507738295,-0.8740495925954468,-0.8844076975757672,-0.8836464573941688,-0.8797953086043223,-0.8761426714497407,-0.8740697189233063,-0.8795381048695307,-0.8912419732200749,-0.8999609195507686,-0.9026804614134122,-0.8986989214007797,-0.8890396397856268,-0.8807845018970786,-0.8784109397614687,-0.8738523701376315,-0.8608870932776901,-0.842495940112653,-0.8221337625784032,-0.794409084121981,-0.7649266422466008,-0.7399380034225364,-0.7284797005366067,-0.7346649582135656,-0.7580797650071126,-0.7891472610967226,-0.8208405259622789,-0.8479450555792433,-0.8625300590393495,-0.85620482487601,-0.8294203910139346,-0.7969433965576158,-0.778954098963661,-0.775361768436467,-0.7808626198021862,-0.7896341209177989,-0.7890370920277168,-0.7607979392415295,-0.6495437319895088,-0.342128720527559,0.07799735808827259,0.3753197880147633,0.5423355377338798,0.6368497516696242,0.6925605069310399,0.7141296489172956,0.7027183114633464,0.674956985169579,0.6592888104862136,0.6676270040836713,0.6927084044132019,0.7257941978463501,0.7602476718947406,0.7889817672431051,0.810351306636844,0.8239024256768569,0.8303969842978474,0.8247354450134892,0.8066280733542335,0.7829195186065782,0.7651316174278848,0.7594917527016608,0.7618793037379977,0.7368845899180383,0.599490593889427,0.35249573022726827,0.15818040837558742,0.05236502953604958,0.009631062601843732,0.022019183716313874,0.08278666778374906,0.1665501685355702,0.23930687250552282,0.2822653002876533,0.2839567131581515,0.23024609988550687,0.07337822141014598,-0.1954986226645557,-0.3974016777307137,-0.4632075944997156,-0.44793432315523857,-0.36645457568617984,-0.20003341118350657,0.07137298700195778,0.362482419990706,0.5269275328074745,0.5964574472853426,0.6226569470793879,0.6057180805135808,0.5331777738452123,0.4154697362426383,0.3021401987714045,0.23018509894688186,0.19964255599691466,0.16897998933768008,0.08713059547269078,-0.08776424823386193,-0.32700151426020174,-0.5187326810564153,-0.6259002552886247,-0.6789882358220357,-0.704611802254397,-0.7168595101685794,-0.7271291868010176,-0.7319180732139761,-0.723446702588068,-0.7028826801954153,-0.6884055914381801,-0.6805641971881287,-0.6774944628274315,-0.6608271472382519,-0.6209963420752378,-0.5394952996008283,-0.41698859340189154,-0.275678730416054,-0.11883033915111683,0.05298301907551555,0.23012011425074233,0.38581932956479914,0.49160821748144073,0.5554569778358643,0.5997963567689082,0.6458582754187204,0.6970141672229782,0.7499615613128996,0.7941128416555879,0.8233052146500818,0.8402289795461305,0.849523349672547,0.8539743570965533,0.8548345200833019,0.8528759373548597,0.8520788641875825,0.860279118694241,0.8797313496415388,0.7930213315234768,0.396198052882725,0.06281294024225777,-0.12613478709853818,-0.24948772166168812,-0.3407930079506362,-0.41396761140609645,-0.4651630204283196,-0.5000143352245511,-0.5246284243372222,-0.5500828817992578,-0.5855565082775133,-0.6338114016050772,-0.6847257720211493,-0.7104155247516316,-0.6905338625357565,-0.6377977127634135,-0.5836515402789768,-0.550575503667846,-0.5387820198779769,-0.5428575316832811,-0.5542775618818857,-0.5625515696873439,-0.5624122386129762,-0.5635094391166612,-0.5696567040775309,-0.5812368326840692,-0.5986414171384858,-0.6246258661635149,-0.6565666059220777,-0.6878654219329682,-0.7008130516782508,-0.6632405879740724,-0.532176787464415,-0.2910937307819556,-0.0794902062891292,0.01939207099570015,0.03472974311261049,0.024912130195538014,0.02624890832501252,0.08369005913428623,0.20509923017216133,0.3727721391735296,0.4930001395777568,0.44784628855936787,0.10463844562169114,-0.26332600825336133,-0.4209173664781073,-0.4838285745656374,-0.5151769192657502,-0.5496880701282962,-0.62468329954471,-0.7387753371985795,-0.7710155178439576,-0.7133548318281323,-0.6755007740840423,-0.64690455974028,-0.6115202992061821,-0.5653945001792404,-0.5110480721033176,-0.4600665736977545,-0.40634522660438416,-0.3371244941795332,-0.2553471248887058,-0.18276363532560894,-0.1282026051638527,-0.08139474100528143,-0.02317510271283301,0.11338795515458389,0.3289958634816571,0.5329292952819203,0.6770833450984516,0.7982279034885884,0.8984663768450509,0.929588057541847,0.8901834041448912,0.8204684734281519,0.7392268299875214,0.6479233712428775,0.532977000192075,0.37124665449167843,0.15327767669457423,-0.03870526836879151,-0.06637106779135125,0.08577180211228837,0.27085383804128554,0.3577842568324091,0.36299820665177096,0.30495546243687166,0.11642872447280628,-0.2498229981071156,-0.52018124944022,-0.5941522288264991,-0.6002841473302382,-0.5970899090240315,-0.5825542686755536,-0.5530138064209951,-0.5152026166843408,-0.5210345068823762,-0.5705693792284515,-0.6545268614097689,-0.741379714964793,-0.8029641837650644,-0.8264949570609116,-0.8257246759925847,-0.787644872148249,-0.6615729602020021,-0.35655103702200924,0.04892478154773997,0.3648206629099853,0.5003379035491082,0.5279161108522579,0.5126924687522888,0.45235267532939866,0.2965360614077017,0.07087306210468163,-0.07615585676352717,-0.13135074872643773,-0.13734135126714286,-0.1069741207383338,-0.028152275879451995,0.08441792617123194,0.13757905969698325,0.1162396088855181,0.0608872449274359,-0.00018477184572221947,-0.039835392451013286,-0.02387835184235502,0.08970493703276115,0.30603708143381386,0.5409199625244048,0.6906984192439217,0.7512615644610363,0.7578506941672533,0.7444984025535513,0.7261856101594636,0.700263840736778,0.6523136409034789,0.529893274858496,0.3175919027945312,0.16440906524385682,0.12169847828124122,0.13650443978874766,0.1795784248615073,0.23478791203615493,0.2892292535315605,0.3403315913369475,0.3936688822691433,0.45873698122823714,0.5330679069964871,0.6087601339105031,0.6778287602680918,0.7332401136225964,0.7701980088846646,0.7822937730483565,0.7649273853941375,0.7213095959454293,0.6579452143417358,0.5782813674677953,0.48584612418773854,0.3894095072439399,0.3043667939987452,0.24359316135657727,0.20803452091926106,0.20190216123289018,0.18104010005263235,0.036188725216138334,-0.07457201287092924,-0.1744341502464621,-0.28284032870138603,-0.38246093964649425,-0.4565728718696039,-0.5020875402087716,-0.525445836459192,-0.5344692501767363,-0.5374402722012528,-0.5363132005975936,-0.5257362053424639,-0.5078457145768324,-0.49606995886551025,-0.49188237841854715,-0.4938714631720946,-0.4895760229918773,-0.46966669505908976,-0.43967171170566194,-0.4170198528407981,-0.40768512976898963,-0.41251577103106724,-0.4235667738610561,-0.4156224165024063,-0.36060407246673515,-0.25823960936108104,-0.12172924974486762,-0.0014736175994699355,0.06816544120794284,0.08739357248642624,0.05894382921400873,-0.004031758226734218,-0.09992619052264935,-0.2578505178956616,-0.4685955790865989,-0.5265357551317252,-0.4780522824715438,-0.44475817548076474,-0.46947254412590744,-0.5708027450943028,-0.7196123312453103,-0.7887475837611039,-0.805557301586475,-0.8175433823003977,-0.8288104301703104,-0.830092751521763,-0.7969515087799864,-0.7142593054681516,-0.5930355539586278,-0.477791011946267,-0.39086217421021235,-0.32387323649492794,-0.27208270155219433,-0.2309052055626456,-0.19547101288725532,-0.15477698443502447,-0.10859608578395252,-0.05008871236565487,0.013510522047218953,0.06557792764824978,0.09328612671107615,0.08489937693252496,0.045607301658897356,0.016414096092046745,0.06299542804831275,0.18818843298808077,0.31671857351745036,0.39116083945942226,0.4149747753274315,0.40771810226054944,0.3792296177080837,0.3335937127705798,0.27589397843883007,0.2122855321756359,0.14494117051890976,0.07861805603602487,0.024186146905884973,-0.002608292052865849,0.008630438841896515,0.06297768990399723,0.15607094603753047,0.25996872190843373,0.3497343786221188,0.4094400835678521,0.4311508089067921,0.4327092771429328,0.42455121526500006,0.41774467731015,0.4209647273896949,0.43990517015042996,0.4778744088081857,0.5325543773454526,0.611666476107424,0.6810495866216688,0.6028811683704116,0.4086083506916548,0.21158827307141137,0.012430439155597304,-0.16461102078929052,-0.26957440639701996,-0.28937110371801444,-0.2363569790031508,-0.14463735612420944,-0.0703903078762614,-0.10988072215078175,-0.35174410635708814,-0.6559948057813457,-0.8006132496249888,-0.8458333301632902,-0.8554930115987941,-0.8525649574080623,-0.8463150879064487,-0.8365045499781821,-0.8107616937184063,-0.7356139611329511,-0.5339715776466969,-0.23512841285475303,0.01959115440320148,0.23469174418881888,0.4487808499456958,0.6331080303076231,0.7396037669298126,0.7910145417188028,0.8205292274131467,0.8444435898603181,0.8598683593543428,0.8587889235735443,0.8416743217356437,0.819737422578074,0.8048810806948253,0.8010958580170356,0.80892738627302,0.8258296913320714,0.8426965767032808,0.8523409490927616,0.85381329136945,0.8461877241884629,0.8274449265410878,0.7911739407057086,0.7254746046756241,0.6141045368440023,0.46474152819844006,0.3180630423823247,0.20534793278225294,0.12387029616168824,0.04357469839647563,-0.07620042672055471,-0.28887081335083076,-0.567867720618738,-0.7078042753502628,-0.7324423472271262,-0.7338926522264028,-0.7323813850867226,-0.7264934839193017,-0.7123045381833412,-0.694774801293834,-0.6833126305774313
