0.7020850039432771,0.773959249237531,0.8148546732863319,0.8356976929257233,0.8432069888509363,0.8392696252622285,0.8252044068688148,0.8055687105682514,0.7853889850267246,0.7684211914186087,0.7445874761452086,0.6887444128780449,0.544058952835988,0.23463027472324416,-0.14658937636852426,-0.407844898457532,-0.526774784778147,-0.5493610118347824,-0.5121970410048812,-0.4393018189348853,-0.35455429377405456,-0.2881285936324647,-0.2558982754663962,-0.26222521668962273,-0.3133348616476546,-0.42302721981357044,-0.5898968960494994,-0.7423315520911875,-0.7991034982589441,-0.7819296547499184,-0.741800218672665,-0.6952079961598923,-0.6395268837216384,-0.5866456533691478,-0.5581578831853001,-0.5536086994410879,-0.5564514920416402,-0.5643802615025825,-0.5794691882431007,-0.6039028852488889,-0.6329592726879102,-0.660818491355391,-0.683994701343237,-0.7040016565100199,-0.7217787282082571,-0.699282193235286,-0.5954588303015707,-0.4659579828317561,-0.36773595695563877,-0.2935482864823164,-0.21856854045393978,-0.13941671813871753,-0.05961740888343227,0.018357663358910405,0.09621812758141492,0.16281870464834647,0.20794764347208794,0.23067174661162876,0.24248813959764876,0.25565377008067475,0.2767572608785962,0.3025031325623613,0.3226600759565452,0.3323484368677565,0.3254277628815659,0.299406678132233,0.2532920785114918,0.19763453659475946,0.14929840295629546,0.1322264181393422,0.16310921674648712,0.2450328647305163,0.33032221569120146,0.374680047106812,0.3876316152032897,0.3929606098306408,0.3969599255331685,0.3968752330534485,0.37921636801076275,0.33713674400860105,0.2752795873348603,0.2245632050096135,0.2195117407095467,0.26897128626862005,0.3350329550853508,0.36590231785657523,0.37753027626417685,0.421045855482699,0.4807674090870469,0.5240650305123146,0.5415609023467106,0.5451656303154897,0.5524052079650815,0.5685346980974273,0.5936787995677058,0.6214444223323818,0.6460718313037463,0.6536361023579275,0.639903017939948,0.612927896694261,0.5761920210527519,0.5284562228934915,0.4574066145621681,0.34654881342068095,0.20430777899081903,0.059386698095964204,-0.05649725888130949,-0.15148333027296668,-0.2522670495497784,-0.35777201800837527,-0.4477974728239312,-0.5127523295043445,-0.5411783326094709,-0.5229073399529327,-0.4669001322182548,-0.3902315338176777,-0.3209607393715202,-0.2847881233085097,-0.2734837406149855,-0.2615498566809201,-0.22915868882630946,-0.1640536730082011,-0.09465888507193844,-0.047599028972257595,-0.06384707322637048,-0.15212982895414223,-0.2632596353309253,-0.3438373272131343,-0.41177096735704627,-0.5002270334325193,-0.6336518624373423,-0.7452153832883915,-0.7652435694302645,-0.7467118019235192,-0.7437101777935625,-0.7774523251016862,-0.8502166007422796,-0.9157308683064136,-0.9026200919610424,-0.8580340987526797,-0.8576514267826664,-0.859453491645197,-0.8340990042863891,-0.7836526640890258,-0.71035465441883,-0.6095175446728803,-0.4695565242342801,-0.2885542289212606,-0.08082131694952176,0.13825508000936368,0.3595436033496785,0.5317445356137483,0.5896311622696432,0.4506226867731649,0.2624198621178184,0.1584187020182771,0.16734477621564356,0.24596645000375028,0.33340616303461074,0.4022670357319721,0.44451497833563786,0.4553604671649934,0.43243787814799867,0.4132432476467372,0.44948364655773543,0.5382455642176809,0.6310586582986694,0.6905667877625656,0.7150360611424051,0.7157336500733608,0.7000452543069725,0.6923674008887537,0.723470499770191,0.7846394589218388,0.843805347031565,0.8858534678245303,0.8937311736723607,0.8459604210915344,0.702426303065928,0.4429474457735252,0.17158192443352158,-0.04343168306913678,-0.19428427893975084,-0.27950292102282576,-0.30968991508544064,-0.3168159142302416,-0.3323939413071957,-0.37536497946710684,-0.4865904658295041,-0.6873913319703716,-0.6733860077838437,-0.5202336293957643,-0.44060196032693383,-0.40964447909631363,-0.39722785135181693,-0.3667118761136113,-0.27111503091075134,-0.05308009002972865,0.2671318284521707,0.5279011072880437,0.6468962789268078,0.682806076036783,0.6799826538897412,0.6378879893054918,0.5449496543672943,0.4382041896894587,0.3645383454645884,0.3526535846032345,0.41627618432685115,0.527771882904716,0.5888069564337055,0.5994800634069849,0.6026793045157834,0.5997470336414455,0.5799432166793399,0.5311250402478449,0.4435286916226757,0.3306318264624502,0.2395315510762463,0.1945453420116508,0.17890869348929775,0.1676646936359619,0.1428174949158984,0.0977695553427521,0.03702735595795292,-0.030700773552762364,-0.0975848584928227,-0.16542555994733943,-0.24610497353276692,-0.3624383812532103,-0.5004986506704125,-0.5975364822248623,-0.5913093881822361,-0.506577277924941,-0.3931927414475888,-0.27493649062979686,-0.15529755233445483,-0.031113212217909268,0.08190957462063093,0.16529339152557046,0.21233779028616553,0.22245347636953436,0.1923973399540069,0.13578217500872655,0.0654495217261883,-0.016364007963006407,-0.10276667145203704,-0.18576040959874598,-0.2347343680368423,-0.23835219700120083,-0.2135705660257931,-0.1823966730957538,-0.16158314952285519,-0.1573910838990448,-0.16532820424728872,-0.18163783899701821,-0.2016772373451923,-0.22210483801456482,-0.2462970812517496,-0.27376946390703427,-0.30472035654612545,-0.343421632850882,-0.3857203409537135,-0.42715871392533433,-0.46543708663560096,-0.49810530714600243,-0.5242179394305402,-0.5441055975120769,-0.5540292795856958,-0.5472835047388377,-0.5249238154304302,-0.4778496537586535,-0.4109127069726302,-0.33260311973326534,-0.2549005074087539,-0.18586260933343596,-0.11854538875198592,-0.029148019986694106,0.10234830825932237,0.26403841515434684,0.4184113488946722,0.5141202472233694,0.5466784784598488,0.5326361956088198,0.4935952583327538,0.45836312958206454,0.4442075180803649,0.45142745498030534,0.462789848472881,0.464091776606027,0.4510050729752717,0.4323145195051278,0.4362603659036034,0.47175530095078216,0.5237608163646321,0.57025927759723,0.5947806503130255,0.5899154900787581,0.5496176290304818,0.4719256744866408,0.37434810326016765,0.2931875871262082,0.2534203008621743,0.24710237467588175,0.2460913612263925,0.2286434215650383,0.1820323977760162,0.10331396930684582,-0.020923036671549617,-0.24222699414933066,-0.5646689916930243,-0.7033815783671776,-0.6760250784469184,-0.6408621806265267,-0.6221629225123778,-0.6225216145061236,-0.6273380565640929,-0.5940098260234458,-0.5067011173312148,-0.3996061488601563,-0.3176527125257335,-0.2811673457211409,-0.2850309472018525,-0.30765448313348376,-0.3302200038970575,-0.3543602701349548,-0.3967480947433048,-0.4511545253815078,-0.47688948035365586,-0.45178258810584665,-0.39332787931128943,-0.3151395004499093,-0.21104888763919255,-0.06604201185044914,0.11782446799751577,0.28447203256083015,0.3885827036036251,0.43280025524971316,0.4284767845602594,0.38339227490279354,0.29773376322928424,0.1879467279062173,0.09769089830348393,0.06658120399271135,0.11174782512670936,0.23895138637441846,0.45242729435653944,0.6905354672488184,0.8014557078240345,0.7868532659330605,0.7323549563566323,0.6480942058453116,0.5169409043295571,0.306515400201695,-0.005067588946051507,-0.23808038850372618,-0.24329144819409487,-0.1376178411049853,0.014358574505865059,0.22749285301527872,0.4955520547218403,0.6940816608619589,0.7719550943533791,0.7749758867701578,0.7539119705659015,0.7358602660770671,0.7311310649529024,0.7363722204589999,0.7467067803857871,0.7533366178247315,0.7479520508459775,0.7310585945372462,0.714268191979186,0.71084331681424,0.7283323812524919,0.7635527726718491,0.8039602280601753,0.8376389015222144,0.8608542776314122,0.8691084486368852,0.841513836847884,0.7739104351203864,0.7212801647304933,0.7100008837151853,0.7230493199750503,0.7304691661302949,0.6863967971552727,0.5237554004336169,0.21673681029213032,-0.11697215805850784,-0.3350393532475011,-0.44286786696133157,-0.5026984576065421,-0.5543437966554069,-0.6321382526347115,-0.7407122394075379,-0.8464751794079699,-0.903829789695528,-0.9196742140014023,-0.9245611034253464,-0.924328800643544,-0.9154747544885145,-0.8972390525973106,-0.8730864081585059,-0.8495902547749307,-0.8317755868444364,-0.8189355772784019,-0.8054930836629639,-0.7917575429439919,-0.7812191141705832,-0.7752331671227384,-0.7697129471518389,-0.7595360933585998,-0.7366935907337717,-0.7001137037868713,-0.6545920248690813,-0.6019205472176495,-0.5348699755469202,-0.44354635925939356,-0.3360526577425814,-0.2324148503249651,-0.14909832506131676,-0.07863082225026914,0.015729220905978114,0.1685890932285457,0.34713000871815497,0.4924171183323145,0.5913685274619623,0.6630025750037802,0.7277488579934503,0.7935034188210321,0.8539558280314313,0.896597889700105,0.9188148115600155,0.9222569691440178,0.9112834254375825,0.8905603466543478,0.8659854508656426,0.8293934635532701,0.7126306152600866,0.48029297465843007,0.28236456845457714,0.14440872579601935,-0.009533109703172492,-0.2287985438840334,-0.4030850138488516,-0.4937809291621058,-0.5449270098017668,-0.5840281210658502,-0.6110900196006845,-0.6236703101434441,-0.6281597439788431,-0.6177613168196114,-0.594953205383577,-0.5606777359427186,-0.46697738299301095,-0.41716635512128547,-0.5051014322946599,-0.6701745921013181,-0.7558735157805696,-0.7305179292397223,-0.6585516606978405,-0.5926396394407449,-0.5564147049952745,-0.5542038312225207,-0.5752131418825298,-0.6039910968875525,-0.6268426680120686,-0.6338863971154413,-0.626694322659166,-0.6069250085407683,-0.5725623754295321,-0.5155723067731789,-0.4132737298518895,-0.2509041569915168,-0.07047723394007616,0.05560138922592032,0.09714572296286729,0.07198270474279472,0.024622512921496035,-0.015787707230268438,-0.0010797685579047869,0.10451089191216649,0.2930735982772957,0.4858277542537453,0.6235133326903254,0.7062923387464219,0.7591319715485342,0.7978211465512984,0.8295414948189943,0.8538415659802999,0.869629575300595,0.8770474860618863,0.8771926789176546,0.8739747740196158,0.874077036768328,0.8782699240271179,0.8812522309655842,0.8764735714515216,0.8621698122461503,0.8403386163405675,0.8164170427012971,0.7910814116204268,0.7624758553966742,0.7233203712177723,0.6645002826405737,0.5726123695797186,0.4151435850822023,0.08828126167644043,-0.510097072026838,-0.6820417764621678,-0.6361708291818363,-0.5620686872083189,-0.507788543838576,-0.5191788499865131,-0.6565607256832595,-0.8078359390904442,-0.844153469292629,-0.8302170684092631,-0.817621174339283,-0.8096798893008303,-0.8028617184393098,-0.7898041778647961,-0.7544933147433793,-0.6906650704681141,-0.6118273833025022,-0.5459182268274595,-0.49935827483416045,-0.4943775626059131,-0.5422065367909671,-0.6025321202249276,-0.6232419693476523,-0.6140536042073305,-0.5794550228997327,-0.5156070093842028,-0.43306399050572614,-0.36925793445562116,-0.3534608782239024,-0.3749457036991534,-0.41849207856843484,-0.46684760889472227,-0.5052229144001043,-0.5288749332978082,-0.5368379296528591,-0.5120474924875986,-0.4380746382324612,-0.33176763998209335,-0.22526707016305877,-0.12746735734197795,-0.03845518388450497,0.046378900374417956,0.13320127652622907,0.2226750535550534,0.31757531818189,0.41833349774253936,0.516408136044571,0.6071884832538417,0.6842319932619264,0.7253358826805689,0.7044487375329097,0.6253751397482928,0.5205147815054794,0.4128581333961145,0.31086919908534805,0.21335814942863882,0.1260176919413687,0.05894361109123524,0.019383835658895922,0.004075528798299405,0.0037633204355261387,0.011296658774412835,0.01894982777644508,0.02177721353335471,0.02076547790965546,0.014359769929303847,-0.00224881536432149,-0.04221546016794061,-0.10823445421779013,-0.13928081519335708,-0.15016126525969523,-0.17892877070015203,-0.22920077678975287,-0.2907379156479976,-0.3459225897441612,-0.38829722277427875,-0.4170361869714593,-0.4373293605854795,-0.4581742069836367,-0.48952468070716837,-0.5385963862606852,-0.5999494717445665,-0.6451686709009277,-0.656204757661115,-0.6349559794780802,-0.5973965820065995,-0.5514423723912323,-0.5064485126101336,-0.4678794797254006,-0.4250243291982803,-0.3441986508611439,-0.1385406870154502,0.2979693026227984,0.6672115154816909,0.7875204089916769,0.8146371954363351,0.815746919169062,0.813664780210659,0.8110359296610781,0.8069368610283938,0.8069605357930423,0.8148724298273324,0.8324670744113475,0.8530981763381533,0.869072364991445,0.8754474995875867,0.8665291725069831,0.8430779869992987,0.8130869965074011,0.786086280792159,0.7646220675953372,0.7428324768814355,0.7129210319829719,0.6698189168243226,0.6164473578295011,0.5622066970706184,0.5023096045645379,0.39462580130984565,0.15440125948783956,-0.14018369372617265,-0.3269648886647247,-0.4435861781169109,-0.5391338490233251,-0.6195186211799576,-0.6717739380717922,-0.7014527290733544,-0.7187164637623855,-0.7301615240649731,-0.7490669119941762,-0.7789949638102553,-0.815175235129175,-0.8455856941370207,-0.8466558918367109,-0.8014931220538799,-0.7203206481762537,-0.6368459905216669,-0.58333470171951,-0.5744507793009513,-0.6014167507389393,-0.6470441218411701,-0.69109863296635,-0.7170828654328067,-0.7225632839777718,-0.7098253434928115,-0.6890462247125121,-0.6757320917853401,-0.6762255877461093,-0.6932467641736554,-0.7230918731407477,-0.7536770918499109,-0.764642022091174,-0.7506659761812545,-0.7086862779613359,-0.6383304357843163,-0.5465043962203503,-0.445521914424361,-0.35400118398319314,-0.29495683224045155,-0.2594405263346687,-0.21247136233311417,-0.14157682110173905,-0.07148927774101393,-0.021253200771732948,0.04208764598031893,0.16323123546295265,0.3329382719850721,0.48610770377121165,0.5878083900150566,0.6600296552332169,0.7183926487746205,0.7797859916289126,0.8450051775291025,0.8867603475952278,0.8630328327720957,0.7955433085396355,0.7563872092550472,0.7610438797715733,0.7848714159851453,0.8032669609033118,0.8026476816332063,0.7780022002763096,0.7270415142279282,0.6555077370322662,0.5542366124381864,0.13114198283208137,-0.2537787955049335,-0.36228782285348843,-0.4121051143398901,-0.44039298796721094,-0.44694899378676234,-0.4268414453038089,-0.385261077959011,-0.3237179676341984,-0.24706259572292463,-0.17168176371329164,-0.11269937919678163,-0.0761713700390288,-0.06353669797499441,-0.07822260096053028,-0.11354940968180427,-0.15339040566111686,-0.17608352039502637,-0.17044587307258577,-0.13521915364651593,-0.07541175028887931,-0.0023300725794491665,0.06493999108127647,0.11989793921385634,0.1687188977310258,0.22153121737220394,0.27684276825882365,0.3384961588937121,0.40934068205529844,0.49649054088148725,0.6032708798752552,0.7048936348637025,0.772990941108009,0.8023062605705801,0.8031998322226332,0.7834532418367918,0.7526955233998384,0.7213942389778392,0.6986790609194747,0.6875815520131306,0.689330397580157,0.7035989023791374,0.7217066625756304,0.7371057860248394,0.7449880160556767,0.7429638114206202,0.7315810430652057,0.7086650176730409,0.6714004956405447,0.6107446449230094,0.5176192555372329,0.3943327002806129,0.25072659626004135,0.10005636290443672,-0.04677202239347789,-0.1799162789009432,-0.2969251491464977,-0.39818591053801083,-0.48254704590803005,-0.5536397586695713,-0.6247220331488716,-0.6983207878016594,-0.7710398790431828,-0.8363332486034201,-0.8777747814236296,-0.8676242970125313,-0.8100144613644826,-0.7368197327180434,-0.6847860714898769,-0.6688850798293995,-0.7046842051125026,-0.7829195969562907,-0.8505278876456691,-0.8662991854771013,-0.8487128124181208,-0.8289717621721872,-0.8156015856324423,-0.8035025237925044,-0.7926314916654725,-0.7835521788448403,-0.7667909507010261,-0.7242864004935274,-0.6504783553384693,-0.5682609347436114,-0.5084594379275063,-0.48696999399145663,-0.5024170314254685,-0.548170104325772,-0.6062768888984121,-0.660561945780215,-0.7121783118022544,-0.7654306737723034,-0.8067960560951816,-0.8173954820692573,-0.7648276433322398,-0.6385644678170687,-0.4520108962234414,-0.23452389407039945,-0.0686449781183239,0.016091382891595216,0.07801086004291564,0.14611243167895424,0.23235004026580594,0.33740368922722874,0.44895274411866687,0.5460430435989941,0.6177253088284748,0.6672429021269849,0.7061800241429184,0.7469757578512863,0.7974209666695857,0.8409414588715093,0.8332165586273153,0.7343601100006414,0.5638771989497223,0.38595286640776666,0.22834255517015054,0.12239146400839034,0.06727245009885663,0.047244715434896146,0.03492844827705941,0.0011073606388437335,-0.0926176033436266,-0.2492224821417923,-0.3861819485616256,-0.4572551653229035,-0.48755424839463796,-0.4976881596564013,-0.5010077242718195,-0.5078055023818385,-0.5263981371838762,-0.5573162063099708,-0.5974056870748178,-0.6414444883473159,-0.6914485236632012,-0.7368614762231929,-0.7567116628123038,-0.7372721739528107,-0.6871146279708419,-0.6308107227825411,-0.586611649329991,-0.551937697100112,-0.5106944012562801,-0.4513886166699182,-0.38709232223583884,-0.33687604797716975,-0.30960687698672495,-0.3016862933393829,-0.3070000462790333,-0.31322898596927723,-0.3030842802309135,-0.2559718585226815,-0.15702063749676926,-0.017161705398654612,0.12381094850921781,0.2529577902204004,0.38452167368035806,0.5243047754685151,0.6596544372439338,0.7452770421184857,0.7828320200518925,0.8016965238765817,0.8134289316406974,0.8201589851179012,0.8253536961227893,0.8318687882603206,0.8412246833825929,0.8530375633383298,0.8662329895626008,0.8793258029836875,0.8888385815805061,0.8934271442385019,0.8925144980009737,0.8870311417685579,0.8798609775472165,0.8709289937300222,0.8577467061397597,0.8386020664404639,0.8099463065314696,0.7481698778119188,0.609075840014636,0.39255356914640777,0.16503061388143528,-0.029597411755996627,-0.19944674854823596,-0.32401542659284704,-0.4031871014392805,-0.4441053984240563,-0.4556643390729973,-0.4516768156471632,-0.4503280895379867,-0.4586203482721212,-0.47692106814070373,-0.5185155709501806,-0.5730597008589414,-0.6104588971971997,-0.6206031366665983,-0.6275114880723812,-0.6442467593939883,-0.6271535488017597,-0.4671571921506009,-0.2127312719363047,0.0029875652234347522,0.16990132597816054,0.30520422971430283,0.41508032661164906,0.48435941812642425,0.48813846430207974,0.41902120517060654,0.3044359775792591,0.18604087711281925,0.08648977868837907,0.017663454166437127,-0.02499804736569023,-0.05918971920268687,-0.0820144754206604,-0.042210905214934424,0.09770325474693774,0.26364376166019116,0.35940363356844957,0.37017833061237804,0.3315321837438542,0.27860072424413845,0.2119573631577081,0.11365938607326792,-0.05372348503739791,-0.2641534910463603,-0.43380729707790583,-0.5290735855721741,-0.5706122073955808,-0.5908445938311914,-0.6125310850588284,-0.639751996452079,-0.6678947347528216,-0.6948460396577264,-0.7225130820385651,-0.7517149318931633,-0.7745351897399271,-0.7825703624945278,-0.7744743060063884,-0.7622371743217807,-0.7549108746524836,-0.765302173706777,-0.7991423119141028,-0.8141809939618185,-0.7575249523276775,-0.6945275556138869,-0.6689920171142251,-0.6605601463616566,-0.6470983203283895,-0.6194401293119717,-0.5794957253654667,-0.5365662870566815,-0.4998029927652041,-0.47290254502424794,-0.45018181908583677,-0.426894599303325,-0.3966670784916094,-0.3446919960636344,-0.2301452906192313,-0.02515303793065238,0.17310763301946336,0.2879427761575594,0.3533237813323991,0.41395832397648297,0.4836180965944783,0.5275840251792314,0.5323968744886745,0.5510175763399431,0.6130418317347172,0.7007933252896248,0.7754295590940207,0.8160811629068216,0.8358515464739442,0.8516707131372404,0.8656304701974555,0.8751520684484567,0.8749263151400628,0.8619445648189489,0.8386588682396119,0.8095214528817776,0.7815541267301669,0.7548124997782614,0.7249001598615219,0.6942409993542136,0.6707169468981171,0.6563596501263377,0.6454844300821941,0.6249445558714041,0.5773086925481329,0.4792117542335699,0.3142267039986398,0.13909249687963834,0.028029646301448777,-0.01952254577562761,-0.04875572403703409,-0.09422804395350201,-0.18442105138950077,-0.34308205695031035,-0.5932664275498154,-0.7040281953619771,-0.6104325929495426,-0.5740821180934892,-0.6112384005886728,-0.6951817582387851,-0.8020447257063297,-0.8904856914112494,-0.8756906080797633,-0.7953181959444298,-0.7495575518861896,-0.766225899998483,-0.8201558350207061,-0.8393011080822861,-0.7597912877278526,-0.63361920731245,-0.5298890553954111,-0.466164161691657,-0.4309894076340078,-0.415607769005704,-0.4255402209880379,-0.469586690906738,-0.5394725053642745,-0.597919010483029,-0.6457457499811949,-0.7017359129415282,-0.7808084523850419,-0.8624997114533639,-0.801383816589745,-0.2046179949214001,0.3141294996547301,0.5665695679265752,0.6909875106708468,0.7332602154276737,0.7214687847658852,0.6915057691093723,0.680662084452064,0.6833013697486386,0.684361835108163,0.6749332591839662,0.6506144581109287,0.6161375802334991,0.5856412866083893,0.562853796776556,0.5452562821692004,0.5196252077539832,0.47683616108108984,0.4116703094303663,0.3317588009900678,0.2540486150854141,0.19528147523095757,0.16967311857063558,0.19415825249713417,0.23193035741923212,0.2325966111998233,0.20155271378075418,0.14329487047993852,0.057815903614110174,-0.05067615657029872,-0.1693223911086918,-0.27618844713774127,-0.3639410365001092,-0.4323331545837721,-0.48200524296596553,-0.5148924081648125,-0.5285469771827636,-0.5250739981443878,-0.5161759951250255,-0.5120997212869755,-0.5181964528757063,-0.5303235675903636,-0.5440023723332384,-0.5542144802671599,-0.5624470229628968,-0.5701915814577676,-0.5700457158728353,-0.551130978420752,-0.5020540902820865,-0.3974212261571889,-0.15041820946809817,0.23904004570315399,0.5540339686135182,0.7154882489326573,0.7753716892727274,0.8016225347861466,0.8239702801588946,0.847953271544901,0.8694096421751574,0.8826113872223758,0.8834498259539514,0.8701067354639836,0.8447061438278973,0.806085503335926,0.748482428192141,0.6802327541178514,0.6058349756445753,0.5162437412802098,0.3859243416472576,0.1732096969532599,-0.163355715184894,-0.5423380051412718,-0.8068838246480855,-0.9110332111093797,-0.8247313288520592,-0.6561560321374922,-0.5490564543748229,-0.5271569442482679,-0.568500296761405,-0.638372795830579,-0.700187302445289,-0.726366761315545,-0.70047100073968,-0.6279648954133517,-0.5341141083405673,-0.4486382150471378,-0.3861687818712564,-0.3443932099542914,-0.3221789341339256,-0.31419469938333927,-0.31401681383756086,-0.32259229009093576,-0.35307873619941366,-0.40762047528529455,-0.46664381988038467,-0.46048326232528325,-0.4031145827047338,-0.33959039925469175,-0.2722415105914274,-0.1933196113925995,-0.10775866115487165,-0.01707420898538071,0.07353558456825487,0.15284261468298946,0.20707333059010005,0.2304494435671847,0.22057688346915472,0.19073032047291077,0.17027852787989506,0.1937158901986972,0.27524718583202085,0.3959732256652197,0.5172221146701738,0.6044438182848306,0.6486203062639432,0.6547268650157094,0.6414880404755214,0.627592869916884,0.6252651637767792,0.6328618771478645,0.6370998859089034,0.6292695297420693,0.5943555540777609,0.49545606565105704,0.2970678969287819,0.08029692200343606,-0.05301905211030878,-0.10925036709518574,-0.11651338741938401,-0.09566030636630199,-0.06387716569910178,-0.03336395651191897,-0.0165711365184269,-0.03344717464500865,-0.09086549487593899,-0.19203131840302995,-0.3286324959654145,-0.5059463296024312,-0.6978689207133363,-0.7973204710816164,-0.763670459777385,-0.6910816877985494,-0.6258984243420528,-0.5655866245307192,-0.49943194188491097,-0.4130413623244002,-0.29208246436959545,-0.11950508314878178,0.07954933856494434,0.21075269739877253,0.28153372576311436,0.3566048863258213,0.47409250720119983,0.5984230647733139,0.6636640211921786,0.6748630854633177,0.6531169854856781,0.6011879036774151,0.49503168789402013,0.3105200822552469,0.08773295330543927,-0.09172412490330968,-0.19531890540713537,-0.23681516091806692,-0.21263789921114573,-0.09723578139773591,0.1333904861463967,0.41299360101129895,0.5694860823223132,0.6112422656265764,0.6104219434419557,0.5916767352656237,0.5536150616460188,0.5065362585278894,0.4648516886166948,0.4475041726011548,0.46023256996652306,0.5029562133765765,0.5526661656787524,0.5911620383293872,0.610907947132209,0.6144748574732232,0.6186917072123841,0.6236949376739971,0.6298896677118034,0.634415868486905,0.624530525448228,0.5963054918236322,0.5240006096225309,0.34075576458148626,0.002005889710472727,-0.29318997845542344,-0.4324483372179139,-0.48614693280264537,-0.4876326116369661,-0.4513630056697755,-0.3857559520578377,-0.3060859387925732,-0.22540145181335697,-0.15634169868979914,-0.10462128755538509,-0.07752925306327861,-0.07560270351596433,-0.09426258148626619,-0.12526620398156152,-0.16940655242424216,-0.21975914304969443,-0.26822736871525754,-0.28836676263657285,-0.2549762801308101,-0.19951696269518507,-0.16177573064286957,-0.1492948060978474,-0.158186264783432,-0.18445383125034134,-0.2466030336958626,-0.34902903720023565,-0.4774602707191317,-0.6100335056184033,-0.7211254044397251,-0.7836357706586323,-0.7870600455088065,-0.7569966198457491,-0.7345548739702069,-0.7210155048186835,-0.7180799259931869,-0.7184969353068702,-0.701775164993499,-0.6529875840714688,-0.577288681033083,-0.48859427234731867,-0.4037739035609718,-0.3285699815787852,-0.2449615014097569,-0.08279293704405465,0.34068365847521737,0.6193492291342039,0.6112802085829507,0.5821477625927057,0.5601642181138135,0.5447860967136481,0.534353917817819,0.531205437274379,0.5441509530513313,0.5856123389972638,0.6491773423162295,0.701466443703168,0.7235170375913117,0.7267418634295616,0.7277849943525672,0.7269752473127467,0.7205226219732267,0.7156391665135448,0.7229125830502294,0.7432052244240682,0.7755422234542618,0.8214280695793637,0.8029448053040419,0.44956146868362695,0.14690451507269983,0.05759049786758966,0.06613124449708349,0.11779086220741879,0.16237966716231136,0.15946971306865312,0.12730466153084505,0.07457141847046474,0.00096705492297565,-0.08824709185403934,-0.17843217503858697,-0.25304196801968853,-0.3008562923322417,-0.29999554195554057,-0.22391319177811508,-0.07763843794397479,0.0989856209778838,0.2581520776032374,0.37420804892692483,0.45004429890206055,0.501557984872031,0.5467367332320582,0.5918542788687999,0.6302362082155745,0.5950296244974066,0.31211293279392643,-0.08199842981196011,-0.25081709002666247,-0.2907699922453904,-0.28374740708682195,-0.2774115069779845,-0.2833181346335062,-0.30354834063340763,-0.3424826831628105,-0.39506633815835807,-0.45060654578154113,-0.4975449708998013,-0.5302966209451396,-0.5464921623732852,-0.571998551210103,-0.5901171588527656,-0.5600218447477594,-0.5329889472981735,-0.5215675522882792,-0.5137597179355167,-0.5042559412642439,-0.4938566913559259,-0.4816110286059355,-0.46807384077380093,-0.4558604253607916,-0.4431374517994712,-0.4179477186959161,-0.36182818616791174,-0.2725882844234317,-0.17067626669324046,-0.0712686791699804,0.03027471213655117,0.14697429030427667,0.2533994010522266,0.3226607302981057,0.3366356564478679,0.28093222179986505,0.13818066664320933,-0.05397788221343488,-0.22156976423557181,-0.31766831150060104,-0.3348279746271854,-0.2820273036472933,-0.16326334894327754,0.01788996040069913,0.2427269686555685,0.47984977276534413,0.648925692233214,0.7136188632491964,0.7103206916899106,0.6851258207163939,0.658607345620476,0.6217510353375493,0.5546183891114214,0.41780965182768365,0.18692260485365694,-0.047961692658672346,-0.19096278658901047,-0.2417176997840069,-0.21044850683739008,-0.08424650031077456,0.1586648797088195,0.44407641855885904,0.5878565621738749,0.6322381086171616,0.6673277581066801,0.7007188485147581,0.7294154419928974,0.7482932357625091,0.7534347809014256,0.7367713162301449,0.6765886710593133,0.5874868426586608,0.5125879304665465,0.46730109660952174,0.44468467672294654,0.43528424843375696,0.41507639558944476,0.3519892120556205,0.20340278204486106,-0.057039726304633734,-0.3689835505766047,-0.5838151404603387,-0.6752078640261778,-0.6884784357867434,-0.660413387759621,-0.6148068598431139,-0.5753986715909772,-0.5603522881691892,-0.579673745938404,-0.6060127698134615,-0.566976950800379,-0.45262362399545686,-0.3405372164669083,-0.23913911802952453,-0.14777498935559202,-0.0722166804430875,-0.07191936264965137,-0.12227280099380058,-0.1635425435105009,-0.19088716355214116,-0.20916260918210314,-0.25935131692767593,-0.3890970772590635,-0.6300914602908674,-0.6465281109666217,-0.45736712949807407,-0.34889628305011117,-0.2736656982840224,-0.21481694890060885,-0.16521245498442902,-0.11390344884922021,-0.060676915029131646,-0.02647693426039217,-0.007934830456782461,0.0099493362029154,0.038805222344307666,0.08796409619447984,0.16745610598600497,0.2701318809140966,0.3842748257661027,0.4948455595605676,0.5865152186736238,0.6541328813244099,0.6921098239354673,0.7049700376823417,0.7108166970997993,0.731043884789482,0.7670760462431235,0.8091928074886012,0.8488150278973472,0.8817410329746393,0.9017820290308717,0.8939462232857863,0.8543125214467683,0.8061384624338858,0.7751590252153066,0.7758316119240954,0.7768113211440707,0.742220484643981,0.7023591136110363,0.6808481765231931,0.6609346339653361,0.6311416721739587,0.5525331534154715,0.30606247023337174,-0.13700170428341726,-0.45795784276513507,-0.5936851233141699,-0.6426517111927088,-0.6506111090901747,-0.6344105483757747,-0.6116773767152871,-0.5989753203603874,-0.6144089456406662,-0.6454428641563588,-0.6718147880136408,-0.6869996649159619,-0.6935483752019488,-0.6907716699982069,-0.6796280271661145,-0.6687194864354662,-0.6658088607154548,-0.667390767637145,-0.6632139178406748,-0.6616152817520135,-0.6664522519211958,-0.6689441978667867,-0.6582820228424339,-0.623936139978727,-0.5320760568282081,-0.30158658398946314,0.20589449226478057,0.5528876098506157,0.6231694262493435,0.6433386610656617,0.6609074010602287,0.6710684312612748,0.6739310770032639,0.669566686003881,0.6475696435731226,0.6009942897957224,0.5365097193460568,0.4561260832521855,0.3487485741124745,0.22533399213716088,0.11093790984499372,0.014944057691027256,-0.08250717377105003,-0.21720021707610396,-0.4068709950406682,-0.6310805992403449,-0.7640959815308914,-0.7839203845844911,-0.8188306943104521,-0.8628284365771699,-0.8642185483067323,-0.84755594530338,-0.841358511460186,-0.8477641722995822,-0.8572331960162487,-0.8612751741409582,-0.8565406165877855,-0.8440113649845968,-0.8248298755277701,-0.7856168233463512,-0.6889308032813914,-0.4676267417826337,-0.10879197803174527,0.23136625312065845,0.42055138895168553,0.4884902804758471,0.50489901355463,0.5130550074991045,0.5350729777507909,0.5816981783964774,0.6417611517771593,0.6973008556686598,0.7290964346618363,0.7301063754991595,0.6979976121799177,0.6475508796476014,0.6020154316823854,0.5810822360738671,0.5882608686191073,0.6176246348530113,0.6633116641813993,0.7214830073758007,0.7868248919190529,0.8511023189409248,0.8708576561606816,0.7715244242329055,0.5406169124180756,0.3026387655990231,0.14278761011632918,0.051013950247744896,-0.0033940494836806104,-0.036624182923285134,-0.0581942772564062,-0.07356540461348288,-0.08736231559803011,-0.10600066695076935,-0.13714575814325108,-0.1879120157426438,-0.24841897305277405,-0.30127850906953263,-0.33206677623696984,-0.3403976023011257,-0.33303083479663753,-0.31779137003227664,-0.29991653110291755,-0.29176970932970536,-0.30800159699867635,-0.350541637727527,-0.4065832471942063,-0.46120283536319995,-0.5067173206613402,-0.5454176109358736,-0.5804564430799285,-0.6221361278654125,-0.6773815878142736,-0.7324785720716165,-0.7375788826801918,-0.6802802223854851,-0.6060917132212743,-0.5456461901658899,-0.4958662226925462,-0.4444000848340202,-0.39934779539707904,-0.36188027608775314,-0.3346084604969559,-0.31939462545719816,-0.3284134943635286,-0.3670169350552005,-0.39966443271711566,-0.3601351493999208,-0.26561711007048877,-0.1725481499307067,-0.11273671667759615,-0.08957715397407413,-0.09954870537331811,-0.12422989759059122,-0.1493043969686073,-0.16194782057947463,-0.15445416000422882,-0.12366804900187205,-0.07846267938220416,-0.03400025229880048,-0.0013982506534766137,0.024496758388303008,0.04918151332675543,0.08215799747865961,0.13340715979581147,0.20149665071470946,0.26496329889534626,0.30216639715605725,0.30303547120753094,0.27077754515107466,0.22854853695283114,0.20008155032757913,0.1912979847006897,0.19056600294136808,0.18086422067758806,0.14980308483363744,0.07520044016059348,-0.051904455370795216,-0.094626161344174,-0.0605274904531616,-0.007944262454235754,0.043601819464194565,0.08726194725366859,0.12558669175120868,0.1613171698372568,0.19700558664906517,0.23677047563305817,0.2848869249775553,0.34146776439035736,0.40450985907639153,0.46630844495207474,0.5106455055364013,0.5277050786719603,0.5162952283342116,0.4833454563083014,0.44077767979991805,0.39588527042339794,0.3546142052194579,0.3147651059213479,0.26979846378586264,0.21975637592987202,0.18717605300046347,0.18013632659873313,0.18323858546689076,0.1825723143180094,0.17150119278636755,0.1365670973174732,0.0592996493407688,-0.05832447116679068,-0.19327721127472167,-0.30680061651519785,-0.3873774605258069,-0.4413388737583336,-0.4831340460576283,-0.5196381290770843,-0.5412495730932861,-0.5447220736695773,-0.53747279089222,-0.5272327143864388,-0.5095467070870535,-0.4780087863046442,-0.42039926719594556,-0.3340813164385395,-0.23425565219747196,-0.14345661442343208,-0.0718936034618907,-0.00887907222842706,0.05143109620783027,0.08196907818226552,0.08147562300899568,0.0732412951801698,0.07915436872223154,0.1178654538968871,0.20324409430875434,0.32949097458132515,0.4474032514710611,0.4992646523651585,0.4592233296886631,0.3492936429642974,0.18954164668909476,0.012038625030006671,-0.12872830826878243,-0.20137330180198043,-0.2058029002068672,-0.16900487527624164,-0.11399747951352165,-0.061656312479418114,-0.021217659420237886,-0.03545451860766207,-0.10691572791845272,-0.19762662158962635,-0.29427874932565923,-0.3651805796194557,-0.3174780982897579,-0.038303952540324405,0.2079191765615516,0.26734237509742115,0.2197141386077971,0.16175775199199877,0.12032939969532279,0.09395944588541037,0.0681789104882619,-0.006370831109072241,-0.07413246800095673,-0.10401459152969615,-0.11824894513872197,-0.11025705139366886,-0.06559951257555194,0.022842798484953977,0.15657410399865165,0.2981239560300175,0.4033389482986724,0.455621521176441,0.4715744247639124,0.4779806963791597,0.5089137595749664,0.5948753289138997,0.7102927707927226,0.7998585100533786,0.8410264000557622,0.851946028510044,0.8498730332248173,0.8388247450463037,0.8251009155580399,0.8133112718890534,0.8034134401616901,0.7914267838810851,0.7846741512289469,0.7896975430242575,0.8095465588611122,0.8365742657344171,0.8256152323143136,0.7318939696546037,0.578845868235975,0.4180218207313979,0.2535165328146424,0.06632794130589167,-0.14878039311463936,-0.34434977177931725,-0.4768948202018378,-0.560841446136228,-0.613339734547802,-0.6403015538147433,-0.6494014907187982,-0.6551435488579025,-0.6597852751971602,-0.6619741977644656,-0.6620295840288363,-0.6637211053979388,-0.6610193517895621,-0.6494016694074952,-0.6259181936596753,-0.5892053374573748,-0.5403103585650402,-0.4895265500375304,-0.44963168412456567,-0.4374910578867208,-0.4526669234629368,-0.4897371481152612,-0.5659766844208488,-0.6712241083324446,-0.7772517615580259,-0.8476782818282458,-0.8436985364507773,-0.7608833028573332,-0.6747767400156592,-0.6197869037555537,-0.590054608692662,-0.5790535999792334,-0.5834682596584847,-0.6050175486800894,-0.6485645559632036,-0.7051556074047823,-0.750484749516524,-0.7571971476713734,-0.7252138013269727,-0.6706449381053662,-0.6116373270646649,-0.5498916273775687,-0.4828047999283849,-0.402517315207949,-0.318537800540572,-0.24178648604362066,-0.173288962289255,-0.07360295617886238,0.06673939079834992,0.18781481376040715,0.27558070948795366,0.32554206893925075,0.33335902064182815,0.30832027268041473,0.2663888479534944,0.22797844110653967,0.20239714381678375,0.19785050401133508,0.23745110867425528,0.3451713659791574,0.5116709025340295,0.6330598000712789,0.6926513206935866,0.7136118311228332,0.7137368983550594,0.699832930338017,0.6628325005334672,0.6007295156954083,0.5218840829885301,0.45557284826915373,0.4463515390095174,0.48318727637968834,0.5356611504990919,0.5759158364586777,0.5550341445806553,0.4078853002098649,0.18200407197252977,-0.03133585915909529,-0.19748153422260548,-0.2987755116594579,-0.35565750716937355,-0.38806702172185115,-0.3959690903079539,-0.3622515155002437,-0.2405521333184476,0.030047639136327214,0.32114124729089627,0.4550788928812556,0.5024837190537697,0.5107457936451916,0.4961049889922056,0.49392585543705536,0.5049774668754401,0.5260488633823195,0.5554583575371091,0.5804702321170899,0.5779041549264702,0.5489503429494862,0.5171168769139721,0.5075599791365156,0.5215526097668401,0.5489899899670776,0.5699926423706195,0.5766118287798871,0.5588981540901636,0.5283743176306809,0.5046167037908114,0.498692292222061,0.5191284164875669,0.5691019266569715,0.6361125802149177,0.7029155717406553,0.7506497157546828,0.7848056360273803,0.8207617082637417,0.8580013373122155,0.882100421478345,0.894174195179384,0.8966490474820284,0.887168683864368,0.8577676423309956,0.8067635784320125,0.7513713124009374,0.7181161896749665,0.7103707441962005,0.6988444828250725,0.6748411172889507,0.642577565255112,0.6094648192557615,0.5583473741493504,0.4647815574518241,0.23151144080863725,-0.2734731536738554,-0.6567087756736892,-0.7632561495050832,-0.7923571650002663,-0.8015957717640368,-0.7992735911721212,-0.7851040686692645,-0.7670999525583047,-0.7493579071009795,-0.7325722766844645,-0.7013403292422553,-0.6228232018828723,-0.5000308203436826,-0.38169099000880763,-0.2934853675645968,-0.2209351031842368,-0.15720076851329842,-0.12007789358139638,-0.11948829251002709,-0.1656743910580665,-0.24091110512961786,-0.32561111315703506,-0.4017159388847456,-0.45603646490961053,-0.4950495906616068,-0.5210926527692764,-0.5350392207086434,-0.5347923993803809,-0.547822060458046,-0.586215031960106,-0.6511463500008577,-0.7340338693298095,-0.8054334717203797,-0.8194078713623111,-0.7657083184861676,-0.6680496864309585,-0.5605650230569932,-0.4850574979928173,-0.47085815372678547,-0.5127841365969535,-0.6007920742476609,-0.7055188537633662,-0.7813977684143749,-0.806324740170697,-0.7966249486232935,-0.7752638050564464,-0.751599423954644,-0.71615443984036,-0.6487661368574603,-0.5245264197713919,-0.3211241957374226,-0.09012356059963404,0.07478222326121316,0.1492016646778721,0.14818843506947754,0.09606797510039027,0.020534945710584396,-0.04999740546968794,-0.09713337314865775,-0.1176702219256209,-0.13111494058746037,-0.14240843342831846,-0.12932029794874692,-0.0617707041299139,0.09659604367009984,0.3343698418358199,0.4811046269469959,0.4729064203734411,0.39927837477293043,0.30747256350664665,0.21503597693631332,0.1322697997218051,0.06564184405400243,0.015320432979300677,-0.019547225460897252,-0.03777719073809027,-0.0400214967650184,-0.03085196101044798,-0.01244534714201979,0.011327124399124196,0.03861581929957201,0.06858995866382173,0.09772072841926821,0.11685982644929231,0.09880664643077981,-0.04037260123260969,-0.34476497572407133,-0.5229264846708821,-0.5687223609680796,-0.5422773447431434,-0.4689955684378591,-0.3749738580569357,-0.27787455407484113,-0.1850907652979361,-0.10268330033048559,-0.026086626716768674,0.05085493325053476,0.1266904315231651,0.19730859008393117,0.26780302725323035,0.3404156956343562,0.40908504352151254,0.469453960145076,0.5195454013066257,0.5655572904415564,0.6094698209881974,0.6472351506698116,0.6774447502394969,0.6990914620805275,0.7043132138534217,0.690986430921585,0.659447534284587,0.6209662820135186,0.5911617076666282,0.5815537552617802,0.5771499061639447,0.532730090670751,0.42070382596310646,0.31061609551700875,0.26443085806457123,0.28071316950621117,0.34429951421333055,0.42725022091072673,0.47990955257425033,0.5000624662330556,0.5038975271694001,0.5007404412129303,0.47111022849469125,0.3915075010575272,0.24225004931860694,0.05080804900059776,-0.07159920420309324,-0.08569086020731889,-0.06286423899623209,-0.04243808725863467,-0.028320882831403504,-0.0027737819990676805,0.04980724764823535,0.14586812124764842,0.2856519346058712,0.436179723093753,0.5602175892925526,0.6502649924604095,0.6913388994659951,0.6731250141233617,0.601133446222335,0.47984563298751215,0.2913958612626907,0.021820688271791733,-0.27392059665759294,-0.4879728846006802,-0.6065563867568601,-0.6861948551381981,-0.7460456332286602,-0.7744193441634232,-0.7723844658318448,-0.7411998462855004,-0.6875216752036076,-0.6119707871370702,-0.5332037414233384,-0.4728979960247,-0.4336526391497384,-0.405414295302222,-0.3842913527305469,-0.37083610182587795,-0.36007888954156836,-0.3543256508131477,-0.3482375816701007,-0.3384014443176449,-0.3414978979286467,-0.380351923078548,-0.44745897965104636,-0.5146027267245942,-0.5635702261109973,-0.5950161147207172,-0.6058889221525243,-0.6103894482318392,-0.6290696029461605,-0.670727021528423,-0.717423831824591,-0.7585244717360403,-0.7859483959093521,-0.7969034386515301,-0.7951496043527637,-0.791623620704844,-0.7895720548129121,-0.7800501286529222,-0.7480770040592005,-0.6884004061766781,-0.5877058877980855,-0.440183157494249,-0.2568002098099973,-0.05526039960363291,0.11245263750042303,0.2283515988803607,0.31808854543561943,0.4163928250621128,0.5139414008364502,0.5810685699821142,0.6178091153343979,0.632417908659888,0.6264890475776935,0.6003671745742216,0.5584801782114723,0.5292136341471069,0.5724351987698743,0.7275724706442104,0.8300396436986925,0.7991744501878599,0.7284696034997232,0.6558817885270335,0.5974852157269199,0.5637224300070669,0.554655770356335,0.5599109214825488,0.5618442286428702,0.5558561709536236,0.5443639060210247,0.5295556514978397,0.5190185163209794,0.5272571421017637,0.56618530605731,0.5398067809063087,0.08539993383087326,-0.05709082934875748,-0.06352019146845354,0.038393826305794805,0.354220557258277,0.6462952845083263,0.6780435398479765,0.6675080424874358,0.6779086985624727,0.730223025476335,0.8028638462731129,0.8379475996285041,0.8583879860303372,0.8919128624165995,0.9121614016911984,0.9025126203519159,0.8549900428265051,0.7359741926621031,0.3971949161641532,-0.3132885749117561,-0.6519528698967488,-0.697295713289196,-0.680995501669895,-0.654002195792277,-0.6309166294935725,-0.6204109209366874,-0.6329651944006671,-0.6667581372805336,-0.7218199964566167,-0.7824756972562817,-0.8360947288934141,-0.8783079422901044,-0.9111040604548883,-0.9214411485831658,-0.8421076184758056,-0.4539156538894023,0.03900804247753052,0.28647398557772386,0.3999774559240855,0.4371749638381859,0.4064621539354544,0.30335118449331694,0.18950090635306074,0.14677863079774628,0.20657841379506425,0.32418746320887293,0.4424794124138983,0.5368539613973443,0.6115495483374548,0.6526384606249287,0.6466755715678568,0.5933852293240843,0.5065952072183751,0.40416111060136634,0.3058423894103283,0.22619076048543094,0.17201973763417538,0.13026600677099637,0.08861917125451477,0.039745431372813826,-0.02571442814155891,-0.11811286302202825,-0.23767804183472171,-0.3686017604073229,-0.4661677695531135,-0.47173824756491295,-0.36720175950217016,-0.12019899336677863,0.16119632788828633,0.3480010978619651,0.4561880697477043,0.5184778480665672,0.5616350375112168,0.6030571789787833,0.6424059154649513,0.677271110947077,0.7039661729705348,0.7169019317094439,0.7095759028221913,0.6746029725191175,0.600076435424997,0.45671387203267405,0.2184751558159917,-0.07629163106522208,-0.3265439080771664,-0.48520912732391536,-0.5664553303920965,-0.5891192742759215,-0.5720221055519948,-0.5286451529194832,-0.4674140763474853,-0.39964556083994346,-0.3426342989451127,-0.3101306016286752,-0.3050089314715408,-0.3261178153314224,-0.3731647782227523,-0.4384582613611327,-0.5100175359836236,-0.5770421404572951,-0.6402889456252611,-0.6963128620558673,-0.7358772445987054,-0.7498380986791632,-0.7426718798003787,-0.7140103765761804,-0.6465400252770906,-0.5238071934108959,-0.37839311720357516,-0.25570010459294035,-0.15646679026128307,-0.07160761741388255,0.013752799277432746,0.11127449884213009,0.2542489776183493,0.448383536988735,0.6740631725204093,0.8609393729653841,0.8263837243579534,0.6231741941595484,0.4781935626417947,0.42592508379201244,0.4046362432461302,0.3698423970260728,0.2963928948531312,0.1804555976847801,0.04881560337207376,-0.07065711248467438,-0.1677209981855978,-0.2665766035882187,-0.40225586865990764,-0.5928459552532609,-0.8017359642287115,-0.8912909557378349,-0.8338095365810082,-0.7301185586407185,-0.6315524810231792,-0.5510577414884253,-0.49925354920080567,-0.4751004248294428,-0.4704207695806526,-0.4571282589643601,-0.41764469397569787,-0.35445700042117506,-0.2735747906762732,-0.1791062809790343,-0.08471681573694412,0.004580186286278332,0.10249506485314307,0.21805834635241758,0.33789061943711307,0.4341010961291674,0.4873269246507845,0.5043407849705035,0.4903316261221204,0.4536863895445125,0.4070537152822552,0.36223624369394636,0.3268810938645364,0.30265185086999424,0.2897876055844898,0.2715670109147569,0.1620852088548428,-0.05446404708570175,-0.23923521100689582,-0.42191450898716726,-0.572434482890426,-0.5379771956099485,-0.39116855789698096,-0.2261813043404554,-0.05154789310012955,0.15038421196573196,0.3594520751446409,0.5196913653205514,0.5928260878293272,0.5922252205044003,0.5466519011248022,0.48828333535577895,0.4551600124493471,0.47487704974414147,0.5550205883997937,0.6644389909956547,0.721299218005475,0.6734831388032907,0.5782317499306108,0.48127238057621047,0.40143352662836734,0.34674675069983535,0.3431484967659269,0.40811926667468407,0.5128395388188386,0.6000453563490884,0.6443341069747421,0.6545956069082578,0.6440503864085153,0.6171628931041309,0.565884903411423,0.44928176697780553,0.24543863605994068,0.013091425811422827,-0.17521154655798757,-0.2821455530110303,-0.285452413868731,-0.18771165646922663,-0.03185022823377782,0.12285891232557405,0.2579794855955211,0.3717464447903837,0.4659340145457749,0.5311636561213091,0.558736734687568,0.5436265093922193,0.4551942334903735,0.2121431950398483,-0.18004769847313865,-0.47187912437098695,-0.589504546441719,-0.6116713597131092,-0.5834352564707411,-0.5397908060208795,-0.5078820688297958,-0.5095625289964566,-0.539960863435193,-0.5752947857438537,-0.5968930681441857,-0.5985887901491119,-0.5799009554099014,-0.544130421655154,-0.49937558479074845,-0.46157800154257983,-0.45191084690612104,-0.4827546157374648,-0.5482452100860454,-0.6145233275423169,-0.6558846717795479,-0.6707780070053985,-0.6708040717659143,-0.6632064945314554,-0.6444022398921638,-0.6123021172911356,-0.5698085288063989,-0.5260571457113056,-0.4778494618316318,-0.416606614233448,-0.34637317745781654,-0.2797284676120446,-0.22997633827709255,-0.21326230452701353,-0.22551096537173332,-0.25972363623541445,-0.30501051259046014,-0.3570840114051479,-0.4151714999292755,-0.4610918332643128,-0.4572619305902437,-0.41316708233136756,-0.341514187939912,-0.24514724980948627,-0.13418382004772933,-0.045685856916983604,-0.0032424236280748035,-0.0036108143147011978,-0.026536197126006113,-0.03169227338676414,0.008274852343169938,0.08098229464373642,0.1651408603156432,0.23820735854096037,0.2795319224391378,0.2730427027734116,0.17867577799955175,-0.01675799540302305,-0.1801422496669524,-0.23435202187772364,-0.21455467968815728,-0.163306533867525,-0.08771993366182786,0.030482794809311764,0.19088876352282555,0.37592276672421243,0.548621883543934,0.6871299401456729,0.7763470057399503,0.8204740224838898,0.8399033459518507,0.848395062992921,0.8487719439168074,0.8411408523633007,0.8246098482832503,0.8000881517195436,0.7757668429685212,0.7534859093156389,0.7376263310100362,0.7265926394559616,0.7201949544403644,0.7246809601870808,0.7398764552116843,0.7579639816961072,0.770149904658642,0.7727988795959699,0.773001236628672,0.7798092317827953,0.7923109754954828,0.8056993836175315,0.8149314066650557,0.8228129800133719,0.8219451042100442,0.7977152301219907,0.755992364809995,0.7176720911849692,0.6852649228889371,0.6578873518187139,0.639714841764649,0.6298151104017954,0.6080937686499882,0.5622946091823431,0.47498362667057203,0.32181553145409303,0.09870976901621009,-0.16217785699053178,-0.4090121623985974,-0.588685298318216,-0.6760205065683391,-0.6953653656274809,-0.6771354919203804,-0.6312187736731841,-0.5656755511838301,-0.5088178913353719,-0.4895979482586486,-0.5026149240915969,-0.5381005150220632,-0.5862508652776749,-0.643601505168087,-0.7176554703830257,-0.8070749498283953,-0.8249431632739802,-0.734391364696988,-0.6387600094477923,-0.5649645924429914,-0.5032461546552651,-0.43956934675497467,-0.36018232308324594,-0.2604729650852387,-0.16065683521432006,-0.07497157841280651,-0.011608663911522718,0.024240935429668264,0.03439991643890672,0.01450064467736007,-0.04763563275239867,-0.17281672708495244,-0.3363625177132947,-0.44676304454767657,-0.4624237386954501,-0.40968777179909643,-0.3201113925401327,-0.2272937983052134,-0.14944420328238267,-0.08340055613241702,-0.02147733664701183,0.04063233096457667,0.10436233431195355,0.16650376837817077,0.23312995100622436,0.3078206477775269,0.38709125116949517,0.4551788339087736,0.503837933470923,0.5379453449827849,0.5812769445466632,0.6726081525452416,0.8315534934160164,0.946522007390778,0.9163712663797746,0.8342129061624478,0.7614214906450429,0.7117878676767868,0.6800209824655696,0.6508440927009707,0.6087670807719363,0.5400650580903864,0.4314830114868634,0.2903476629558063,0.14384800401383435,0.02197394326555623,-0.05973505101192272,-0.1190187195550697,-0.19941177096802545,-0.31128228016083265,-0.41736813792508515,-0.49815199937832916,-0.5634610969126925,-0.6259784471339479,-0.6842421040572088,-0.7386075663010144,-0.7661053999167099,-0.7464592346091891,-0.6939222145275765,-0.6362378388866984,-0.5800460578919522,-0.5311552107838856,-0.49889584912630935,-0.4891360670962487,-0.5091596980056367,-0.5546703133730018,-0.6161621941282552,-0.6841284982810684,-0.7530387664568806,-0.8256242210798539,-0.8951519844214969,-0.9373688606301628,-0.9482815578502585,-0.9443939350253485,-0.9291448442559646,-0.9074893363691822,-0.8992810567715385,-0.9022468180724587,-0.870003842128407,-0.7975154396081101,-0.7016988731051121,-0.5917176706926028,-0.4599377014254546,-0.325714963766637,-0.2105203622821762,-0.11396257207465355,-0.024217270265291704,0.07189869861480923,0.18289047807924197,0.3049877214855395,0.4284695471915807,0.5401299108153303,0.6271303407338147,0.6916032785103914,0.739647634984065,0.7734530091034686,0.7963667227664911,0.8151072825411328,0.8357410224729047,0.8628398427503954,0.8893856107861698,0.9011756015907395,0.8799385701046952,0.822453047211799,0.7476568558763713,0.6708501059082231,0.5796141839025257,0.4202478045924538,0.22048914617517704,0.06370486770482998,-0.03877959721304061,-0.0766487511922954,-0.05599776617474974,-0.01009638367434615,0.030670907324610943,0.05856503677283078,0.07415519301983034,0.0838452094035733,0.08713112006982487,0.06975880047455642,0.007269506108365721,-0.11379423014715975,-0.2594078329486655,-0.3694635830960025,-0.42765661020656826,-0.4300594579596095,-0.3422707240913869,-0.19701167631526195,-0.09926051955525944,-0.0707464038124475,-0.0870595258193753,-0.11722952461256829,-0.1352541230483354,-0.11649104418526002,-0.07623391260249657,-0.042955230198801236,-0.013777229218566445,0.028139132044132802,0.08418355876746766,0.12870921699610083,0.1384032015357123,0.10053685759716649,0.03105585587464357,-0.04327356647946824,-0.10133248047116052,-0.12864948600064785,-0.11381004180577178,-0.03827224478883958,0.12604654195041873,0.3285444882305279,0.4974501220265986,0.6272142926150608,0.7118438685882306,0.7464558136792078,0.7551665705248153,0.7587257749262413,0.767725449356435,0.7833508336360159,0.8012226724279493,0.8144832094459201,0.8181530492470703,0.8135338463291717,0.8041536453167396,0.7942552571405485,0.7867146343037262,0.7828741210703475,0.7826383616064047,0.7784119510804768,0.7711034176831475,0.7696698897595003,0.7761437937032138,0.7856308676391212,0.7938496974374307,0.7930915943438074,0.771183595041932,0.731416290314994,0.6767892113136612,0.6127494540448863,0.522320582188462,0.3613984747414908,0.08789510900507347,-0.2637798005120501,-0.5074375115367235,-0.6156900610871376,-0.6631796754895363,-0.6996951877317252,-0.7405172618351288,-0.7821587434431833,-0.8122883118729415,-0.8271502033934467,-0.8353058962727431,-0.838814213334464,-0.8442031100328415,-0.8575468520741064,-0.872594878009695,-0.8791489057995945,-0.8805878816584215,-0.8845162736032416,-0.892657440552592,-0.8943232237368053,-0.8824394501471012,-0.8644539719982391,-0.8456112119047339,-0.8310663640778432,-0.8146654578653659,-0.7934396659898163,-0.7662093588094673,-0.7358042352658173,-0.7099571701854754,-0.7011641208618479,-0.7166977920632278,-0.7516869487074047,-0.7805796249404603,-0.7846445622962889,-0.7663803149020116,-0.7351871284823974,-0.6973374367900012,-0.6383072281126619,-0.5345005776930454,-0.3712479506367452,-0.18987530841616548,-0.0470717316916959,0.060727432575964094,0.1624842670346463,0.26661942128976224,0.3693294183015038,0.4597719837521721,0.5273292597686603,0.5676041552805374,0.5987470103252897,0.6311541634865732,0.6763048046850559,0.7257459278750922,0.7574684906118541,0.7642745233616742,0.7508110041133689,0.7200100893752684,0.6831301996517836,0.658554818333069,0.6517251991083214,0.6343537496874734,0.5917126922154085,0.5368894267287948,0.47849582792015843,0.4196244161610801,0.3612271419529144,0.295059590388935,0.21929465280267227,0.12657697269455895,0.011130813028140455,-0.12860604836971273,-0.29680039729373464,-0.46503526733463946,-0.5425085065527335,-0.39441879065645413,0.07041878171972481,0.45050754588851255,0.6107735377296719,0.6596935304100214,0.6054411500585393,0.4535035584638445,0.309391424458625,0.2353729592145189,0.20199157482438426,0.16659006106401444,0.10271490590417068,0.02628594314070294,-0.04367463229738989,-0.09164716220185896,-0.11655841069987634,-0.12737247119983572,-0.14683338731570045,-0.2045696355903614,-0.3102924063015787,-0.4464063350029889,-0.5712149270262831,-0.6573707389341389,-0.7046720914989332,-0.7269965832661174,-0.7425640719915798,-0.7670942525981306,-0.7993978929079062,-0.8026882390739056,-0.7508339722727457,-0.6373073123834592,-0.49009364704639674,-0.3421098641283791,-0.21187222092666871,-0.10781787333464392,-0.01972817585602276,0.07078888817952379,0.16596783974895163,0.2596543458932534,0.3474204792043921,0.4284268942421666,0.503845518543314,0.5672891015610109,0.6131780442846407,0.6439447369213448,0.6639404755622114,0.6786677856549304,0.6975211898635058,0.7275035422975697,0.7735235570372911,0.8286858862822469,0.8653000981324028,0.863281254675678,0.8387632903687144,0.811219482680868,0.7843106742968217,0.7509935943516262,0.6965630277995043,0.5932415795989364,0.35561932828210535,-0.1763298556587917,-0.6310173134973409,-0.8025391221855416,-0.8781111599097486,-0.907765419291529,-0.8865543194323187,-0.8138427924067948,-0.7155351763708878,-0.6182893229407642,-0.5123590283081116,-0.40389391758016424,-0.3398944524312449,-0.35226005204571637,-0.3754736651987649,-0.3796727117196484,-0.3811383855177168,-0.3925169348471867,-0.41489999262861693,-0.4426595999995683,-0.4728543529953474,-0.5034148209857238,-0.5270870013061238,-0.5383513171878723,-0.5406943967767706,-0.5361330077994426,-0.5255873311260755,-0.5074750998860916,-0.47850678571757455,-0.43889960704290265,-0.40349497737145545,-0.3842999916446991,-0.38975987872531165,-0.41635524959390585,-0.4581084912829703,-0.5029974383248345,-0.5435636122157259,-0.5776926711801915,-0.5989017319001099,-0.5982388890167976,-0.5694850865377297,-0.5255214037643791,-0.5026424096326848,-0.5128870393924495,-0.5236605338906514,-0.4857438539519093,-0.44493750304821506,-0.46276328373586706,-0.5460796992986808,-0.642372501284046,-0.7006411576907047,-0.6692688333440108,-0.44714050869880345,-0.07340298766145671,0.1791741538211921,0.26696348625021477,0.2661855542096132,0.21196985328093257,0.13397848796012274,0.08780451085582565,0.11427431476510189,0.20441204758792625,0.2939166960130782,0.3419243460447226,0.31922902821453264,0.22916693456083517,0.07758583875854927,-0.10065171764784193,-0.2539226769689638,-0.3334102397006165,-0.2962260436717833,-0.21316353322202575,-0.14404606410460236,-0.09200312542391718,-0.031899768747063975,0.06474016967206127,0.19783118930650903,0.3115568009478052,0.3942550567687872,0.467667772341054,0.5442436606721015,0.606289854918945,0.5946567375592089,0.47958358828445186,0.33130508879660614,0.20639993422017738,0.11220993776470461,0.04272254093981529,-0.008193779371556301,-0.038981398126947744,-0.0300401560608346,0.011160149399636382,0.03305361434041483,0.03542137217053374,0.03253488098669804,0.024353464061026647,0.006545191753237534,-0.021874244224886343,-0.05664853404446955,-0.09078929944698048,-0.12112869294354182,-0.1473430385090871,-0.16478975043384514,-0.160553530687248,-0.12013978403998275,-0.032416940462813494,0.08955477583399671,0.21858461691967795,0.34490870864946654,0.4672991518042098,0.5339430656543975,0.4437996989554059,0.2432044234525268,0.09932154854548125,0.06600795786147136,0.16380877547895603,0.34827687220851494,0.48315575233202274,0.5027355031769143,0.46379669709766086,0.409443263386365,0.3575926655525451,0.31647030737920034,0.2893665474174546,0.27159851972581467,0.26411511343310246,0.27151935910760333,0.30201388865860745,0.3504697359909304,0.4025951378573742,0.44704387933689366,0.48637241765606554,0.5203073740765648,0.5381270157336226,0.5329175812731164,0.523813601853086,0.5215257635843569,0.5197222377610595,0.5086533684017269,0.4903127192339208,0.45940659933500083,0.3978866110411454,0.2834427917348307,0.12881762943642436,-0.0030764724964343604,-0.09550072977263875,-0.18613676346246386,-0.3172978090174559,-0.46241144484899793,-0.5639483051781876,-0.6029624298741364,-0.5840996082506197,-0.5182063020495831,-0.40092026932470687,-0.2396278988951939,-0.08244016227687882,0.00944547265418557,0.05685677570881503,0.0972537259265458,0.1479452432975197,0.2192735690413934,0.30092206503186264,0.3778931906149426,0.44259962814554393,0.5017505829938309,0.5561964502751111,0.6056863193093173,0.6555838529043153,0.7159936099857126,0.7805250190965285,0.8321125209363797,0.8557613508595702,0.8473877912547724,0.7844605396806045,0.6589146872967684,0.5222340005013502,0.445198093801751,0.4357793243238623,0.46733683223233846,0.5191527405304993,0.5828665453885835,0.6436487342286044,0.6672170522448116,0.6112026606118928,0.4827301679685997,0.3225016308184817,0.1769494425011227,0.05402428802186514,-0.049828609068372734,-0.134627151083871,-0.20094174773108536,-0.25919354625371777,-0.33092270431621784,-0.4258270409654809,-0.5675104161075124,-0.7239521035996036,-0.8196749638088253,-0.861911526607568,-0.8892893151997019,-0.9022091619111093,-0.8927755361333116,-0.8677038563182374,-0.8368162377417376,-0.8030960041432489,-0.7688848277870706,-0.7422724403583116,-0.7285940955207855,-0.7214353386380308,-0.7040092426913895,-0.6732069725024039,-0.6318721802365341,-0.5696081901494218,-0.47627441594041464,-0.3650902390490049,-0.2787421637167724,-0.26774779006855876,-0.28031543853655383,-0.20422954540528637,-0.02985881815866027,0.22398098298418767,0.4721243398209944,0.6082877075751721,0.6305425995973847,0.5692134364775355,0.42516246246961775,0.16598885175363462,-0.19952817479828505,-0.5263948033471882,-0.7219024372888299,-0.8077391521778741,-0.8268104021710474,-0.8182230623003246,-0.8082596870044848,-0.8098157802791818,-0.826305994107213,-0.8522586827832699,-0.8754605611876087,-0.8842292769849917,-0.8805056015073491,-0.8709236457588844,-0.8610870226595175,-0.8590810800871552,-0.865788635776014,-0.873036823342422,-0.869473010834176,-0.840194490692693,-0.775323968570468,-0.6861269417734992,-0.5879163192296191,-0.4680726948282887,-0.28554510249832665,-0.03731333433717798,0.19992297508053994,0.38557949729239277,0.5180758715460156,0.6093518123122348,0.6629753706367012,0.6905162956137469,0.707077489475561,0.7186344685834256,0.7242340815636163,0.7256986672573632,0.7302043753958918,0.7456207136110792,0.7727414193128623,0.8048402449516135,0.8335668364820387,0.8553514388167726,0.8697566426331518,0.8784699490450729,0.8804283577302261,0.8749062523281762,0.8600387252685929,0.8359675495535653,0.8014495688162901,0.7541836005220344,0.6941922077091884,0.6293387543635262,0.5540075721555077,0.4309572513516763,0.14385736433934068,-0.37493504478511813,-0.6434432346302495,-0.7241266404841596,-0.7620023973232544,-0.7864323858918492,-0.7943024180384125,-0.7809192552401157,-0.7525750705180109,-0.7168959188429261,-0.6848091532573791,-0.6626671984933387,-0.6517233782501548,-0.6539849836603141,-0.6692661130961639,-0.6978867206381745,-0.7379881909666491,-0.7715402724856061,-0.7764349910920171,-0.7418233903917651,-0.6889140739283348,-0.641855963343243,-0.610289692235621,-0.5807272622321621,-0.5080749269900543,-0.36230377137915615,-0.18611091560339652,-0.02700742183317418,0.10360576181170875,0.2157537596624049,0.3312055729427759,0.44796898348986275,0.5382865734444652,0.5833793914420808,0.6008275690277051,0.5995556811425071,0.5651945780760543,0.487366397326259,0.36868682841966227,0.2557080216578058,0.18601864117054182,0.15131437502418998,0.1350532952383587,0.13019619166828691,0.11460223003465175,0.061676333396045745,-0.04073818098048035,-0.1764563601265227,-0.31671262049640786,-0.45622300234512636,-0.6017053154057745,-0.7321278904094455,-0.8029610290866485,-0.8181571336809061,-0.8174075469371872,-0.8242214799962789,-0.8461691396424094,-0.8747178540570265,-0.8889477562246074,-0.8805518016170772,-0.849035637163812,-0.7889732637730821,-0.6840041868350227,-0.509352676865128,-0.2529489292829995,0.029952735547891768,0.25701896529770235,0.4300286297311626,0.5866440207898211,0.7038034975703099,0.7549294905190961,0.7714768457959398,0.7839036289134178,0.7916013140653239,0.7971924566781871,0.8132828770469264,0.8382348213645757,0.8622984401406693,0.8778734983843216,0.8851257272355489,0.8852435569242604,0.8810531933097903,0.8746028422406669,0.866128634462513,0.8517520063783868,0.8234855642117231,0.7639160988217343,0.6542354260667201,0.49570473030144035,0.3226209357450532,0.1641169419331001,0.033116750010274434,-0.0694248719303086,-0.1499942274101596,-0.21677143911471977,-0.2725343330534488,-0.29845927768463665,-0.29512881684609843,-0.2836715786771128,-0.28378989614095324,-0.29577042938730963,-0.3175776322437453,-0.35491072319714195,-0.41169280708310124,-0.47587360686669816,-0.5268505446603284,-0.5426652133583428,-0.49937496959545946,-0.39592225686269494,-0.2752332309559561,-0.1930287097600432,-0.15907502509542862,-0.17079976547669715,-0.2119495956478453,-0.27258068862303236,-0.3357778035391722,-0.39949098710119707,-0.4756936918507296,-0.5908691619242008,-0.7388001761014017,-0.8475705730730808,-0.8490703306918516,-0.7345207585257731,-0.5425716576594415,-0.3352441370390716,-0.18053330945559026,-0.1040130929474503,-0.10543542661395068,-0.15532551318068297,-0.2521997932994481,-0.3999540219268489,-0.5622749616490524,-0.6425646604438131,-0.60064061420866,-0.5216689873361726,-0.45465120903505307,-0.4046706587948355,-0.3712320751763151,-0.35918458253787217,-0.36960744321922545,-0.39511077268286243,-0.4323628104480468,-0.47804143504932967,-0.5279154792446762,-0.5686622649588333,-0.5924413587870795,-0.5947630253406195,-0.5712977093371445,-0.522231180004435,-0.45532958071468443,-0.392243295869371,-0.3517115690504959,-0.3433900699158192,-0.35156151012821635,-0.34051839431342745,-0.2678427800456113,-0.11371908564132177,0.056058169171983294,0.17170110049564447,0.23641305393627016,0.27364734338591096,0.2984918787325598,0.3156604296611836,0.3189563844070272,0.2999209983059444,0.27101000090845884,0.25997159637457834,0.3081886430943524,0.4534257661071517,0.6989214865904714,0.9005633800883788,0.943709289412949,0.8764422447254508,0.7662419922700464,0.6650998590785479,0.5960664516281045,0.5501062429087886,0.5152336970457544,0.4824055723909406,0.4565344432621008,0.43986887887357984,0.43538313132559664,0.4472618411542242,0.47788176299865726,0.5212965865879097,0.5684134045297878,0.6070517888937609,0.6259673414968756,0.6271534617958276,0.6136147434630584,0.5952801211921561,0.5795549673664872,0.5548559716552048,0.5072636738007646,0.4272082030189042,0.3170153404589141,0.16866864485328276,-0.026146957378578698,-0.25643507258776044,-0.3791345875618194,-0.4037678323231289,-0.40335114397360633,-0.4091222244770146,-0.431345000811519,-0.4724317954023093,-0.5234143750973168,-0.5617963185834538,-0.5700005137805565,-0.5432643347249607,-0.49108052265997165,-0.44009579114813896,-0.43089384141112025,-0.4710945473911149,-0.5323691962888257,-0.5833602305783548,-0.6063760562536918,-0.5965821217017225,-0.5590356881415735,-0.5032119959963718,-0.43445731013411826,-0.361868067616979,-0.3084117485864356,-0.29440013910600354,-0.317219781995535,-0.35707131372449996,-0.3897944911420011,-0.4094156316110192,-0.42583852415725965,-0.44647869106654486,-0.46803874395596773,-0.45788170765445624,-0.35178538096564044,-0.09317938305801587,0.21475784492820094,0.4140726186784286,0.5004876799565713,0.5277737260234362,0.5180664622432221,0.4826279711456586,0.42526899063841944,0.36462113359942244,0.3126885418295981,0.2703756277359179,0.2478241763944012,0.2428969403829545,0.2518664439573368,0.27354284559673575,0.2986512186485248,0.3018133058320921,0.2674526813853138,0.2297493719615341,0.24084374448843943,0.3276562409434321,0.41699332614252693,0.4641182877504857,0.487585833332603,0.48643868039308075,0.47862297051855984,0.48851344991797596,0.5367474033718956,0.6089248931448896,0.6552833078816113,0.617571249894686,0.4624230947251469,0.24982557267061078,0.06327600057942233,-0.0680529686756454,-0.15486555269207158,-0.1836067174329825,-0.18180911294961377,-0.18113017547144192,-0.1864672106685226,-0.17418360792505438,-0.13567892269890922,-0.0758575750358078,-0.01641735925659344,0.03246954332458082,0.05966059347646432,0.05311781857271385,0.022001943188202575,-0.02667194978711672,-0.06157007712298853,-0.08037615114952945,-0.10112108013691086,-0.13682849939362338,-0.19318892292348505,-0.26618047863582905,-0.3479667899279958,-0.4331488023699685,-0.5315120046148202,-0.6354330060155335,-0.7222194028793006,-0.7787609283264072,-0.8063963568213107,-0.8115844553310213,-0.7967936509488237,-0.7647905125385472,-0.7281731541909975,-0.6972005496996012,-0.6660938415129838,-0.6186110904317421,-0.5178318687082375,-0.3081601382100106,-0.005877987757606332,0.28244074334188357,0.49969504265047937,0.646562465679255,0.7326897735706278,0.7820631128232913,0.8156700431919081,0.8455550656684826,0.8725600961002631,0.8878037066277834,0.8850071569267345,0.8772125188018232,0.8749603500850515,0.8788429588446136,0.8868429069299472,0.8961019308168394,0.9030439078474957,0.9038008525608109,0.8955461786705297,0.8740075878152881,0.8338801888908289,0.7752559015671598,0.7021406935298211,0.6173876061126297,0.5108961699466537,0.35538028214553846,0.12760047588292248,-0.12828964065253853,-0.3300185059005305,-0.4628652816387392,-0.5498657507751636,-0.6134216416934127,-0.6591171036521859,-0.6910580957789793,-0.7027574781867559,-0.6823268904721924,-0.6099688676355145,-0.45293972966390783,-0.22123904188961527,-0.0013424937055076494,0.16604678889770466,0.299264633209337,0.41309652481775605,0.5098468092576722,0.5840570202253429,0.607047774978117,0.5140458398782322,0.3488027257075528,0.2913946272435336,0.26038041156024117,0.1976303145746413,0.08135829164754174,-0.09197352603435363,-0.29711232704120166,-0.45694826839126085,-0.536650526906348,-0.5903769114733967,-0.6589445177085848,-0.7330477617155595,-0.787994833683392,-0.8222796490420259,-0.8520733472663373,-0.8758083564505931,-0.8863115475960746,-0.8873005026734979,-0.8841328878422469,-0.8793249026376168,-0.87082412004136,-0.8608269540873118,-0.8515238563986828,-0.8406641015505238,-0.8259266223675745,-0.80780587381877,-0.7963785626845367,-0.8054298410506622,-0.8277225623549958,-0.8357717220364923,-0.8022231044047792,-0.7085948440094311,-0.5442971577009951,-0.33020705740339834,-0.10133145658183638,0.10834760484467465,0.25851435184162186,0.36082316520177987,0.4436889537624802,0.5151803616993341,0.5747174466462004,0.637253767895848,0.7006368691397497,0.7542331438467795,0.7895823147287908,0.8117528833145868,0.8262046436871058,0.8301079281244514,0.8157583967824723,0.7786087826377195,0.7093898235187222,0.5761550172309081,0.3321424303025256,0.08512240848760601,-0.05647729217823365,-0.12216507197730461,-0.1667313902397534,-0.2052387238455156,-0.23331300622166726,-0.25957961035003696,-0.2956092710205494,-0.32861787933093456,-0.33618346385004205,-0.3280812128704025,-0.32165676718227687,-0.3165648712213102,-0.25485233272908536,0.021022727041742902,0.42438521823274233,0.5433123876925874,0.5821043228902302,0.6118642095876083,0.6394856875524395,0.6598775193214209,0.666777054742644,0.6619817098913763,0.6521640506874531,0.6439618864125157,0.6382006405760515,0.6315613974653699,0.6149001155407712,0.578899080839058,0.520106341474961,0.4538307590291249,0.38654159710454156,0.3130520911425031,0.22965847042700724,0.15335739932048945,0.0985066744650147,0.07305992756848775,0.07218485292187873,0.0832763274086189,0.09000722632135444,0.08141378510797856,0.053142750589650706,0.004396406079342464,-0.06166248165560656,-0.12767067328146403,-0.1785684304356816,-0.1667421101705183,-0.009549303115560258,0.1601820635173282,0.20850309047948065,0.18619835296048132,0.12695223609911982,0.050895344863997855,-0.03244403331772454,-0.11116338088588329,-0.18632333129925685,-0.2548023262035826,-0.3079979146225123,-0.3496589752741062,-0.38322518055583965,-0.40608594049395297,-0.4233428889410497,-0.4408317611048987,-0.45934247078953977,-0.47880872593903634,-0.5011673787138096,-0.5270699675827978,-0.5485193078139823,-0.5380850651371419,-0.4661445037957954,-0.31782258358214327,-0.12146556533977239,0.07417532804310997,0.21577994731391678,0.2546595348771695,0.22676235142331744,0.1956608506117453,0.1940410951649374,0.22940938349733886,0.27741119402330977,0.29946765501261136,0.30691001923557143,0.34407766395150696,0.43677040111222015,0.5569736263716676,0.6515998933019262,0.7145445681719542,0.7551917459266279,0.7858985478405368,0.8063084278864153,0.8012813288399369,0.7461646998940392,0.6510610412517347,0.5676442656638547,0.5337621382737825,0.5454735707110966,0.5616497944949853,0.4839168985981925,0.22751980981998537,-0.11539752781033427,-0.39146308103302613,-0.5409337410420642,-0.5828493031087818,-0.5586545353296207,-0.4759645166411835,-0.34961420252602216,-0.23546169783182452,-0.1689539967787524,-0.13892402915683635,-0.1204944062010431,-0.09538487881077089,-0.05852093023858911,-0.018225285907118458,0.010474487949969784,0.01777736165616761,0.00419078898530858,-0.022659564640371947,-0.044845706733327655,-0.03296385766780922,0.0322420621889956,0.14693452700194648,0.2751457577287759,0.3836892386665489,0.4680476764644654,0.5394081470712272,0.6058223615626974,0.6654030195841334,0.7196790613823426,0.7855898633956994,0.845838857149362,0.7602428893126659,0.5295372269323945,0.3466413694090724,0.2379899327665677,0.17261644789226055,0.13431718426026742,0.11598071210982513,0.11699755090380781,0.13895341753324106,0.17575825990595492,0.21897902638691844,0.2567866121558722,0.2790317180160817,0.2743726361310969,0.2321458691755603,0.13595323705495813,-0.050167077459542,-0.3308678896219306,-0.5813095374396072,-0.6811278296142931,-0.6934137492754512,-0.687113792103345,-0.6903182745783717,-0.7042358716941262,-0.7261162145096787,-0.751284410917334,-0.7694013312539817,-0.7801419484244181,-0.791808339975656,-0.8076322344576081,-0.8223350334524441,-0.8255920927101115,-0.8085299251946378,-0.7706133887448656,-0.7193633132432146,-0.6683134408340254,-0.6210280500916568,-0.580902937753883,-0.547698530819747,-0.5212162921274904,-0.4935454295520771,-0.45252171612244063,-0.387203158360892,-0.29873669351339277,-0.20310004095320516,-0.12301633290480321,-0.07179480939627284,-0.047868531235885976,-0.029418373227483124,0.0014038520030813337,0.04440990115499819,0.09154975126986264,0.1506965316041785,0.2365730614743227,0.3544982439063311,0.4811875837562983,0.583529796104727,0.6520284744235368,0.6973883708285964,0.7321500257503625,0.7581798644093494,0.7747963345513936,0.7814779400929925,0.7702151119910556,0.7175786281535788,0.5640749125755561,0.27230520514348805,-0.029087116234819195,-0.1925937556910955,-0.25459353674165763,-0.24326535552857348,-0.16647154084786656,-0.07689122905984548,-0.027018210222599426,-0.018828679070402712,-0.06647543633569575,-0.16558004514976335,-0.24236245045007174,-0.23932570666617795,-0.17320987515819297,-0.061245354032252744,0.06016893477272852,0.12210233041392078,0.07677727815708256,-0.08334039709843966,-0.28412823941289445,-0.4271864906087565,-0.5114134737331837,-0.547309663112938,-0.5176586255933973,-0.40051750754088367,-0.21040519904841118,-0.017247289853802292,0.11946709997434073,0.17488441006768798,0.18548127632404016,0.18341092062883052,0.18013717426605183,0.1651732585813902,0.136292447608677,0.09557799597264258,0.043952854532388716,-0.01730729207325692,-0.08469930065820873,-0.13946306845283127,-0.14740388565006976,-0.1058660895838395,-0.04100395362169837,0.009817989639389065,0.03608926066212768,0.050667479316519125,0.07915983454295901,0.1352478762976314,0.2144390621236393,0.28464499193507825,0.31557588664334946,0.309216192207694,0.2930753249362377,0.2865603778957027,0.30621456058684277,0.3593595985979009,0.44635618423194007,0.5512932734419451,0.6489416593497522,0.7260053740442043,0.785322684635468,0.8307580953247836,0.8590854575914724,0.8585713128806214,0.8284061703901889,0.7834031555913437,0.7466064756140549,0.724806908120803,0.7071625853992128,0.6746218639108147,0.6101062348469237,0.49094326513772285,0.2918508527021649,0.030671954196123802,-0.23087816170428815,-0.4550714040062994,-0.6285632079120544,-0.7428832949956322,-0.7964782544637286,-0.7976660056678675,-0.7491201199168549,-0.6601907788466402,-0.5578657815862601,-0.46607787536363043,-0.3840185534650729,-0.30183486162110634,-0.2140575703354327,-0.11486296187824303,-0.002373100738978085,0.1133303208129144,0.2268106129436344,0.3339378599254544,0.4282637909553437,0.5050706563396681,0.560074779978576,0.5893890052311404,0.5946857195394163,0.5778719312744043,0.5277539641173641,0.4402702890842072,0.3706486176807382,0.37816448709245615,0.4234269507020592,0.45153404644991607,0.44664994953759746,0.40481654710469483,0.32318145634611634,0.1972083689083833,0.03233183587422981,-0.1479620453717593,-0.3089462581336071,-0.43353639193990745,-0.5285550403003086,-0.6034369766256257,-0.6517196842281772,-0.6646130908326544,-0.6536221671464635,-0.6367234621710629,-0.6245862285394875,-0.6234994141564371,-0.6340450018160577,-0.6483349631393471,-0.6609493346938948,-0.6663264229910237,-0.660930651645647,-0.6542110081175123,-0.6595922792964711,-0.6825638461041004,-0.7206033207534867,-0.76553771610221,-0.8017207779744998,-0.8233887230232022,-0.8385878365657264,-0.8441666702285477,-0.8298200429073201,-0.8000262886613944,-0.7757039222788474,-0.7700206678783866,-0.7601361157358235,-0.7179023756890244,-0.6629303230920593,-0.6162565232324981,-0.5723174802430067,-0.5135436635770592,-0.41277656071564806,-0.2591577179997761,-0.08624330272495373,0.07051811355671649,0.19772261195190455,0.3001612127195006,0.3902719825495004,0.4746679711681795,0.5567940362128789,0.6389422260103361,0.7058636166222884,0.7455812159114525,0.7577891407023257,0.7564761268893475,0.7575193141752092,0.7673451496695468,0.7812627662313528,0.7788611454458206,0.7382620573350933,0.6713517607005451,0.6021436344399987,0.5442797875722424,0.5130269446321762,0.5181680989086395,0.5512053628427135,0.5929287826796484,0.6231080117820581,0.6388038751130547,0.6448206266547751,0.64257485421793,0.6238509200965875,0.582795949826328,0.4785508335100255,0.24492908471961694,0.06714115369353965,0.05908892482551439,0.09397036248181516,0.14707354404817738,0.20756059016695236,0.2583488122980411,0.27255178999366664,0.21649504250598764,0.09965103078521115,0.004690176111443864,0.04050081023339175,0.1784173003307861,0.307499016522725,0.32465791383059384,0.2648303542444013,0.204566892126102,0.15368311120330055,0.11233546340654893,0.06253493061289067,-0.01390932602787446,-0.0962588546874545,-0.14101279328627442,-0.1323574915796397,-0.08074164472933666,0.016687803346271096,0.17340526232106648,0.41860582757431986,0.637953048170094,0.7197598552460683,0.7401496903395987,0.7582170535371557,0.7831060230068803,0.8009602763873716,0.7720703221065411,0.6087129633983647,0.2622089643781077,-0.06202824366318722,-0.22511536262052131,-0.26412379573214184,-0.21512923329562744,-0.10899353786800144,0.014084127068728131,0.11752809346355976,0.1858576046839091,0.22245733422152691,0.2331321544340934,0.22501615216539328,0.20171721243896829,0.1619570280355333,0.0998478573573508,0.005663628424368764,-0.11855857375630668,-0.32779947884465055,-0.5762445211102285,-0.7261462829548839,-0.8047455069939389,-0.8081751773516702,-0.7245314924070372,-0.5845049493487975,-0.45646805969672966,-0.36281989003331205,-0.28489700873858886,-0.2178677295034136,-0.15751358732308635,-0.10545146547210345,-0.08277381478363253,-0.09016234001952358,-0.11538920832164899,-0.14858405778348305,-0.19182378590718316,-0.25018751122047145,-0.3290077095855061,-0.43054397876244965,-0.5505370653584576,-0.6738610740914259,-0.7712999666787684,-0.7852183476588501,-0.7124641094356506,-0.6020091119671086,-0.5193067619093718,-0.48809603954740854,-0.48680420772859145,-0.4765316538860869,-0.4378209989167362,-0.37430940564830256,-0.31992591150021926,-0.3343844091728675,-0.40551311479788166,-0.466067022305608,-0.4514042203215929,-0.32890758060514336,-0.13197695180770086,0.03988932696749851,0.16099724764776588,0.24833050262819645,0.32248919375444685,0.3944910521266911,0.4699832446663636,0.5426318275653078,0.5985703735939861,0.6256071871620621,0.620985707195394,0.6064566790837409,0.6209592481759685,0.6899074481218997,0.8013805232592934,0.8862366689047533,0.8906859299735127,0.8339199443967796,0.7584793893746523,0.689581878291913,0.6284565952262195,0.5647477909041482,0.4942552499741327,0.4186234062944894,0.33732679295458257,0.23563257564185477,0.09125699257184018,-0.1141137755726459,-0.357399947263653,-0.5698853816959359,-0.7085985345848098,-0.7791035384962014,-0.796824201064078,-0.7630534332222384,-0.6841345357027486,-0.5955087428404766,-0.5489785753021428,-0.552691100024074,-0.5837730147839499,-0.6270345631475412,-0.6835033863420983,-0.7484597823120935,-0.7986046098340028,-0.8098637733753177,-0.7582211741523257,-0.6265281720646914,-0.4491115457068834,-0.30376688975024685,-0.2221176377810235,-0.19300908128092026,-0.1884612775900174,-0.16623927337707617,-0.03909192131364911,0.2401946683760912,0.4654746633926354,0.5816137505474946,0.6443479054981565,0.6852094974026852,0.7162998302980885,0.74371233081371,0.7673948179898618,0.7825665349698842,0.7871425901569026,0.7808008043940089,0.7571864203847928,0.7021194479956885,0.6171528275540274,0.5110940864514639,0.38242989216001283,0.2391410720844673,0.08857967267101215,-0.07836482239990349,-0.26661620728686614,-0.42190654629862456,-0.518456731664101,-0.5901103287571688,-0.6598599756497411,-0.7152707840286746,-0.720010663677721,-0.6772192526293167,-0.6242778966060483,-0.5809050847297396,-0.556828615817557,-0.5534809601625917,-0.5684596997631302,-0.6044025621311309,-0.661838129263032,-0.7300291056585736,-0.789008969294608,-0.8318018543406935,-0.8525626806956027,-0.8281400074265217,-0.7534550124309157,-0.6726626115534178,-0.6254413187988279,-0.615630902862665,-0.6221507893434012,-0.6095802169745762,-0.5277082188617745,-0.38368146447927265,-0.2445482122718476,-0.12361864691175298,-0.009950977181509314,0.10617870135651229,0.2335210717545656,0.3665411127277094,0.481134536542227,0.5641736412305928,0.6277855872674266,0.6760474679537929,0.7101402832698344,0.7355840797087365,0.7567939033991017,0.7763890134741959,0.7959057905829304,0.8131079191892407
