0.003258561489228654,0.00339860921354418,0.0013579186812561817,-0.0021165905572698533,-0.006131282111744364,-0.010185986713886173,-0.01377386556830956,-0.016421426692159534,-0.017861913691014124,-0.018188690891425028,-0.017555147540892827,-0.016168010997930637,-0.014480770425023767,-0.013100304232158109,-0.012313371634125323,-0.012046615239703358,-0.011733178739485527,-0.010719499502730104,-0.008552100711831661,-0.005264321772392995,-0.0014963805000027968,0.0018780944733710072,0.004385609107393442,0.006386286180518146,0.008767090909946153,0.012241602617448165,0.01665643205552359,0.021077927728735592,0.024265676106485994,0.025312698863804172,0.023958905841404737,0.0208778624903991,0.01716326755894134,0.013675419266206221,0.010794445268497037,0.008573691906746233,0.006979819775351014,0.006019495109447952,0.005732731779696342,0.006246237633210628,0.007660051461599,0.009780770146701576,0.012094887835004071,0.014002200581577084,0.014962525247480145,0.014789133179609872,0.013975523296150904,0.013275284674573272,0.01344200639234701,0.014529043020324478,0.016156262787242415,0.017803485374530036,0.01906391407037778,0.019497392182573483,0.01891052893783715,0.017536728980108073,0.015676100454290885,0.013695426201535865,0.011801454155155926,0.010387640326767552,0.009680735470053348,0.009340621684409337,0.008653719648064816,0.007279923805295695,0.005285912967307566,0.0026183453196239447,-0.0008561639189020908,-0.005337679163615041,-0.011086290573800296,-0.018302066268266325,-0.026791603128853245,-0.03509440722137682,-0.040963060243539955,-0.04226351926988683,-0.0378153298514088,-0.028025354539274808,-0.015294380308482734,-0.0032236316516009917,0.005039163508215246,0.00814021379455053,0.0063929565306146815,0.0013845943206983783,-0.004710802048219417,-0.00991255996936767,-0.012980262620180238,-0.01350044293875102,-0.011859886586599973,-0.008765506650361226,-0.005050915833863429,-0.0013029819082988738,0.0020714934765709266,0.004545664590030606,0.005766075300259098,0.005732731779696342,0.004518987304604425,0.0024316154320325723,-0.0005627314735419325,-0.004670788177560127,-0.01013263625799377,-0.01600128516519694,-0.02050947892982406,-0.02218337880253786,-0.020649523362171615,-0.016954939481003465,-0.012913575579054726,-0.009772511422060154,-0.007378370107399036,-0.005351019863808112,-0.004010564249633779,-0.004243976300500997,-0.007244991910188053,-0.01358046656510964,-0.0215498313370457,-0.027465160350044735,-0.028292110933696775,-0.02329708860098155,-0.014334055642579674,-0.004177289259375486,0.005032497273078672,0.012281616488107454,0.01760341602123358,0.02113794853472453,0.02323866028449746,0.02407894745338261,0.02385887116475651,0.022511748492453607,0.01995754758019537,0.016463033052323675,0.012655077909274184,0.009333951334312801,0.0072599168699660505,0.00676641383682145,0.008280262341858047,0.01231496000867021,0.01883050119651857,0.026906570995199393,0.0348492667116292,0.04122477992696984,0.04518612843247988,0.04665994249205738,0.046053068197031435,0.04403237595865717,0.041244778632379554,0.03811703871573821,0.03486927364695884,0.031748212310333944,0.02879387680644276,0.025752847326096413,0.022218314812605465,0.01781015572462657,0.012655077909274184,0.00728659004043227,0.0025583249251310038,-0.0007427922455247572,-0.002303320033365229,-0.00228331350953158,-0.0011896102349215401,7.081636229662289e-05,0.00035758006239463056,-0.001136258544541151,-0.004524073395116034,-0.009419061051183031,-0.015194345631834506,-0.02113635604521968,-0.026558190254994035,-0.030566210636380015,-0.03260023123006747,-0.03284698480411976,-0.03194667682924567,-0.030919665122217103,-0.03086631055136474,-0.03267358862128952,-0.03621478736991705,-0.03991603748622177,-0.04155661029821266,-0.03946922278879296,-0.03350720544007814,-0.024924304252939525,-0.015921257423878357,-0.008525423426405481,-0.0036904561648314236,-0.0014296914013973054,-0.0009695355922794243,-0.0010629007418231085,-0.00046936632399824835,0.001597999847731947,0.005099184314204183,0.009347287919545911,0.013281955024669808,0.015856158757297734,0.01664309135533052,0.015842822172064622,0.013588725289751065,0.009907477993816022,0.005312590252733747,0.0008910937565297535,-0.0026234285296635805,-0.004910867286555911,-0.005911205823118263,-0.005851189132089287,-0.005010901963204139,-0.003703793984552522,-0.002236630934759738,-0.000862833034510638,0.00013750558435091315,0.0008043977225946165,0.0017047028169967294,0.0034386226727074753,0.00629959220406299,0.009827450252497441,0.012815129276951385,0.014215602405146686,0.013528704483762128,0.011021187792259711,0.007513336679154907,0.004132189298204586,0.0014446147151913186,-0.0006961096707529153,-0.002410023002630012,-0.003723800508386172,-0.0045774238510084345,-0.004997565377971028,-0.005197634731267483,-0.005457720775592914,-0.005851189132089287,-0.006291337594381527,-0.006531416703377313,-0.006004574264629916,-0.004297326756393398,-0.0015697387142168354,0.0017313780449429298,0.005219225926182056,0.008573691906746233,0.01140798579865955,0.013161913412691933,0.012668414494507294,0.008720410804150288,0.0016380133068952419,-0.006151289047074009,-0.011513102450859425,-0.01262014189920658,-0.009632466989712596,-0.004090591579456364,0.0018914322930921055,0.006593021768951175,0.009013844483998433,0.008980496848475718,0.0069598128400213686,0.003705379478625437,-3.588639710520149e-05,-0.0036104292465048344,-0.006711479121344122,-0.009359040245194093,-0.012013271719140604,-0.015334394179142025,-0.019575827434387218,-0.024017330042928865,-0.027411809894152334,-0.028825623722540702,-0.028192076257048546,-0.026131378377934906,-0.023330432121544304,-0.020055989767338748,-0.016214691103726503,-0.011819872715940682,-0.007151627583636361,-0.0025033877406777,0.001831412310095161,0.005686051673900476,0.008820445480798515,0.010854466074485975,0.011774776869729744,0.0120281966789186,0.012374980814659148,0.013422003571977325,0.01517593118600971,0.01698320925593449,0.018043568598485785,0.017970207092303774,0.01668977557608635,0.014575727241080307,0.012141567940799937,0.009600707728734767,0.006966483190117903,0.004225553624756278,0.0014646212390249682,-0.0009428599528372277,-0.002556739431058089,-0.0029902191892377775,-0.0018565024554644427,0.0006043304267781423,0.0038921093662168094,0.0072265733494032945,0.010194241323567634,0.012695087664973514,0.01481580635007609,0.016576404314205012,0.018083582469145074,0.019444041726681082,0.02073781394309158,0.021904874197427673,0.022658463274897702,0.022178300941946172,0.019810832797751275,0.016062894345730765,0.012588386753188711,0.01143466308408573,0.013341975830658744,0.017336663741771577,0.02139803457904996,0.023832193879330332,0.0239522354913082,0.021818180220972514,0.018323661578140856,0.014449015279005897,0.010260932479653106,0.005439298099848195,-9.590671341390256e-05,-0.005764491040674171,-0.010419399587745381,-0.012986932970276773,-0.013086967646925,-0.011086290573800296,-0.007811852334554701,-0.00436401791247887,-0.0018298268160222462,-0.0008094813441302488,-0.0011295898404285998,-0.0024166917067425632,-0.004704131698122882,-0.008332024423205561,-0.013827216024201961,-0.021736559990149083,-0.032053377741030474,-0.04293038968114194,-0.050412909425150046,-0.05079971566146981,-0.04297038709196139,-0.029165737508184717,-0.01372051511241716,-0.001222954578476288,0.005652704038377759,0.0075200029142914815,0.007399961302313608,0.008380297018506275,0.011901488831804153,0.017616756721426652,0.023972242426637848,0.029013948980108898,0.031294727262808596,0.03042776280849727,0.026946584865858686,0.021804839520779443,0.015936186498616316,0.010214248258897279,0.005339267538159928,0.0018380810142077121,-0.0005093797831615431,-0.002656773284714324,-0.005451050425496378,-0.009078943150579057,-0.01278686773194028,-0.015567807053001235,-0.016914929725304135,-0.01700162370175929,-0.016454774327682248,-0.01614133371250446,-0.01671486037200768,-0.018275388982840146,-0.020296072991294493,-0.02205666684046345,-0.023263745080418792,-0.023970649937133,-0.02419738834593571,-0.023770580583836545,-0.022523492588181874,-0.020536152100290278,-0.018395430594818015,-0.016988287116526182,-0.016654839566018743,-0.017021630637088937,-0.0174017624083522,-0.017241706925715035,-0.015921257423878357,-0.013180331973476693,-0.009259005568545867,-0.004730808983549063,-0.00026929869898497717,0.003465298312149672,0.006186220942181651,0.008113536509124348,0.009767429446508505,0.011588048216626361,0.013682089616302755,0.01592951614851978,0.018163606095503694,0.020324338651265563,0.022658463274897702,0.025379385904929684,0.028453763020798745,0.03196161824886351,0.03589628946894737,0.0401644041245787,0.04422577907681705,0.04724015184653702,0.04826716355356559,0.04661323769650175,0.04191831527877125,0.03426906970202944,0.024432397824259735,0.013795460878184092,0.004132189298204586,-0.0032102938318798934,-0.007851862090254031,-0.010379385717086092,-0.01158645984208147,-0.012380062790210795,-0.013327050870880746,-0.014480770425023767,-0.01558781398833088,-0.016134663362407924,-0.015921257423878357,-0.015401081220267536,-0.015374408049801315,-0.01598794857996383,-0.016634832630689097,-0.01628804849494855,-0.014567468516438883,-0.01211330639578883,-0.00983253222804909,-0.007971903702231904,-0.00621798020315948,-0.004203962429841706,-0.0021632727205456994,-0.0009361908372286805,-0.0013496640715747197,-0.0036170979506173853,-0.007418383978058327,-0.011639810297973873,-0.015100981305282814,-0.016994957466622714,-0.016841572334082087,-0.014640825907660929,-0.010712833267593529,-0.005857855367225862,-0.0009361908372286805,0.0035053117713129667,0.007379958481943923,0.010827792904019754,0.013968852946054367,0.016763132967308393,0.018930535873166798,0.019897530889166393,0.01862376560808554,0.013455347092540081,0.003025149438361436,-0.011859886586599973,-0.027285102047037886,-0.03815544363705282,-0.04048289791058842,-0.033180428239667235,-0.018855585992439902,-0.0024366986420722085,0.011441333434182268,0.020391029807351035,0.02453243250090796,0.025212664187155946,0.023865537399893083,0.02137136140858374,0.018296988407674637,0.015155924250680063,0.012328296593903321,0.010107547347112479,0.008667060348257887,0.007900130570594783,0.007733408852821045,0.008106870273987774,0.009040517654464654,0.010741094812604638,0.013281955024669808,0.016563063614011938,0.020144280348258714,0.023432059287697378,0.02573950662590334,0.026313037400366526,0.02477918196000028,0.021378031758680277,0.016869837994053158,0.012128231355566827,0.007513336679154907,0.0030384872580825344,-0.0015764078298253828,-0.0063113445297111725,-0.010746176788156285,-0.014660832842990575,-0.017901927561673414,-0.020442787773738588,-0.022230058908333725,-0.02354383806007387,-0.024710898314409962,-0.02586462198351294,-0.02697833178195663,-0.027925319862626582,-0.02850551275726638,-0.028732259395989012,-0.029132393987621963,-0.030352804697850455,-0.03260023123006747,-0.03509440722137682,-0.03618144384935429,-0.034474200456077735,-0.029685913711795537,-0.022743564761848013,-0.015087644720049705,-0.008098615664306311,-0.0025634081351706404,0.0015846620280108488,0.005152534770096584,0.009180566201772171,0.014368991652647276,0.0206044357458806,0.02717332738962136,0.0330820025123637,0.03700332891729452,0.038123709065834746,0.03643646849292788,0.032881929044107285,0.02874052635055036,0.025132636445837363,0.02269180679546046,0.021271330846895472,0.020391029807351035,0.019410698206118328,0.017896849701081727,0.015922849913383205,0.01404888068737295,0.01260172333842182,0.011488013539978133,0.010314282935545507,0.008226907771005687,0.004832427919782217,0.0004909583419048127,-0.0038905238721438943,-0.007258328495421163,-0.009045599630016301,-0.009165641241994175,-0.008025254158124304,-0.006624781029929004,-0.0057511544554410595,-0.00572447717001488,-0.006224646438296055,-0.00642471579159251,-0.005917876173214799,-0.00510426628975583,-0.0048441802454304,-0.005497734646252204,-0.007011579036328843,-0.0089922491741239,-0.01091956885602656,-0.01237339244011426,-0.013100304232158109,-0.012993603320373309,-0.012240014242903276,-0.011032940117907897,-0.009605789704286414,-0.008318687837972452,-0.007351692821972855,-0.006904878124544041,-0.00686486425388475,-0.0067915068626627035,-0.0060112404997664905,-0.004223969365171352,-0.001963205013233229,-0.00029597437957677334,-0.00020260947693068692,-0.0018431646357433445,-0.004544076215485718,-0.007398377042728681,-0.009525761962967833,-0.010292691740630935,-0.009512425377734722,-0.00734502658683628,-0.004303997106489934,-0.0007094474904740135,0.0033652644584934365,0.0078801277502251,0.012588386753188711,0.01732999339167504,0.021878201026961454,0.02571283345543712,0.028520450061924257,0.030161006414075306,0.0305277974851455,0.029860906499090584,0.028287041303025007,0.02577952049656263,0.022631790104431483,0.019263979308714273,0.01577613101597915,0.012268275787914385,0.008687067283587532,0.005345933773296503,0.0026116762040153973,0.0006510125900539883,-0.0007828057046880522,-0.0018698402751855412,-0.002896854451190089,-0.004043909004684523,-0.005471057360826023,-0.007338356236739744,-0.00967914709550846,-0.01208662911036265,-0.013887236830190898,-0.014414083383898255,-0.013280366650124921,-0.01032603526119369,-0.005831178081799681,-0.0009228530175075823,0.0028184126154404184,0.0043255883014045055,0.0034519604924285736,0.0008510802973664585,-0.0022566378700893835,-0.004650781242230481,-0.005497734646252204,-0.004697465462986307,-0.0031302665020573077,-0.0016897790917067199,-0.0009295221331161295,-0.0009695355922794243,-0.001463036156448049,-0.002103252326052759,-0.002676779808547974,-0.0032369694713220904,-0.003790490018487659,-0.0043906910829450896,-0.0052509851871598845,-0.006658124550491759,-0.00935236989509756,-0.01514766552603864,-0.02535111612999865,-0.03824214172846793,-0.04885239315919747,-0.05226690463551034,-0.047151803656177604,-0.03589468051960268,-0.022670207370625965,-0.011419738124307735,-0.004310667456586469,-0.0016164208774926813,-0.002303320033365229,-0.004810836724867645,-0.007685140372480292,-0.0103393718464268,-0.012766860796610633,-0.014894245716849787,-0.016308055430278197,-0.01642809704225607,-0.01486090219628703,-0.011813202365844148,-0.008071938378880131,-0.0042773198210637525,-0.0010228868711638175,0.0015179725179093613,0.0034052779176567314,0.00495246953176009,0.006773084186917984,0.00929393746365351,0.012374980814659148,0.015556058842313014,0.01852373093143731,0.021598103932346416,0.02542607012568551,0.029994284696301565,0.03486927364695884,0.039304110020363915,0.042898663339843796,0.04617976781422596,0.04988105085021038,0.05420249950189427,0.05813718306685801,0.06003784192317433,0.058610691509552844,0.05363566376728739,0.046299842345883524,0.03856385752812699,0.03171486878977119,0.026159652267825895,0.021531416891220904,0.016749796382075285,0.010414317612193734,0.0013512495656476345,-0.009892553034038026,-0.02050280857972752,-0.026944988261393875,-0.027218415005912378,-0.021696546119489794,-0.012573461793410715,-0.0026234285296635805,0.005852773391674214,0.011474676954745022,0.013435340157210434,0.011494683890074669,0.006726404081122119,0.0014979659940757117,-0.0014563670408395022,-0.0004026771430935577,0.004985813052322845,0.013221934218680871,0.021504739605794722,0.027079963063069666,0.02807363124953548,0.02414563449450812,0.01660307748467123,0.007820106944236163,-0.0001159134841451496,-0.006171295982403654,-0.01053277084962672,-0.013713844762320624,-0.016188017933260284,-0.01816868807105534,-0.019422442301846587,-0.019629182005239578,-0.01873554438046203,-0.017061644507748226,-0.015167672461368286,-0.013600473500439287,-0.013066960711595356,-0.014367399163142428,-0.01782857017045137,-0.022656870785392854,-0.027411809894152334,-0.03068625224835789,-0.03169326113501678,-0.0308062897453758,-0.028772269151688342,-0.02601800300109361,-0.02321039462452639,-0.021089671824463856,-0.0202027086647428,-0.020656193712268154,-0.02188327888755314,-0.022943634115144468,-0.023043664676832734,-0.021656532248830504,-0.01891560679842884,-0.015227693267357222,-0.011226339121107815,-0.007271669195614234,-0.0038371725932595012,-0.0013429953674621684,7.081636229662289e-05,0.0003642490134047793,-0.0003893393233724594,-0.0019231915540699343,-0.003730469623994719,-0.005511071231485314,-0.0073250196515066346,-0.009232332398079647,-0.01102626976781136,-0.012380062790210795,-0.013360394391443502,-0.014467433839790655,-0.016087983256612058,-0.017901927561673414,-0.019109005801628758,-0.019189029427987378,-0.018175354306191917,-0.016121326777174812,-0.012713510340718234,-0.007831855154924384,-0.0016297591087097757,0.004992483402419381,0.010727758227371527,0.014495699499761722,0.015662759754097814,0.014082224207935704,0.010140890867675232,0.004859105205208398,0.00017751912581340722,-0.0017164551426449128,-0.0002759676088455263,0.0028384195507700637,0.005399288344148864,0.006152873306658936,0.005205889340948945,0.0036453590841324965,0.002585000153077204,0.002738385697113829,0.004078839253808182,0.006026165459544488,0.007706735682354826,0.008673726583394461,0.0091138750456867,0.009574034558268546,0.010334289870875153,0.011261271016215458,0.011928162002270372,0.011814790740389035,0.01064106013595641,0.00862037612750206,0.006232901047977517,0.004018818859315241,0.002418277200815478,0.0017647227999936736,0.001998135262356888,0.0027783995677731197,0.0036520281997410443,0.004445629913382379,0.005179212055522765,0.00611952978609618,0.0075200029142914815,0.009347287919545911,0.011421326498852621,0.013515367898529019,0.015322645968453803,0.016649761705427056,0.017189944844367522,0.016649761705427056,0.014895834091394673,0.012081547134811002,0.008587032606939304,0.005345933773296503,0.003572000869918458,0.004152196233534232,0.006986490125447549,0.01134129875753404,0.01617626972257206,0.020591095045687527,0.023812186944000686,0.025459413646248267,0.02587955517321086,0.025886225523307396,0.026453085947674045,0.028300377888258118,0.031834910401749066,0.03682326649932771,0.04221841930871593,0.046913382876046045,0.05028785579193987,0.05168830011541544,0.050521256320919194,0.046513244169453134,0.04100469129346385,0.036476482363587165,0.03467587052879896,0.03551615769768411,0.03729675848218271,0.0373967972737909,0.033282067750700195,0.024479082045015556,0.013201927283351227,0.0030184807342488853,-0.003250307291043188,-0.004977558442641384,-0.0037638143790454624,-0.0025834146590042895,-0.004824173310100755,-0.013247023129562165,-0.02807870499516721,-0.0458113554489312,-0.06085647205778553,-0.06877246168406942,-0.06849906374427066,-0.062203586500168516,-0.05314717687033506,-0.04409076724050161,-0.036848334835409204,-0.03265358168595988,-0.031719934305483,-0.03316709165443413,-0.0357012774014428,-0.03798872191927907,-0.03900239704107454,-0.03843554073166785,-0.03656824185575413,-0.03401404505845585,-0.031459848261157566,-0.029139060222758535,-0.027151723849826902,-0.025724573436205423,-0.025077689385480155,-0.02530443190924283,-0.02593130902463845,-0.026231413054583135,-0.025757916956768177,-0.02443747156989146,-0.02233676393507849,-0.01944911958727277,-0.01586124073284938,-0.012126642981021939,-0.008838864041583273,-0.006384701920933219,-0.004904201051419336,-0.004484059524456743,-0.004757482154015283,-0.004904201051419336,-0.004050577708797074,-0.0018031507650840537,0.0011711887936648097,0.00401215015520269,0.006452977336603618,0.008573691906746233,0.010280939414982752,0.011394649213426441,0.011981516573122734,0.012261609552777811,0.01249502242663702,0.012515029361966665,0.012074880899674427,0.011174572924800341,0.010247595894419996,0.009634051249297523,0.009520679987416184,0.009807443317167796,0.010380974091630978,0.011194579860129986,0.01222159568211852,0.013281955024669808,0.013928839075395076,0.014002200581577084,0.013542041068995238,0.012748442235825877,0.011754769934400097,0.010747765162701173,0.009867464123156732,0.009053858354657725,0.007866787050032027,0.005846103041577679,0.002958460339755945,-0.0003426568720494162,-0.0030769152231729146,-0.00393053733130719,-0.002276644393923033,0.0014246077798616731,0.006092852500669999,0.010481004653319246,0.013722103486962046,0.015709443974853642,0.01706990323238965,0.018336998163373967,0.019223965438054984,0.018723796169773807,0.01614959243714588,0.011901488831804153,0.007206566414073649,0.003311913179609044,0.001011134545515634,0.00043093835890786845,0.0009977967257945358,0.0021648582146186145,0.0036720351350706896,0.005319260602830283,0.006919798969362077,0.008507004865620723,0.010100876997015942,0.011568041281296714,0.012808463041814813,0.013848815449036454,0.014769122129320265,0.015482697336131005,0.015689437039523996,0.015015875703372546,0.01334864206579532,0.010847795724389438,0.0077934296588099816,0.004258901260278994,-0.00019594056707013778,-0.006177962217540228,-0.01417400427490247,-0.02395730923693993,-0.03332047678697475,-0.039209132629507565,-0.03933584459158197,-0.03380730535506286,-0.02477758947049543,-0.015287709958386199,-0.007718483893043048,-0.0032969898658150305,-0.0020899145063316606,-0.003383685899750167,-0.006151289047074009,-0.009499088792501612,-0.012913575579054726,-0.015927927773974893,-0.018288725568073254,-0.019775896787683673,-0.0202027086647428,-0.019755889852354026,-0.018902266098235768,-0.017928604847099596,-0.01686824550454831,-0.015247696087726907,-0.012613475664070006,-0.008545430361735126,-0.0027768136622042085,0.004692379372474699,0.013188590698118115,0.021571426646920234,0.02868050554456142,0.0336088449511111,0.035922962639413594,0.03600966073082871,0.034809252840969904,0.03337543207725189,0.03275522119699284,0.03351547650959944,0.03584960524819154,0.03953085254412659,0.043798975429677846,0.04746688614037977,0.049427541112925265,0.049220805524492234,0.046666608727193956,0.04183165422199578,0.0348492667116292,0.026106297696973535,0.016222949828367927,0.006032835809641023,-0.0034103615391923637,-0.011092960923896833,-0.016461444677778783,-0.019562490849154106,-0.020416110488312406,-0.019402435366516944,-0.01710165837840752,-0.014073969598254242,-0.010992926247248605,-0.00873216312979847,-0.008178639290664933,-0.009792518357389798,-0.013400408262102792,-0.01816868807105534,-0.022916956829718286,-0.026631547646216083,-0.028258767413134017,-0.027218415005912378,-0.023603858866062807,-0.018382089894624948,-0.012726846925951343,-0.00757843946069549,-0.003463712818076757,-0.00019594056707013778,0.0026250140237364956,0.005452638800041265,0.00841364053906903,0.011561370931200179,0.015022546053469081,0.018730466519870342,0.02237169994514609,0.025526104802333735,0.027386733328150923,0.026846550189210457,0.023058601981490612,0.015942856848712852,0.006526334727825663,-0.0032102938318798934,-0.011239675706340926,-0.016608159460222878,-0.019809240308246427,-0.02210335106121928,-0.025144380541565623,-0.030266110721395297,-0.03740852490967932,-0.04450423841736767,-0.04845892068774113,-0.04683836715595977,-0.03939586128261095,-0.028192076257048546,-0.016381416936460204,-0.006924885059873685,-0.0011762724152004419,0.0011911953174984589,0.001557986388568652,0.0008644181170875569,-0.0007361231299162102,-0.0038438412973720525,-0.00897891258889079,-0.015914591188741785,-0.024150708240139845,-0.03386065992591522,-0.04465097788957153,-0.05419418728277336,-0.05910917775921004,-0.057141856551527974,-0.048585620304935656,-0.03575463197229516,-0.02175656692547873,-0.009599119354189879,-0.0010562316262145612,0.003658696903853595,0.005465975385274376,0.005652704038377759,0.005285912967307566,0.0049658061169931995,0.004925792246333909,0.005212555576085519,0.005786082235588743,0.006579685183718065,0.007586694070376953,0.008933816742679852,0.01088780959504873,0.013682089616302755,0.017129924038378586,0.02069780007243229,0.023712152267352456,0.02571283345543712,0.02673317892732912,0.027186668089814427,0.02784688872577281,0.02932739371024665,0.03156148365723056,0.03407567069882952,0.0361030250573804,0.03694330811130559,0.036476482363587165,0.03525606753839872,0.034042323063306804,0.03350881027446287,0.03389560828086271,0.034789245905640254,0.03518938049727321,0.03394896285171507,0.0305277974851455,0.02498591754843331,0.018263640772151923,0.011721426413837343,0.006426300051177437,0.0027783995677731197,0.0005776543758399496,-0.0006427583918685221,-0.00132965754774107,-0.0018698402751855412,-0.002496719036565149,-0.0031702799612206025,-0.0039438755625242836,-0.004924207986748982,-0.005951219693777553,-0.006838186968458569,-0.0075517621752693095,-0.008038594858317375,-0.008618791867917133,-0.00957244618372366,-0.010879554985367267,-0.012066622175033003,-0.012653489534729296,-0.012660155769865872,-0.01234671515468808,-0.01194658056305513,-0.011473088580200134,-0.010739506438059748,-0.009799188707486334,-0.008852200626816383,-0.00808527496411324,-0.007685140372480292,-0.007745161178469229,-0.007751831528565764,-0.0067981730977992785,-0.003957213382245381,0.0009044315762508516,0.00724657616977298,0.013768787707717873,0.01905057748514467,0.02200491298903586,0.02211828013595724,0.019844176318314033,0.016069564695827297,0.011688082893274589,0.007426638587739788,0.004065501434087083,0.0018580875380413615,0.0006710195253836336,0.00023087052814659917,0.00010416099389856782,-2.9217470784812503e-05,-0.00042268374922640626,-0.0014963805000027968,-0.0038438412973720525,-0.007958567116998794,-0.013873900244957788,-0.021123015345026613,-0.028352127624725748,-0.03371394102851116,-0.03588134393436957,-0.03472094991517006,-0.030919665122217103,-0.025831274347990225,-0.020949627392116296,-0.0172883870315109,-0.015007616978731124,-0.013613814200632356,-0.012380062790210795,-0.010646142111508057,-0.008025254158124304,-0.004430704953604381,5.080959156537585e-05,0.0049658061169931995,0.009634051249297523,0.013648746095739999,0.016949861620411778,0.019597426859221712,0.021511409955891257,0.02267847021022735,0.02332535837591258,0.023865537399893083,0.024432397824259735,0.024792522660193352,0.02457244637156725,0.02361212170566419,0.02200491298903586,0.01991753370953608,0.01745670123878949,0.014822476700172628,0.01227494613801092,0.009907477993816022,0.0075733533701838815,0.005292583317404102,0.0030718316016372822,0.0008910937565297535,-0.001042893806493463,-0.0025767459548917387,-0.0035904223111751883,-0.003983889021687578,-0.0036971248689439754,-0.0029968878933503283,-0.0022899822136441313,-0.0019031846187402886,-0.0021232592613824046,-0.0028635096961393456,-0.0039038612803689965,-0.0046241039568043,-0.00459743078633808,-0.0035837536070626374,-0.0014563670408395022,0.0011778574977773608,0.0034386226727074753,0.004592344695826471,0.004478973433945134,0.0037187172983465353,0.0033519266387723383,0.0039854745157604935,0.005312590252733747,0.00615954365675547,0.0053526041233930375,0.0020781621806834774,-0.0036304357703384835,-0.011359717318318798,-0.020656193712268154,-0.03089298783679092,-0.04048289791058842,-0.04683170092082319,-0.047885418717997674,-0.04331052968232513,-0.034660929109181116,-0.02447748544055075,-0.014987610043401477,-0.007311678951313565,-0.0013696710069043651,0.003091838536966928,0.006519664377729129,0.009160559266442526,0.010987844271696958,0.011928162002270372,0.011801454155155926,0.010501011588648891,0.00856702567160966,0.007199896063977114,0.007413302002506679,0.009300607813750045,0.011994853158355844,0.014235609340476333,0.015322645968453803,0.015382666774442739,0.014869156805968491,0.014409005523306567,0.014542379605557591,0.015636086583631595,0.017643429891892874,0.019897530889166393,0.02116462582015071,0.019924204059632612,0.015102569679827703,0.006906462384128968,-0.003010225713071427,-0.011886563872026154,-0.017108328728504055,-0.01748178603471082,-0.013713844762320624,-0.007931889831572612,-0.0024433677576807555,0.000957783266631241,0.00151130381379681,-0.00037600146250176155,-0.0037971587226002103,-0.007278335430750809,-0.009339033309864448,-0.009345703659960984,-0.007831855154924384,-0.006298003829518102,-0.0056711267141224785,-0.005771161390770706,-0.005551085102144606,-0.004404031783138161,-0.0028034893016464055,-0.0022499687544808365,-0.004030571184963424,-0.0073716997573025,-0.009965914540220033,-0.00966581051027535,-0.005464391125689449,0.002138182575176418,0.011394649213426441,0.01971079812110305,0.024579116721663786,0.02520599795201937,0.022511748492453607,0.018203619966162987,0.014002200581577084,0.011214586795459633,0.010314282935545507,0.010747765162701173,0.011508020475307778,0.011741433349166988,0.010907816530378374,0.008940487092776388,0.006426300051177437,0.004112183597362929,0.002364925921931085,0.0008510802973664585,-0.0010162181670512664,-0.003870516936814249,-0.008191979990858004,-0.014780874454968448,-0.02406401014872473,-0.03477430037106245,-0.04381070306556626,-0.047792050276486024,-0.04523118724405117,-0.0372684763623718,-0.026558190254994035,-0.01604129903585623,-0.008171973055528359,-0.0038638482327016978,-0.0027167932677112684,-0.0038505104129805995,-0.006464729662251801,-0.009792518357389798,-0.013000273670469844,-0.015354401114471672,-0.01657481182470016,-0.016581482174796696,-0.015154331761175217,-0.012320041984221857,-0.00844539980004686,-0.004317333691723043,-0.0007027787863614625,0.0020381487215201826,0.003998812335481591,0.005599353582485358,0.007439975172972899,0.009754092861275395,0.01260172333842182,0.016029550825168007,0.01973747540652923,0.023432059287697378,0.02697992838642144,0.030421096573360694,0.033702209277662785,0.03644980919312095,0.03811703871573821,0.03849050013690494,0.0380503516746127,0.037956987348061015,0.03897733281995301,0.0408046219401674,0.04239182372146608,0.042465193457568016,0.04053119519564889,0.03692330117597594,0.03218169453748961,0.026666487771243644,0.020571092225317843,0.013942179775588148,0.007139875257988177,0.0009911276101859886,-0.0036637801138932314,-0.006631451380025539,-0.008292014667506231,-0.00918564817732382,-0.00961246005438295,-0.009599119354189879,-0.009399054115853385,-0.009485748092308541,-0.010539437084763296,-0.01285355477306579,-0.016134663362407924,-0.01946245617250588,-0.02202998955503727,-0.02343713303332911,-0.02376391023374001,-0.023310425186214657,-0.022423457911533645,-0.021376435154215466,-0.02023605218530556,-0.018822242471877144,-0.01667484650134839,-0.013533786459313775,-0.009599119354189879,-0.0056377831935597224,-0.0025834146590042895,-0.0013163197280199718,-0.0020365632274472675,-0.0038038278382087573,-0.0046241039568043,-0.0023500026081370714,0.004045494498757437,0.01384214509893992,0.02484587311608575,0.03421571513117708,0.039804279288645085,0.04075793360445161,0.03769023095363905,0.0323150727347006,0.026092961111740424,0.019990895215718084,0.01429563014646527,0.008980496848475718,0.003872102430887164,-0.001049562510606014,-0.005571092037474251,-0.009265675918642403,-0.01171317180415588,-0.012873561708395436,-0.01304695377626571,-0.01288023205849197,-0.012660155769865872,-0.012473427116762487,-0.012273357763466032,-0.012313371634125323,-0.01285355477306579,-0.014153993224612863,-0.01627471190971544,-0.018888929513002656,-0.021523154051619517,-0.023843937975058592,-0.02569789615077924,-0.02686496052007529,-0.027325115917697176,-0.027351793203123358,-0.027491837635470917,-0.027805278250648706,-0.028232090127707835,-0.028578874263448382,-0.028638890954477362,-0.028018684189178272,-0.026491503213868523,-0.024350773478476345,-0.021976639099144872,-0.019575827434387218,-0.01704830792251512,-0.014240691316027981,-0.011119634094363052,-0.007925223596436038,-0.004930874221885557,-0.0023966851829089137,-0.0005227176028826415,0.0007710533790398688,0.0017780606197147718,0.002871764305820808,0.004398945692626552,0.006626369404473891,0.009567364208172011,0.013068549086140243,0.016609747834767766,0.019450707961817658,0.020904539775825282,0.020891199075632208,0.019864183253643676,0.01819695373102641,0.015989536954508717,0.013702096551632402,0.01176811063459317,0.010414317612193734,0.009073865289987371,0.006773084186917984,0.002831750435161517,-0.0022166239994300925,-0.0067981730977992785,-0.009319026374534804,-0.008998919524220435,-0.006184632567636765,-0.0022032861797089943,0.0016313446027826906,0.0044056160427230874,0.005786082235588743,0.006072845565340354,0.006032835809641023,0.006259578333403698,0.006939805904691722,0.007726742617684471,0.008093529573794703,0.007600030655610063,0.006206227877511297,0.004285574430745215,0.0024582906599787727,0.0011578509739437113,0.0006710195253836336,0.0011778574977773608,0.0024916354150295167,0.004345595236734151,0.0064796505070698375,0.008466990994961432,0.009867464123156732,0.010594380030160545,0.011021187792259711,0.011514690825404315,0.012268275787914385,0.013415333221880791,0.014869156805968491,0.016216283593231354,0.017129924038378586,0.01726330223558957,0.016269634049123752,0.014148915364021178,0.01132796217230093,0.00836029008317663,0.00567938132380394,0.0035053117713129667,0.0019181079325343018,0.0009111006918593988,0.0002842219304797912,-9.590671341390256e-05,-0.0001759337551892911,-2.5417790826244286e-06,0.00017751912581340722,0.0001908569866841051,7.081636229662289e-05,-0.0003359879210392674,-0.0011495963642622492,-0.002276644393923033,-0.0034103615391923637,-0.004030571184963424,-0.0034570437024682094,-0.0013696710069043651,0.002104837820125674,0.0068130980575772755,0.012341637294096392,0.01765010024198941,0.021818180220972514,0.02438571771846387,0.025286021578377994,0.02491256015721126,0.02373882955277864,0.022218314812605465,0.020417707092777213,0.018256974537015348,0.015676100454290885,0.012575050167955602,0.00903385141932808,0.005025826922982137,0.0006776886409921808,-0.0035904223111751883,-0.007158293818772935,-0.009419061051183031,-0.010332705611290226,-0.010632805526274948,-0.011793195430514502,-0.015641164444223282,-0.022476808367426045,-0.03033279776252081,-0.03617477761421772,-0.037641937783538526,-0.03416075984089994,-0.026938317911297336,-0.018162017720958806,-0.010025931231249008,-0.00393053733130719,-0.0004160150451138552,0.0008110668382031637,0.0008177359538117109,0.0007843911987609672,0.0011911953174984589,0.0013445804500390873,0.00013750558435091315,-0.0031836177809417008,-0.008138629534965603,-0.01274685386128099,-0.01487423878152014,-0.013513779523984129,-0.00943239763641614,-0.004677458527656662,-0.0008561639189020908,0.001097830579450771,0.0009511141510226938,-0.000862833034510638,-0.0033169963896486796,-0.005404370319700513,-0.006671465250684831,-0.007311678951313565,-0.0076051126311617095,-0.007765168113798874,-0.007845195855117455,-0.007771838463895409,-0.007438390913387972,-0.006824850383225458,-0.005931212758447909,-0.00483084366019729,-0.003463712818076757,-0.0017898129453629552,8.415422316732079e-05,0.001871425769258456,0.003325250999330142,0.004312251716171395,0.004919121896237374,0.005439298099848195,0.0061662140068520065,0.006933139669555149,0.007293260390528806,0.006979819775351014,0.005906123847566616,0.004192210104193523,0.0025383179898013585,0.0013179048105968908,0.0009644519707437921,0.0017513849802725755,0.003738724233676181,0.006626369404473891,0.01000751267046425,0.013288625374766343,0.015716110209990215,0.01644969646709056,0.014769122129320265,0.010454331482853024,0.003745392937788732,-0.004504066459786388,-0.012546784507984535,-0.01829539591816979,-0.020162694794083513,-0.017741876193996215,-0.011979928198577848,-0.004617437721667726,0.002738385697113829,0.009327280984216264,0.014769122129320265,0.018957209043633017,0.021844853391438736,0.023398715767134624,0.023698815682119345,0.02313195937271266,0.022571769298442547,0.022858532628194157,0.02414563449450812,0.02582620471731846,0.026899900645102857,0.026379728556451997,0.023685479096886237,0.018783816975762743,0.012428331270551547,0.006226230697880982,0.0017780606197147718,-0.00012258239400569877,9.749208403801869e-05,0.0013979321404194768,0.002504973234750615,0.0024649597755873197,0.0013112361064843397,-0.0003159811503080204,-0.0017564686018082076,-0.002610090709942482,-0.0030635774034518163,-0.0036971248689439754,-0.00510426628975583,-0.007498411719376909,-0.010366049131852982,-0.013020276490839528,-0.015167672461368286,-0.01671486037200768,-0.01753513649060322,-0.0172883870315109,-0.01596127129453765,-0.014107313118816998,-0.012486763701995597,-0.011573123256848361,-0.012073292525129538,-0.015054301199486949,-0.021049662068764522,-0.028705582110562834,-0.03480097765648864,-0.03644152989367972,-0.033073727327882434,-0.02684495358474565,-0.02094295704201976,-0.01772186925866657,-0.017775219714558966,-0.019615841305046507,-0.020989637147815626,-0.019869261114235363,-0.015641164444223282,-0.00940572446594992,-0.003090253042894013,0.0018914322930921055,0.0053859476439557935,0.007913471270787854,0.00978743638183815,0.011441333434182268,0.013288625374766343,0.01529596868302762,0.017076573582486185,0.0179101904012748,0.017156601323804768,0.014355650952454205,0.009313944398983155,0.002571662744852102,-0.0047241386334525275,-0.011379724253648443,-0.016554809004330477,-0.02006933046753182,-0.022016652969804158,-0.022750235111944548,-0.02238344404087435,-0.020716214518257087,-0.017715198908570033,-0.013693837826990978,-0.009345703659960984,-0.005237644486966814,-0.0020098875880050714,0.00025087729887784624,0.0021781960343397124,0.004585678460689897,0.008280262341858047,0.013548711419091771,0.019910867474399505,0.02639973549178164,0.031834910401749066,0.03527607858868832,0.03669655865221327,0.0367565794582022,0.03638311803703548,0.036443138843024414,0.03734344270293854,0.03906402679640816,0.04131814836848149,0.0435122038700063,0.04476594987087763,0.04430581504805555,0.04189831657336152,0.037856952671412786,0.03284858552354453,0.027533448110595014,0.02211161390082066,0.016236290528560997,0.009894141408582913,0.003592007805248104,-0.001729792962366011,-0.0053976999696039776,-0.007391706692632146,-0.008111952249539423,-0.00801858792298773,-0.0076051126311617095,-0.007471734433950728,-0.008332024423205561,-0.010539437084763296,-0.013600473500439287,-0.016694853436678037,-0.019008971124980532,-0.020129351273520755,-0.020389437317846187,-0.020436121538602012,-0.020669530297501258,-0.021016314433241808,-0.020896276936223895,-0.0199292819202243,-0.018148681135725698,-0.01587457731808249,-0.013287037000221455,-0.010286021390534401,-0.006811513797992348,-0.0031502734373869534,0.0002442083890172971,0.0030384872580825344,0.005292583317404102,0.0070331743462033755,0.008220241535869111,0.00860703954226895,0.007940144441254075,0.006059508980107243,0.0029184464690966538,-0.001222954578476288,-0.005791168326100352,-0.01021933023444893,-0.01404729231282806,-0.017094988028310984,-0.01892894338366195,-0.019402435366516944,-0.018748880965695137,-0.0174017624083522,-0.015687848664979107,-0.013940587286083298,-0.01217999343691434,-0.01031269456100062,-0.008385378994057923,-0.006638121730122075,-0.005371022684177796,-0.004784159439441464,-0.004730808983549063,-0.0045774238510084345,-0.003897192576256445,-0.0026034215943339352,-0.0006427583918685221,0.0019181079325343018,0.004959135766896664,0.008280262341858047,0.011788113454962853,0.015489367686227542,0.01917061498216258,0.022231655512798536,0.023992249361967494,0.024072277103286074,0.02254509201301637,0.019970888280388437,0.01698320925593449,0.013948846010724722,0.011127892819004476,0.008813775130701978,0.00703984058133995,0.005479311970507486,0.0037587307575098305,0.0016113376674530453,-0.0009428599528372277,-0.003510394981352603,-0.005457720775592914,-0.006544753288610422,-0.007178300754102581,-0.007938560181669147,-0.00940572446594992,-0.012133313331118474,-0.016888252439877953,-0.02395730923693993,-0.03252020348874889,-0.040356190063473976,-0.04505111659616444,-0.04474434633108318,-0.03886234849376702,-0.02831211786902642,-0.015474442726449543,-0.0036237670662259327,0.004438959563285843,0.007620037590939707,0.00703984058133995,0.005532662426399887,0.005699388259133586,0.008560355321513124,0.013295291609902917,0.01778347843920039,0.019870853603740215,0.018610424907892466,0.014949184547287074,0.010721087877274991,0.007546680199717661,0.005866109976907324,0.004905785311004263,0.0037320551180676335,0.001784729735323319,-0.0007694678849669539,-0.003290320750206483,-0.005204300966404058,-0.0061246117616478276,-0.005804504911333461,-0.00418395549451206,-0.001583076533937934,0.0014912968784671645,0.004705715957707808,0.007860120814895453,0.010521018523978536,0.012241602617448165,0.012808463041814813,0.012121561005470292,0.010167568153101414,0.007253246519869514,0.004338929001597576,0.0026316831393450426,0.0027650617480520214,0.004458966498615488,0.006819768407673811,0.008747083974616507,0.009667398884820239,0.00970741275547953,0.00954068692274583,0.009807443317167796,0.010947830401037665,0.013001857930054771,0.01543601723033514,0.01744336465355638,0.018250304186918812,0.01762342707152319,0.01587616569262738,0.013602061874984174,0.011094545183481758,0.008573691906746233,0.006099522850766535,0.0037120485942339844,0.001644682422503789,0.0002775529794696424,-0.0004360219804435006,-0.0005960758170966801,-0.0005960758170966801,-0.0008428260991809926,-0.0016164208774926813,-0.003343672029090876,-0.0065380870534738475,-0.010972919311918959,-0.015361071464568206,-0.01815534737086227,-0.018455451400806955,-0.01646811091291536,-0.013400408262102792,-0.011072953988567186,-0.010819534179378332,-0.01237339244011426,-0.01446076760465408,-0.015661171379552925,-0.015381078399897852,-0.013873900244957788,-0.0114130677742112,-0.007971903702231904,-0.0032236316516009917,0.003025149438361436,0.010067533476453186,0.016636425120193945,0.021531416891220904,0.024165641429837768,0.02484587311608575,0.02419898906536048,0.02274515725135286,0.020797830634120558,0.018390352734226328,0.015489367686227542,0.012374980814659148,0.00951401375227961,0.007173218778550933,0.005099184314204183,0.002878433009933359,0.00025087729887784624,-0.0027634758424831102,-0.006444722726922155,-0.011246346056437461,-0.01705497415765169,-0.022576843044074275,-0.025557851718431685,-0.02411069436948056,-0.017641841517347986,-0.0073716997573025,0.0039187850056590055,0.013321968895329099,0.018937206223263333,0.02043771402810686,0.018510394346204204,0.014375657887783852,0.008733747389383397,0.0018580875380413615,-0.005044249598726854,-0.009325696724631339,-0.008138629534965603,-0.0005160488987700904,0.011841463910855256,0.025479420581577913,0.0370099951524311,0.04422577907681705,0.04628646872601076,0.04372560569357591,0.03786361890654936,0.0301676808791318,0.02200491298903586,0.014495699499761722,0.008126877209317419,0.0030584937819161835,-0.0007027787863614625,-0.0034303684745220094,-0.005804504911333461,-0.008538764126598552,-0.011813202365844148,-0.015541129767575055,-0.019649188940569225,-0.02427074985211772,-0.029299115705395697,-0.03408739833471793,-0.037441868430242074,-0.03836217922548584,-0.03688167835597196,-0.0341540894908034,-0.03171326395538646,-0.030359475047946987,-0.02997267704154715,-0.0300993848886616,-0.03030612459205459,-0.030319461177287694,-0.029945999756120972,-0.028872303828336568,-0.026824946649416002,-0.023883951845717885,-0.0202560591206352,-0.01664817333088217,-0.013587136915206176,-0.011132974794556124,-0.008878877912242563,-0.006444722726922155,-0.0038238347735384025,-0.0013696710069043651,0.0006443438859414371,0.0020181417861905374,0.0027984060916067693,0.003391940097935633,0.0038254202676113176,0.003778737692839476,0.003045155962195086,0.0020915000004045757,0.0017580536843851266,0.0026183453196239447,0.004885778375674618,0.008046849467998838,0.011181243274896877,0.013502027198335946,0.014202265819913577,0.012621730273751467,0.009000503783805363,0.00453899423993407,0.0007243708042680269,-0.0012096167587551895,-0.0006160827524263256,0.002591669268685752,0.0076800583969286445,0.013288625374766343,0.018190283380929876,0.021418041514379607,0.022525085077686722,0.02147139608523197,0.018497053646011133,0.014215602405146686,0.009807443317167796,0.006613028704280821,0.005626030867911539,0.006573014833621529,0.007726742617684471,0.007353281196517742,0.004705715957707808,1.7464988768150636e-05,-0.00558442862270736,-0.010832870764611442,-0.014694176363553331,-0.016541468304137406,-0.016528131718904295,-0.015554470467768124,-0.014520784295683056,-0.013873900244957788,-0.013593807265302713,-0.013813879438968852,-0.015000946628634586,-0.017275050446277793,-0.020075996702668394,-0.022403450976203998,-0.023050335026929266,-0.020522815515057167,-0.014087306183487353,-0.00436401791247887,0.007126538672755068,0.018296988407674637,0.027540122575651513,0.034042323063306804,0.03789029619197554,0.03965089415610446,0.04008437638326012,0.03960420993534863,0.0383637922897905,0.03650315964901335,0.034142357739955026,0.031181351885967303,0.02773351746389147,0.02413896825937155,0.0209312129462915,0.018490383295914598,0.017023223126593785,0.016322984505016153,0.01578947171617222,0.014889163741298136,0.013615402575177243,0.01201486009368549,0.010440990782659955,0.009107208810550126,0.007866787050032027,0.006259578333403698,0.0038254202676113176,0.0005243030969555565,-0.003337003324978325,-0.0071382868834432905,-0.010145972843226882,-0.011746515324718636,-0.011673157933496589,-0.010306028325864044,-0.008725492779701935,-0.008025254158124304,-0.008598784932587486,-0.010392722302319203,-0.012806874667269924,-0.015020953563964233,-0.01627471190971544,-0.016294718845045086,-0.015294380308482734,-0.013633817021002043,-0.011793195430514502,-0.009999258060782789,-0.00848540955574619,-0.007318349301410099,-0.006584767159269713,-0.006304674179614637,-0.006144618696977473,-0.005704470234685234,-0.004704131698122882,-0.0031302665020573077,-0.001049562510606014,0.0011978644331070063,0.003458629608037121,0.005519325841166777,0.0069598128400213686,0.0075733533701838815,0.00749332974382526,0.006833104992906921,0.005492652670700557,0.0036720351350706896,0.0016980337013881822,-7.589994268265553e-05,-0.0013029819082988738,-0.0019298606696784815,-0.0025367324957284434,-0.003817165657929856,-0.006211309853062946,-0.009452404571745787,-0.01237339244011426,-0.013780535918406096,-0.013180331973476693,-0.010699492567400458,-0.006691472186014476,-0.001776475537137853,0.0032718997204457486,0.007406631652410143,0.00929393746365351,0.007860120814895453,0.0026183453196239447,-0.006691472186014476,-0.019802569958149892,-0.03454755784729978,-0.04653826312601509,-0.05132655398525725,-0.047198508451733234,-0.03572128433677244,-0.020849592715468067,-0.0070715998423177785,0.002638351843457594,0.0074533158731659695,0.008100199923891238,0.006439636636410547,0.004679042787241588,0.004825757569685681,0.00815355037978364,0.014515706435091369,0.022505078142357075,0.03019435404959802,0.03557617438871308,0.037450147729683296,0.0361030250573804,0.03251514208799705,0.02804028772897273,0.023778843423437928,0.02043771402810686,0.018216960666356054,0.016856497293860084,0.015702773624757107,0.014162251949254287,0.012121561005470292,0.009313944398983155,0.005145868534960009,-0.000909515197786484,-0.008325358188068987,-0.015474442726449543,-0.020496138229630985,-0.022083344125889633,-0.0204761354092613,-0.01719502270495921,-0.014140656639379754,-0.012420076660870085,-0.012126642981021939,-0.012640148834536225,-0.013360394391443502,-0.01372051511241716,-0.013447088367898657,-0.012526777572654888,-0.01102626976781136,-0.009012256109453547,-0.006691472186014476,-0.004217303130034777,-0.0017164551426449128,0.0008777559368086551,0.0036787038391832404,0.006606362469144246,0.009347287919545911,0.011561370931200179,0.012955177824258906,0.013221934218680871,0.012228266032215055,0.01047433841818267,0.008933816742679852,0.008480327580194541,0.00950067305208654,0.011247930316022389,0.012401658100085328,0.01206821054957789,0.009987505735134605,0.006553007898291884,0.002471628891195867,-0.0013963466463465615,-0.0044707188242636715,-0.006331351465040819,-0.00693155129501026,-0.006364694985603573,-0.0048441802454304,-0.00270345544799017,-0.0003893393233724594,0.0017647227999936736,0.003592007805248104,0.005212555576085519,0.006686390210462828,0.008106870273987774,0.00954068692274583,0.011167906689663767,0.013248611504107052,0.01565609351896124,0.017970207092303774,0.019524069467999665,0.019797496212518164,0.018617095257989005,0.01636966461081202,0.013495360963199372,0.010287605650119325,0.006906462384128968,0.003331919703442693,-0.00036266364278066316,-0.00399055772580013,-0.007258328495421163,-0.010025931231249008,-0.012420076660870085,-0.014554131931205774,-0.016268041559618904,-0.017381751358062594,-0.017848577105781013,-0.017741876193996215,-0.017241706925715035,-0.016681516851444922,-0.01632806236560784,-0.016214691103726503,-0.016114656427078277,-0.015701185250212215,-0.014607482387098173,-0.012873561708395436,-0.010826200414514906,-0.009018926459550082,-0.007618453331354782,-0.006277996894188456,-0.004290660521256823,-0.001322988432132523,0.0024382841361451236,0.006412963465944327,0.009867464123156732,0.012334966943999857,0.013915502490161966,0.014715771673427863,0.01473577860875751,0.014228943105339759,0.013462017442636616,0.012421660920455012,0.010794445268497037,0.008126877209317419,0.0042055508043865935,-0.0005227176028826415,-0.005017572313300674,-0.008098615664306311,-0.009325696724631339,-0.008725492779701935,-0.006578100924133138,-0.0034437062942431077,-0.00038267041351191025,0.001784729735323319,0.002871764305820808,0.003005142914527787,0.002451621955866222,0.0016046685518444981,0.0008177359538117109,0.00017751912581340722,-0.0001425891647369458,0.0001908569866841051,0.001644682422503789,0.004412286392819623,0.008306935512324268,0.012775115406292096,0.01705656664715654,0.020691129722335753,0.023712152267352456,0.026326373985599637,0.028300377888258118,0.029020619330205433,0.027893572946528635,0.02440572465379351,0.01809024870428165,0.009053858354657725,-0.0014763739761691475,-0.011386394603744979,-0.018748880965695137,-0.022503485652852227,-0.022950304465241003,-0.021396442089545113,-0.01930240068986872,-0.017575150361262514,-0.016594822874989767,-0.01640142387178985,-0.0169616098311,-0.017988625653088532,-0.018822242471877144,-0.01896895725432124,-0.01836208707425526,-0.01737508512292602,-0.016241368389152685,-0.014960932757975295,-0.013447088367898657,-0.01150643210076289,-0.009132297721431419,-0.006584767159269713,-0.004303997106489934,-0.0027301310874323667,-0.0020298941118387205,-0.002176610951762794,-0.0029368679103533844,-0.003917199511586091,-0.004910867286555911,-0.0055577554522411405,-0.005684463299355588,-0.005157620860608192,-0.004163948559182415,-0.002910192270911188,-0.0016097521733801302,-0.00035599469177051445,0.001151181858335164,0.0030518250778036327,0.005152534770096584,0.007279923805295695,0.009534020687609255,0.012228266032215055,0.01551604497165372,0.018850508131848215,0.021564760411783658,0.022958563189882427,0.022558428598249473,0.02047772378380619,0.017423357718226735,0.014302300496561804,0.011234593730789276,0.00814021379455053,0.004899114960907728,0.0014712903546335154,-0.0021566036049371524,-0.006404708856262865,-0.012126642981021939,-0.019415776066710015,-0.02683828323464911,-0.032040041155797366,-0.0330670569777859,-0.029299115705395697,-0.021723219289956016,-0.012079958760266112,-0.0023833473631878154,0.005706058609230121,0.011561370931200179,0.015502708386420611,0.018083582469145074,0.01977748927718852,0.020611101981017173,0.020684459372239217,0.020117603062832532,0.01905057748514467,0.01755006556534118,0.015442687580431673,0.012381651164755682,0.008273591991761513,0.003958798876318297,0.0010044654299070869,0.0009777897904648903,0.0041788735189604125,0.009160559266442526,0.013301961959999452,0.01406221727260606,0.010160897803004878,0.0024449528402576744,-0.006284667244284992,-0.012913575579054726,-0.015487779311682652,-0.013860563659724677,-0.00965247392504224,-0.005351019863808112,-0.00270345544799017,-0.0021232592613824046,-0.002616759414055033,-0.002723462383319816,-0.0018431646357433445,-0.00038267041351191025,0.0008510802973664585,0.001417938664253126,0.0014646212390249682,0.0014512834193038697,0.001831412310095161,0.0024983045306380637,0.0031318524076262184,0.003471967427758219,0.003325250999330142,0.0026116762040153973,0.0015313107491264557,0.00048428963779226155,-2.2548548579383476e-05,5.7478542575524597e-05,0.0005643165561188512,0.001151181858335164,0.0015713242082897503,0.0014446147151913186,0.00077772208315242,-0.00020260947693068692,-0.0012096167587551895,-0.002189948771483892,-0.003423699358913462,-0.005357686098944686,-0.008191979990858004,-0.011479758930296671,-0.01425402790126109,-0.015467772376353007,-0.014527454645779592,-0.011699831103962811,-0.007851862090254031,-0.004290660521256823,-0.0019231915540699343,-0.001142927660149698,-0.0015764078298253828,-0.002836834056697149,-0.0046107673715711905,-0.006471395897388376,-0.007758497763702339,-0.00804526109345395,-0.0073716997573025,-0.006171295982403654,-0.005464391125689449,-0.006364694985603573,-0.00985920951347527,-0.016228031803919577,-0.02357051123054009,-0.0281187188658265,-0.026578197190323682,-0.018215368176851206,-0.00506425241909654,0.009560693858075476,0.02273849101621629,0.03290193597943693,0.03966423074133757,0.043492205164596585,0.045226125843299325,0.045799668962642384,0.04617976781422596,0.04737351769886812,0.049540908259846646,0.051721672440697926,0.05243524764750866,0.05072799190935222,0.04623313884491818,0.03921741604390876,0.030241034155393885,0.020304331715935917,0.010761101747934283,0.0027783995677731197,-0.0028635096961393456,-0.006111275176414718,-0.007425054328154862,-0.007471734433950728,-0.006771499927333058,-0.005864525717322398,-0.005237644486966814,-0.005097600054619256,-0.0052843287077226405,-0.005404370319700513,-0.004970888092544847,-0.0038638482327016978,-0.002229961819151191,-0.00035599469177051445,0.0014712903546335154,0.0027517235168349275,0.0030518250778036327,0.0023916015613732813,0.0007177021001554758,-0.002096583621940208,-0.006104604826318183,-0.011419738124307735,-0.017461779099381174,-0.023023657741503088,-0.02735845943825993,-0.03043950278926557,-0.03254021042407854,-0.03386065992591522,-0.03435415884409986,-0.03386065992591522,-0.03223344015899728,-0.029539198929351446,-0.026084694157179077,-0.02244346484686329,-0.018995630424787458,-0.016241368389152685,-0.01466750319308711,-0.014507447710449947,-0.015434428855790253,-0.016801558463422798,-0.01810199691496987,-0.019195699778083913,-0.019702539396461625,-0.019249050233976314,-0.017675185037910743,-0.014947596172742186,-0.011086290573800296,-0.006324681114944283,-0.0010295559867723647,0.004579008110593362,0.010274269064886215,0.01588950639282045,0.02116462582015071,0.02577952049656263,0.029127324356950195,0.030641172861986796,0.029940934240409164,0.027119972818768996,0.022671799860130813,0.017376673497470907,0.012008189743588955,0.007206566414073649,0.0035186495910340654,0.001417938664253126,0.0014979659940757117,0.003872102430887164,0.007633374176172818,0.011468006604648487,0.014222272755243223,0.01547603110099443,0.01573612126027982,0.01564275693372813,0.014975861832713254,0.01244167197074462,0.0068997920340324315,-0.001276306268856677,-0.009952573840026962,-0.016568145589563585,-0.02002931659687253,-0.020489471994494413,-0.018995630424787458,-0.016634832630689097,-0.014127320054146644,-0.011793195430514502,-0.009745838251593933,-0.008025254158124304,-0.006691472186014476,-0.005864525717322398,-0.005904539587981689,-0.007891875960913322,-0.01288023205849197,-0.021062998653997637,-0.031526535302283075,-0.04215011097336584,-0.04994610836719139,-0.052340233222012665,-0.04812548548211358,-0.038028735789938366,-0.02419072211079914,-0.00940572446594992,0.003551994346084809,0.01297518475958855,0.01841703001965251,0.020250981260043516,0.019277320008907344,0.01684983105872351,0.01442900834367625,0.013061878736043706,0.013075215321276817,0.014222272755243223,0.01566943010419435,0.016489706222789894,0.015596072712972303,0.012641737209081114,0.008186898015306357,0.0036520281997410443,0.0006243369506117916,-3.588639710520149e-05,0.0015379794532390067,0.004612351631156117,0.008106870273987774,0.010974507686463846,0.012641737209081114,0.012821799627047922,0.011427992733989197,0.008540348386183479,0.004599015045923006,0.0006243369506117916,-0.0023099891489737766,-0.003056908699339265,-0.0011495963642622492,0.0029051086493755555,0.00836029008317663,0.01442900834367625,0.020444380263243432,0.02587955517321086,0.030187683699501484,0.03322871317984783,0.035489480412257926,0.03779693186542385,0.040731260433985395,0.044339146223738427,0.04798039199389406,0.05058795982188455,0.05116812802676458,0.04900740370092264,0.043138730103959695,0.03300864100618169,0.020311002066032452,0.0087870978452758,0.0020381487215201826,0.0013312426303179893,0.005332597188063393,0.011047865077685893,0.01568276668942746,0.017556735915437716,0.016423019181664382,0.012928500538832726,0.008020172182572657,0.0022648920682748494,-0.004303997106489934,-0.011646480648070409,-0.01887559292776955,-0.02410402813434398,-0.025544511018238614,-0.02281692215307006,-0.017495126734903894,-0.012253350828136386,-0.009138963956567995,-0.008825527456350162,-0.010672819396934239,-0.013507109173887595,-0.016168010997930637,-0.017888590976440306,-0.018268718632743607,-0.017468449449477712,-0.016194684168396856,-0.015014287328827657,-0.01403395572759495,-0.013193668558709803,-0.012440083596199731,-0.011886563872026154,-0.011686494518729698,-0.012026608304373713,-0.013340387456113855,-0.016134663362407924,-0.02017603137931662,-0.024397457699232166,-0.02747183070014127,-0.028565533563255315,-0.027425150594345405,-0.024484155790647288,-0.02070954416816055,-0.017415098993585308,-0.015607820923660526,-0.015554470467768124,-0.016654839566018743,-0.017848577105781013,-0.018562152312591756,-0.018702200859899275,-0.018228704762084318,-0.0168549089193152,-0.014514118060546482,-0.011426404359444309,-0.008298680902642805,-0.00595789004387409,-0.004710802048219417,-0.0043906910829450896,-0.004424038718467806,-0.004170618909278951,-0.0033970237194712654,-0.002410023002630012,-0.0019431984893995798,-0.0025634081351706404,-0.004097260695064912,-0.005651119778792834,-0.006364694985603573,-0.005964560393970625,-0.004617437721667726,-0.0027634758424831102,-0.0010028803473301681,-7.589994268265553e-05,-0.0004160150451138552,-0.001636427812822327,-0.002676779808547974,-0.002610090709942482,-0.0010228868711638175,0.0019447835719764986,0.005792752585685277,0.009760763211371929,0.013128569892129181,0.015302639033124156,0.015796137951308797,0.014469022214335544,0.01164139867251876,0.008060186053231947,0.004792414049122926,0.0029784668635895943,0.003291906655775394,0.005799422935781813,0.009767429446508505,0.014022203401946768,0.01803022789829271,0.021924881132757316,0.02616632261792243,0.031034637103523208,0.03643646849292788,0.04193835513378058,0.046806640814661626,0.05048125891009974,0.05256194726470319,0.05295541973615952,0.05142823464588981,0.04787369108210926,0.04233849384037349,0.03518938049727321,0.027066622362876595,0.01887051506717786,0.01130128488687475,0.004619021981252652,-0.0010562316262145612,-0.005791168326100352,-0.009619126289519525,-0.012640148834536225,-0.014987610043401477,-0.016828231633889017,-0.018328739438732543,-0.019662525525802336,-0.02080957884480878,-0.021876604422496643,-0.02306367161216238,-0.024704232079273383,-0.02646482592844234,-0.027778600965222524,-0.0281720693217189,-0.027411809894152334,-0.025677889215449595,-0.02351716077464769,-0.021436455960204402,-0.019822576893479535,-0.018702200859899275,-0.01811533350020298,-0.017955282132525778,-0.018228704762084318,-0.018955620669088128,-0.019769226437587138,-0.02018936796454973,-0.01955582049905757,-0.01729505738160744,-0.013473765653324839,-0.00897891258889079,-0.004864187180760046,-0.0019765428329543274,-0.00038267041351191025,0.0002442083890172971,0.00039759360385712464,0.0006109991308906933,0.0012445470078788483,0.002564993629243555,0.004645699266678833,0.007319937675954987,0.010300946350312397,0.01315524717755536,0.01558940236287577,0.017476708174119133,0.018857174366984787,0.01991753370953608,0.020964556466854255,0.022184971292042707,0.023398715767134624,0.024218996000690128,0.024072277103286074,0.02269180679546046,0.02027098819537316,0.017036559711826896,0.01315524717755536,0.008693733518724106,0.003832089383219865,-0.001136258544541151,-0.005657790128889368,-0.00923899863321622,-0.011866552821736548,-0.014194007095272153,-0.016461444677778783,-0.018135340435532627,-0.01829539591816979,-0.016528131718904295,-0.013166995388243584,-0.009052269980112838,-0.005004231613107603,-0.0014763739761691475,0.0012978982867632414,0.0033452575231637913,0.004805750634356036,0.005659374388474295,0.006066179330203779,0.006239571398074053,0.006472984271933263,0.006726404081122119,0.006466313921836728,0.004839098269878752,0.0012245400725492026,-0.003983889021687578,-0.009025592694686656,-0.011686494518729698,-0.010646142111508057,-0.006131282111744364,0.0002575462087383954,0.006659712925036647,0.011447999669318842,0.0134286698071139,0.011968175872929662,0.007179889128647468,-3.588639710520149e-05,-0.008292014667506231,-0.016308055430278197,-0.022796919332700376,-0.02661821106098297,-0.026918310975967693,-0.023443803383425645,-0.01700162370175929,-0.009399054115853385,-0.0027968205975338546,0.0015313107491264557,0.0036453590841324965,0.0046256923313491875,0.005779416000452168,0.007733408852821045,0.010380974091630978,0.013268618439436698,0.01566943010419435,0.01720995177969717,0.01785016959528586,0.017876842765752084,0.017503385459545315,0.016736459796842174,0.01551604497165372,0.013668753031069646,0.011174572924800341,0.008580362256842769,0.006819768407673811,0.006526334727825663,0.007806766244043092,0.010234255194226926,0.012968514409492015,0.014835813285405737,0.014929181726917389,0.013108562956799534,0.009834120602593976,0.006059508980107243,0.002651689663178692,-0.00023595410853263185,-0.0034837193419104064,-0.008325358188068987,-0.014940929937605612,-0.021396442089545113,-0.024784255705632006,-0.02301032115626998,-0.01586124073284938,-0.005371022684177796,0.0051925486407558745,0.013295291609902917,0.017790148789296925,0.01881049426118892,0.01716326755894134,0.013702096551632402,0.009173895851675638,0.004118852712971476,-0.0009428599528372277,-0.00531100599314882,-0.00844539980004686,-0.010379385717086092,-0.011306366862426398,-0.010979589662015494,-0.009105620436005239,-0.006171295982403654,-0.003050239583730718,-0.0003359879210392674,0.00151130381379681,0.002251554248553751,0.0020381487215201826,0.001324573926205438,0.00015751239623175978,-0.0018098198806926005,-0.005704470234685234,-0.01236005585488115,-0.020569499735812995,-0.02707836645860486,-0.028798946437114524,-0.025091025970713263,-0.017795226649888612,-0.009579116533820193,-0.00228331350953158,0.003325250999330142,0.007606701005706598,0.011214586795459633,0.014622407346876172,0.017736798333404524,0.020277658545469698,0.021818180220972514,0.0223316860744868,0.022144957421383418,0.021378031758680277,0.020017568386184306,0.017903520051178262,0.014895834091394673,0.011234593730789276,0.007479989043632189,0.004285574430745215,0.0018981014087006524,0.00046428270246261607,0.0002708840696090933,0.0014912968784671645,0.0038787715464957107,0.006753077251588339,0.00929393746365351,0.010894479945145264,0.01118791362499341,0.009934155279242204,0.006919798969362077,0.0022448855444412,-0.0034770506377978555,-0.009259005568545867,-0.014107313118816998,-0.01772853549380314,-0.020349423447186894,-0.022396780626107466,-0.02401065969283233,-0.025251081453350425,-0.026204735769156953,-0.026824946649416002,-0.026944988261393875,-0.026198065419060418,-0.024650877508421022,-0.022476808367426045,-0.019922611570127764,-0.0174017624083522,-0.015140995175942107,-0.013080297296828466,-0.010872884635270731,-0.008025254158124304,-0.004430704953604381,-0.0005694001776544835,0.00280507479571932,0.005172541705426229,0.006593021768951175,0.007399961302313608,0.007733408852821045,0.007626707941036244,0.006919798969362077,0.005339267538159928,0.0024382841361451236,-0.0016764412719856216,-0.006224646438296055,-0.010192652949022748,-0.01290690522895819,-0.01403395572759495,-0.013567129979876531,-0.011693164868826236,-0.008605451167724062,-0.004604097021474654,-0.0003893393233724594,0.0035053117713129667,0.006939805904691722,0.009887471058486377,0.012201588746788873,0.013875488619502677,0.015202604356475928,0.016516383508216072,0.01811692598970783,0.020391029807351035,0.023838864229426864,0.0282737047177919,0.03290193597943693,0.03682326649932771,0.0395108497237569,0.04089131591662256,0.04089131591662256,0.03919073875848257
