0.7711929920481417,0.7630565299668658,0.7667308799394523,0.7848121546841469,0.8163570556883183,0.8468400513252718,0.8339001631753518,0.7555328298544711,0.6547823471716242,0.5761030068143751,0.52157338144793,0.4869007172537206,0.49843187647803244,0.5788935000563273,0.7131241919833138,0.8285461985243839,0.8796226031487661,0.8809143622979875,0.8560005089626137,0.8157559511120923,0.7688887737517314,0.7324433923033813,0.721001431390169,0.72751970342003,0.7232318663638658,0.6392148927574974,0.246783931931975,-0.46092313158169484,-0.7695414440393274,-0.865944427999876,-0.9066797431343228,-0.9299545654595239,-0.9455620976278243,-0.9547808951428808,-0.9465747291617226,-0.8922597776977473,-0.7910061236937471,-0.7261230444782942,-0.8153481690968929,-0.8930903089166786,-0.9315606167651057,-0.9482169960519922,-0.9546043600350892,-0.9557140682195668,-0.9530498886148595,-0.944875067486117,-0.9237525198842952,-0.8598805520673852,-0.6023142619044176,-0.09789649881549954,-0.36587189436583795,-0.8178771375091046,-0.9242642199764776,-0.9381204875450196,-0.9017163580748953,-0.7120324171212905,0.10498175008310806,0.7367158656554296,0.8740537815897608,0.9109272292621516,0.9249195960256313,0.9333558247365338,0.9392533092130231,0.9407288629058486,0.9358822895302394,0.9274415545993001,0.9216307150578061,0.9197217827823156,0.9176509981989555,0.9134221447213982,0.9100802214197651,0.9073712736024149,0.9039332891230498,0.9000641126738611,0.8980389895558554,0.9000938122970542,0.9034594553785181,0.9070412902035276,0.9117571517272536,0.9184353300302073,0.9248088658511244,0.931206177919858,0.9411767972120634,0.9533069237435045,0.9626820142607184,0.9677405921592326,0.9701733645077905,0.9702260127822389,0.967428271656704,0.9584939941038969,0.9339757225693686,0.8884057592166765,0.8733592498881892,0.9078762934321946,0.9322944415948495,0.9268286985522733,0.788515291862585,-0.7690253370478192,-0.9676701932314172,-0.9817294625295141,-0.9827128412313445,-0.9801662229541003,-0.9764204900622552,-0.9733927486876157,-0.9718068566973928,-0.9707823449541917,-0.9681500437524712,-0.9614416098954194,-0.944763147489023,-0.8986074231381819,-0.7451804890728715,-0.3475265277899877,-0.057064121485959914,-0.1063320410962914,-0.28832766991050346,-0.4382356743225457,-0.5234315980020169,-0.5518526792478062,-0.5266402594737734,-0.4347442510540821,-0.24339330164640463,0.10135999432845443,0.5914666427414264,0.9039677199405095,0.9302145584962072,0.8743623808090457,0.8258481650359898,0.7983972971771953,0.7928207937384055,0.8060362157887383,0.8350430497205064,0.8736187351550571,0.9074887443689157,0.9251532412079592,0.9269613807129199,0.918269029560482,0.9025377516851302,0.8784494077762942,0.8440764531402692,0.8059756340528094,0.7775355211282622,0.7648362105963308,0.7562737462933433,0.7078951607236491,0.5159831386355861,0.1177315263156534,-0.17569563994951037,-0.23961646232908285,-0.11012191849384527,0.13475893824041194,0.28784139973581885,0.2980658188943771,0.22868942744666268,0.11779079118641331,-0.009653897494793083,-0.13682424592418765,-0.2564930825240562,-0.3667490855336414,-0.44837925029509407,-0.48511233795674735,-0.4768541074216022,-0.42008348424625663,-0.29962416136392667,-0.1584145369331428,-0.045875139620223965,0.02547663209660852,0.07018422880567604,0.10121571764099284,0.13946140135925109,0.2198706417691093,0.37925550026970684,0.5382407869793535,0.591681929600284,0.5978042844713547,0.5894019509115788,0.563941594782435,0.50391328663439,0.376731994924161,0.15788287317536498,-0.09063382576532975,-0.255135679235743,-0.28383838565768066,-0.1515428461533169,0.12298244397837514,0.3720289171929128,0.5030648770662627,0.5438343106497938,0.5208348203348441,0.4532691178995829,0.36728570268536986,0.2798871608026308,0.18584350505538128,0.06070219698055774,-0.14594096215392185,-0.4687280302867573,-0.7435765463146015,-0.8729819659637184,-0.9234449861650994,-0.9445055921763293,-0.9544902476551324,-0.9598778100931398,-0.9627778407704708,-0.9640624508390416,-0.9638732944543842,-0.9617306503060681,-0.9561385430657859,-0.9375690338709893,-0.7282814501024204,0.8436638738775095,0.8859855118909732,0.8530951269508013,0.8123539361320302,0.7880696616608678,0.7942724955647873,0.831299340792579,0.8851642223021942,0.9355299762057693,0.9657223249445722,0.9732202677633212,0.9697577723687647,0.9616385086418742,0.949778922598927,0.9402095527648053,0.9367174414811793,0.9361039008098105,0.9359910582972409,0.936656830111628,0.9392155815106963,0.9423491474678372,0.9425439824600486,0.9390673848101475,0.9300098963119152,0.9161973176962376,0.899740866355477,0.8856305636855208,0.8765969819410324,0.8730916140013908,0.8732492536328753,0.8739408773203607,0.8700291256553322,0.8624474056572777,0.8564822311915031,0.8504382884556433,0.8445996905994279,0.8387648620892324,0.8308775323751666,0.8167107917914114,0.794391020756674,0.7634415367822032,0.730795478861563,0.7066391765196047,0.7035958228759229,0.7270991941705005,0.771476773591265,0.8232320973276412,0.8584035561637664,0.8476014330802658,0.7907391467046613,0.7212976312226664,0.667252519603139,0.6232943219919342,0.5729568615429964,0.5106446570415022,0.4520005742180617,0.4000992479054709,0.3627329716238014,0.3628698659634899,0.4191361954600374,0.5421751453887409,0.7203770642625802,0.8979162643275673,0.9787041343462165,0.9629196351632745,0.9109660528695972,0.8427895052448876,0.7554855613684359,0.6514509959185402,0.5096092735145266,0.18507046161567015,-0.3026788679591224,-0.6776530635278665,-0.8538705429815165,-0.9233256751153456,-0.9506916060613589,-0.9615915497535964,-0.9637105416430821,-0.9584225297859028,-0.9434971488535061,-0.9151044184230452,-0.8780927924886487,-0.8484510195335027,-0.8354351076873117,-0.8365603743043705,-0.8467034082453524,-0.8704941153623836,-0.9004121264764323,-0.8307539739190998,-0.420493824582005,0.29178274500898477,0.7582509255893837,0.8960227371033532,0.9356101414010031,0.9544279264284847,0.9679207978787533,0.977617104778845,0.9807787854378225,0.9458942590559813,-0.35806222689674033,-0.9353716053425435,-0.9723872924607176,-0.9825304987666753,-0.986696860842189,-0.988307608171881,-0.9881492973399102,-0.9854696636733072,-0.9693465760601728,-0.7658591508474748,0.18271744003739246,0.5024299628968544,0.5955532002964825,0.6871480484507287,0.7825820583245788,0.8542175787507233,0.8986874415449185,0.92348106535542,0.9363449685453642,0.94068982266075,0.9341150547839087,0.9107587626051584,0.8663649578452359,0.8063183275556001,0.7460023351181854,0.6815081598130478,0.5782886879309694,0.34739881334703177,-0.13450617372678608,-0.5639568453948576,-0.7053949776071939,-0.7066072297211609,-0.6723070385673725,-0.6729037355513967,-0.7441064743847507,-0.8356339319470761,-0.9025944448474772,-0.9401749399829501,-0.9522218784067836,-0.9470021760873368,-0.93133350341606,-0.9071312230979691,-0.8708986701834791,-0.8099642041410025,-0.7006259677644038,-0.5073830094110375,-0.20385616657668024,0.17342212227098974,0.5086791640521098,0.7247544445384182,0.849625462961515,0.9267531741846131,0.9732341046560706,0.984775775930074,0.977161409135171,0.9752955117848987,0.97996080611221,0.9790918421806583,0.9731749010566633,0.9714484936208181,0.9728284991091657,0.9694258881697977,0.9600952670095533,0.9480688787866616,0.9353595540708977,0.9229075474053718,0.9096705645750184,0.8927705504228051,0.857761492407471,0.7573341559076707,0.45122196707723017,-0.009507499492601865,-0.13367465853023572,0.10843055943028089,0.46900560615522185,0.6943129960353814,0.8009019678033431,0.8575263743394648,0.8948870500104542,0.9252240325499618,0.9516217534299256,0.9656804289958864,0.9602441141541519,0.9328525833234794,0.8618146163788276,0.6247430379790833,-0.14656624920282854,-0.743890519573987,-0.8846994515512812,-0.9117224895978908,-0.9043214778791138,-0.8815927133290763,-0.8334121577773875,-0.4989330574896318,0.7205258548766245,0.8710166223602792,0.8948478429411556,0.9005799543049852,0.8994457728497767,0.8930111569751726,0.8760821075293744,0.8244793987971571,0.617258435824944,-0.21307836169310723,-0.8068903038963475,-0.9169896412134032,-0.9354109265741721,-0.9188749766249632,-0.8595337502705487,-0.7511584347257912,-0.6365052958275271,-0.5866569214335738,-0.6365524841893964,-0.7534148212994684,-0.866874151478358,-0.9298300281649446,-0.9457832219681906,-0.9290922043354636,-0.8790412301026482,-0.7661187759358603,-0.5360342391559809,-0.17908251986275492,0.22881973090354538,0.607767889082234,0.8462684257073244,0.9263243042901171,0.9463488961075899,0.9539923822418842,0.9572522050667716,0.950907594792911,0.8281292485169793,-0.8937575976967989,-0.9651254561193934,-0.9722491586974324,-0.9717219544827693,-0.9602744088319887,-0.8355974128150038,0.721774645796429,0.9170566198311737,0.9237747811395871,0.8901949570707415,0.7759180976029869,0.310203536892311,-0.593331492016974,-0.87178049432874,-0.9276802235859918,-0.9351844388207774,-0.9186756507934674,-0.8835643519726151,-0.8560796464766544,-0.8759416610474752,-0.907451186538314,-0.9167225980592143,-0.9117696094488078,-0.9012558178453758,-0.8841142219126646,-0.8517519961266796,-0.7764592680093532,-0.5815598706045073,-0.1777016534087207,0.22915315555853816,0.44272132902870226,0.5401396337356754,0.5893569447936668,0.6290089265051988,0.7018541528178133,0.8087103458776163,0.8252340152157464,0.7688062841854396,0.7288791309051963,0.7081706334587465,0.694646182540899,0.6932220009762972,0.7157858861095936,0.7573075575313878,0.7813438786541024,0.7232954134619487,0.4365217529373841,-0.09894192578785525,-0.43128852126544204,-0.5272611626633678,-0.5049033246709438,-0.4053118043714807,-0.23335151625491318,0.02538865718430608,0.35928203210883436,0.5817839011987561,0.5001879157760745,0.304205372638839,0.16330340847952635,0.0686733245249518,-0.021923661483530445,-0.11972132188254143,-0.1957771709961873,-0.19258803935452398,-0.018353739267735786,0.4514364314430026,0.869333290158362,0.9698337022157504,0.9830746240999756,0.9816447261669332,0.9733995331677868,0.9539119800900011,0.9123886795254764,0.8400766087902356,0.7569955054704345,0.7190945627758466,0.7449330639374854,0.7688144026416145,0.6897393907278517,0.5504805576039726,0.44823088784409415,0.4149850660783192,0.46261877144248054,0.5871367773548382,0.6899879910800341,0.6927703074028893,0.6659481984768356,0.6530625123977575,0.6530748068269765,0.6488899779575747,0.6229167883729113,0.5876233362880453,0.5795578160056845,0.5952521782111946,0.5177146227479341,-0.07170163304938677,-0.6108740071009565,-0.7860487467810532,-0.8539896146700442,-0.8751791326829267,-0.8490321203412786,-0.7167638397862606,-0.38542131699739013,-0.05085626593950621,-0.05647191601692324,-0.37427502904608856,-0.685861474467677,-0.8334064345437169,-0.8813828650323351,-0.875315711345674,-0.8566659331587992,-0.8751846294443419,-0.9150815022076952,-0.941562064000601,-0.9493925279018285,-0.9388336267447476,-0.8907067486418456,-0.7292166032844203,-0.3876890845742163,-0.2626501976158967,-0.5807673065314116,-0.8050634865014693,-0.8610672338840034,-0.8663971345968305,-0.8241831783147072,-0.4734504233360041,0.4778190270938243,0.6981665141023652,0.7607351249551051,0.8084886661935198,0.8589349946042695,0.8989752890817629,0.921634957966911,0.9298334682866967,0.9237769298310248,0.90242842434497,0.8757064539335244,0.861836913809018,0.8655868350305497,0.8769037057353893,0.8890468361908871,0.899232648853223,0.9066149657984537,0.9106944294680379,0.9125393919866539,0.9105054163415269,0.9034226006662807,0.8928400737723411,0.8864188485970335,0.8843365035617432,0.8705646620184703,0.7669797267326717,-0.043287721759674,-0.8366123151524861,-0.9402310877833043,-0.9637384960235015,-0.9715930351198984,-0.9739498786765941,-0.9731286407385811,-0.969228116502449,-0.9602379154400321,-0.9380060124186765,-0.8720259757869537,-0.6558851389363998,-0.13093181157968023,0.42600125623598323,0.7408221814552747,0.8928669308553387,0.952688769055086,0.9636269339246142,0.9399843836842015,0.8449506794150503,0.5814235544449563,0.2800534761466017,0.2565543257872532,0.4277199158754906,0.586339311835699,0.6766451949743971,0.7313486443429799,0.7782246921166518,0.8251637068398402,0.8656067932857816,0.8926325018622137,0.9069637015934758,0.9125913975585626,0.9138561034549081,0.9138381378435441,0.9159146340610026,0.9228949386700583,0.9344597749256184,0.9451533315571329,0.9508881732967904,0.952910106549236,0.9534678385746512,0.9515340998316016,0.9462057293318874,0.9379285278297067,0.9264142684872119,0.9115991914879785,0.8931199894160503,0.8663091463072371,0.8282831621139585,0.777958135812243,0.7145015732671646,0.6431271364746214,0.5604460025874584,0.4456550207926021,0.22963642821631014,-0.2386683212143581,-0.7474075689172569,-0.9199910343559741,-0.9592715143980418,-0.968823535249099,-0.9704176645443089,-0.9677093139233703,-0.9583643060597814,-0.9349906453495154,-0.8846280438117775,-0.7976803255568646,-0.6846552841829793,-0.5376819918744392,-0.3035754344290258,0.07254023128302185,0.4815556120313708,0.7232019128269442,0.8220564798892236,0.8527650929135664,0.8473355396821601,0.8184955377377474,0.7772979481136018,0.7338108107245452,0.6939801099804146,0.6570632119767047,0.6189257740094911,0.5756878726925542,0.5359288093671193,0.5230454391351359,0.5457123661617123,0.5830547567999222,0.6208593023816537,0.6491128289064066,0.625670027678577,0.441691020472032,0.1922243364768949,0.05690002792669731,0.012006806238425755,0.027946550329892874,0.1126035600719128,0.2830446282834848,0.4809382192993898,0.5289266458295624,0.37850086254591503,0.07227446287099898,-0.2795423639699521,-0.5453318134351206,-0.6960953147580131,-0.7652911083439562,-0.7864411497635837,-0.7894248081117318,-0.8016164576485763,-0.8324397786817667,-0.8734625350585076,-0.9112350984314883,-0.9393263359469555,-0.9581965973317642,-0.9707337141051317,-0.9791663680916166,-0.9853443765422968,-0.9908549120232172,-0.9929935486375282,-0.9468050889529864,-0.36845503490790277,0.45225594497365035,0.6782598423206477,0.7641208909564862,0.8057534879780663,0.8178222873394081,0.7984931564789539,0.7558202087215633,0.721918196497382,0.727957138398533,0.7727047225244792,0.8301178348538083,0.8822244006072467,0.9210149906136648,0.9460942864759342,0.9595463025851533,0.9641292823781323,0.9651018152725914,0.9686692770601761,0.9762722334139501,0.9846359769489749,0.9903479217491964,0.9934347328666102,0.995471146630849,0.9970609335679822,0.9870569648489103,-0.8405914712973959,-0.9750657556509998,-0.9865340950131597,-0.9906520103323221,-0.9927279417529085,-0.9939035375154104,-0.9942649005162633,-0.9933334573653451,-0.9898115696490689,-0.9801969099907691,-0.9557755510665111,-0.8960861246585304,-0.7519989549856668,-0.4170771733142484,0.13691572241782932,0.4891071222647978,0.453651867795881,0.0667316506020023,-0.23041331195469011,-0.08640221449909098,0.4368272196337839,0.7979739804899166,0.9152478768508856,0.9516882288331724,0.9543436166499402,0.9443593706207319,0.9337341037837088,0.930058474562252,0.9330328005891588,0.9387398268659024,0.9413381001246195,0.9297656561527783,0.8716204055953375,0.7005136354631523,0.43194987118491024,0.24134812840699935,0.20673176238216767,0.2952789357573573,0.4021667024277777,0.16935198581367206,-0.5525191185485087,-0.6977537804104198,-0.6204517983997844,-0.023451377519499942,0.7090824887152033,0.8433039929793132,0.8607493390825561,0.8529138194109761,0.8354883477353212,0.813919407548807,0.791354333495848,0.770776055077423,0.7545716273560646,0.7455371165957607,0.7475535570051548,0.7641268842528743,0.7956777655136998,0.8305500757123189,0.8567899888319461,0.871613206550185,0.880960964539682,0.8920355590521577,0.8871340602730678,0.8231807465706918,0.7541915421430944,0.7189154650508112,0.7123243980675116,0.7148306786739832,0.7061137018077227,0.6760827439486459,0.6369737094013675,0.6170360922231519,0.6294275043049571,0.6677516318152327,0.6966529006829237,0.6779133940981844,0.6410344911562961,0.6300642772289421,0.6507068590600976,0.6805438943906659,0.680336100821606,0.5730978893742231,0.1382452719182107,-0.515944932865914,-0.7572154855832791,-0.7893076146544517,-0.7009912988630691,-0.37112507519045346,0.2560828819776942,0.6264837661038122,0.7420566322534995,0.7526145880390714,0.6814663104216624,0.4974993696986147,0.2512612245649486,0.13235304015610977,0.17741088453650503,0.2648613719132686,0.31237921919176637,0.2823758972714065,0.1347393697158489,-0.19539328999793087,-0.5720998273827759,-0.747057898821718,-0.7998816628443466,-0.8207489273279949,-0.8377093507153476,-0.8555205438381771,-0.8745050064738837,-0.8930592781686,-0.912218473023224,-0.9333462578626827,-0.9524537372250924,-0.9605094859474188,-0.9500168094087255,-0.9103475228063844,-0.8160952221913902,-0.6308092480675258,-0.37228067213235927,-0.14448854741666597,-0.0027909155974954174,0.0722908598794736,0.11913749982811435,0.16812718910043017,0.2374703778065927,0.3326177070498365,0.4292816105035999,0.4880364948662886,0.5065324070177495,0.5117654149692997,0.5263780551613815,0.5619225458467372,0.6106161246853266,0.6371978086729885,0.6158927318515705,0.5557717923905403,0.4989359255109881,0.476743904310953,0.4835557218809002,0.4464415524560955,0.051307359970877285,-0.4531793162090966,-0.5653147348409118,-0.5534370548985795,-0.4455302067678085,-0.19315802349159764,0.21823860507931567,0.5939129558183652,0.7748458145663396,0.8274207975147552,0.8245758336412606,0.7951962511786224,0.7449595139349755,0.6722374180698021,0.5804482660688145,0.4350165582323941,0.11904515903347601,-0.37357652636352584,-0.677040185452275,-0.7703573762881241,-0.7555231769530183,-0.6265154051963018,-0.29109417689774886,0.18995374413856278,0.5172592158809787,0.6703796278571897,0.7390173532029484,0.7655365294011118,0.7706863266234683,0.773883880830765,0.7846877256637156,0.8025387626530162,0.8106665758836653,0.7786166771647691,0.7033690826804124,0.6226117647664408,0.5497884106656754,0.47574769981644105,0.3979319687110617,0.33397250362498476,0.2868505559540863,0.2706302118310879,0.2826096181401082,0.2878482862295156,0.23887633793413018,0.14024905002586832,0.06426086841344342,0.10148286432783331,0.2631797828415693,0.47380423390007986,0.6487605313432037,0.7694456920996059,0.8435398733594568,0.8697758586617459,0.8254755670587487,0.5840285119855568,-0.13636505117367403,-0.6889763343848284,-0.856392506554228,-0.910048941967488,-0.927748267123287,-0.9274819776711422,-0.912667277397549,-0.8825741391004248,-0.8444772949160002,-0.8134905259712796,-0.7974104101721221,-0.7978431375843322,-0.8159481399179866,-0.8412400620193259,-0.8587404432104527,-0.8605813271650005,-0.8443165052725127,-0.8069102223552349,-0.7378881714938617,-0.606864268954677,-0.3613203428696436,0.01892224335454835,0.42602956974312334,0.6883369845109442,0.7524544473038358,0.7032358251255636,0.6393205289573107,0.6178797320893025,0.6585261337119018,0.74102931456751,0.8291146608966145,0.8942763011467548,0.9311314204048108,0.9494638317941366,0.9605713563316,0.9683805185139944,0.9693902232959893,0.9567174353608396,0.9305229562761241,0.8997500498204294,0.8730566690751211,0.8537065195308873,0.8427813242608226,0.840774240266951,0.8464900861411756,0.853986523837392,0.8569964440518929,0.8352408350752798,0.7269485315851073,0.3888990527351596,0.05982692491691984,0.07324652189825269,0.2936049134404212,0.5162555600763903,0.6491922400837984,0.7051307074757699,0.7116005024356596,0.6875333697607813,0.647704147828672,0.6117119180216862,0.6137018807210934,0.7077095130436422,0.8381759177673975,0.89834771959709,0.9029533140978312,0.8977917269564111,0.8953942266580391,0.8917511730215519,0.8896210972968865,0.8945700322048284,0.9111677797349149,0.9388660460056582,0.9592965126236548,0.9542374442512355,0.9314504839571114,0.9162449566074379,0.9162897547335045,0.905606047894764,0.812442147142397,0.5500861885254845,0.11616459697317637,-0.27671146801382007,-0.4775032424226902,-0.5809683798099465,-0.6500538385306082,-0.6937228903588984,-0.7208926634239531,-0.7581320732509927,-0.8343491128527142,-0.911546372933041,-0.9354857439962465,-0.9036551418580707,-0.7654685877982005,-0.2617818674554357,0.47998527627976273,0.7748822743262711,0.8804386870369786,0.9411108645464056,0.9742640227374625,0.9450265883633503,0.8514047285155121,0.7586317400149782,0.6884758674425425,0.6123440979655741,0.49211672389137334,0.3425591194861067,0.2077995079011899,0.09258977629734419,-0.06273962707731255,-0.30089334400158907,-0.5503287373779195,-0.705405831596553,-0.7758346013713149,-0.8153627515483362,-0.8564682275915759,-0.8989900376620118,-0.9312928352238578,-0.9512420175062997,-0.9624476972486752,-0.96808315640866,-0.9696299763211859,-0.9673702246431867,-0.9609178337270736,-0.9511177833821624,-0.9419020787453252,-0.9359871308384103,-0.931210066370288,-0.9049080162065718,-0.0320827439335481,0.8659721047804638,0.9112921040053465,0.9202070161384148,0.9199115035179128,0.9140758454178729,0.904239236256719,0.8944366942179607,0.8931707704480087,0.9075585825341318,0.9348637603430612,0.9595251451779845,0.9731694199215339,0.9798724436022923,0.9831725358847394,0.9816142431285968,0.9750269614695649,0.9659846672118649,0.9572899310505598,0.9499742014341662,0.9419325847060467,0.92361444999865,0.8104020860561924,-0.7109543474249003,-0.9600813928415742,-0.9663480781671879,-0.943834857061205,-0.8298025747080795,-0.08408329573007524,0.7542714191774549,0.9046201149884874,0.9367500291667434,0.9414440431008164,0.9397879523107558,0.9393617628077396,0.9369281227361828,0.9280253821110751,0.892579747111263,0.6561410932061829,-0.5598530088710802,-0.8888523907869413,-0.9392678924135819,-0.9547493721625916,-0.9614828348012139,-0.9660751724457822,-0.963438233782156,-0.9120940638123956,-0.6549699952174771,-0.2176441247681603,-0.11976616721439591,-0.4073657185050315,-0.7280365621099142,-0.865506509505161,-0.9097478609987687,-0.921470309975776,-0.9200983940063785,-0.9070090190337019,-0.8455099754940965,-0.5557978666206718,0.05395667661442061,0.5361165987105901,0.7789003046504172,0.8861853009859518,0.9300772271082416,0.9423513659462662,0.9336175474908907,0.9129209616781139,0.886604662287391,0.8607822469254824,0.8407082440893828,0.8300612805708066,0.8278731857610752,0.8307461930181264,0.8330775046564936,0.8330553633152039,0.8309537697240802,0.827241817011557,0.819293642281479,0.8100898768578481,0.8029305260246498,0.8008866449922712,0.8022332932569463,0.7982336748845132,0.762852594885173,0.5244599671511819,0.06911633421748008,-0.2327822762994345,-0.4079943174459211,-0.5256382452628031,-0.6135418361282935,-0.6853281967503612,-0.7495460271864058,-0.8075376140751355,-0.856518630862592,-0.889772999541231,-0.8936888681911331,-0.819947697640803,-0.5020457638032624,0.24614648751824394,0.665091601056944,0.7463802593016506,0.7523740902963272,0.7494659024018426,0.747694665337897,0.7444230531994744,0.7445771613901986,0.7679608021582917,0.8092716692073502,0.8403204849530872,0.8379890290114821,0.7909460573901492,0.6810471371095493,0.40565184445054564,-0.24862392355488924,-0.7766659828003438,-0.9230088411921835,-0.9612738428469616,-0.9722890018117071,-0.9724005204361342,-0.9614376701792823,-0.9268972878235987,-0.8298420071188706,-0.5947647064645679,-0.24451412821366875,0.016545979486638555,0.14267965051533948,0.20918060435013583,0.26650363094053203,0.32749692388925955,0.38027918746283873,0.41089050755462375,0.4174344494958324,0.40000693939455356,0.36513181163443204,0.3301496439299869,0.3077433154050752,0.29323609587012683,0.2769901833410788,0.26371134856207457,0.2745250638534347,0.33383702865751097,0.45390289595976485,0.6180772423300263,0.7497312134530826,0.7450497650993942,0.6748281310014903,0.6283705917840489,0.6052008985285237,0.5865283194973899,0.5507031454568377,0.47721213329923806,0.33408112124136113,0.06059939256242286,-0.32881479590693424,-0.630944587566001,-0.7805478833295895,-0.846473263290718,-0.8755430471909603,-0.8859321642665952,-0.8846730492863262,-0.8731934818859017,-0.8158378352744149,-0.551415255970372,-0.32365091959985726,-0.29364662038252254,-0.3077719117815694,-0.29358859505199186,-0.229023159996647,-0.09852065104742509,0.12067060166867277,0.4351759055745019,0.7443341700604132,0.8954917621592124,0.9321682733177113,0.9435378735065311,0.9143014823177104,0.7935508796282383,0.709553690817855,0.7516964563747274,0.8456898799944542,0.9087601086129808,0.9357509681060312,0.943834898327628,0.9427371817256577,0.9378170732407409,0.9300860001207818,0.9058786977307316,0.7873893214262409,-0.13284286221877553,-0.9022364223602822,-0.9757049724548588,-0.9857442310949691,-0.9831283763087658,-0.9759454926292287,-0.9663245501884078,-0.9523201325915757,-0.9268883963278177,-0.8702924895390393,-0.6919762805751134,0.08501697978440359,0.8246463338089696,0.9425904215583716,0.9599514341366179,0.9447479551556985,0.6558335697946284,-0.8822873149145968,-0.9694907424116938,-0.9815964774985361,-0.9801932307122766,-0.9536610594852598,-0.7464466700949639,0.39169905811057876,0.809304307339997,0.8596010213299976,0.8265204135814542,0.7451174231960952,0.6859060278766109,0.722652317658251,0.800756615060366,0.8568085934085834,0.8863645978609396,0.899339688567491,0.8993914353878526,0.8817030265255977,0.8458396502605904,0.8091754679133721,0.7932169880234001,0.8029420214381644,0.8265937409974712,0.8493154717094833,0.8615052322258825,0.8615699281881608,0.8523339798953272,0.8444866805073651,0.8417029504807512,0.8442616321670307,0.8510521722197065,0.8616910886114238,0.8775271062889826,0.8988992168351227,0.9195212349119105,0.9308995933656107,0.9283450170844865,0.9119076855976889,0.8758586544402727,0.7918010278976925,0.5898274051719357,0.21938079144767733,-0.0740126970942397,-0.15742473028336365,-0.19801927822800908,-0.30806107094888346,-0.5209145308391298,-0.7702631230840316,-0.9004553760787429,-0.9350958037761713,-0.9443648787339571,-0.9479776919637698,-0.9487650451679691,-0.9463128967789103,-0.9395694504794945,-0.9247950673417205,-0.9077287949315751,-0.9262985056608458,-0.9600509169933341,-0.9535053001072405,-0.9124757421959159,-0.8473088864683295,-0.7597208514267431,-0.670012827073141,-0.6173009845661483,-0.6148838951769237,-0.6207842776842014,-0.5840508088745897,-0.4622251204462807,-0.21941601233731506,0.11902575848629124,0.42262457326486286,0.6073352201279666,0.7094889930382796,0.7815561742705847,0.8422016730983076,0.8906830668992158,0.9214563471475617,0.9359092411337877,0.937328178462755,0.9271588555921768,0.9137681198904385,0.9104419158192436,0.9184986624710159,0.9288616718669189,0.9327390667487929,0.930728875198757,0.9260525983667328,0.9175166490791142,0.9040627386831888,0.8826482445393334,0.8367500552400697,0.6117141912712278,-0.6981632817740648,-0.9718177667852165,-0.9885516574855995,-0.9893314261519486,-0.9863512487674784,-0.9800984623859782,-0.9672228636998502,-0.9443684826260872,-0.9083941960388715,-0.8633641910950302,-0.8436940435087442,-0.8916283979846193,-0.926216902954043,-0.8697246184715299,-0.7950748185805457,-0.7427458602442583,-0.7054856429905444,-0.6697305351636635,-0.6142558647763102,-0.4937581860635341,-0.17203816546176584,0.45534681073791644,0.7940151815915384,0.8629829849891749,0.861204414971192,0.8248824934420924,0.7322218057378085,0.4908508998512775,-0.002713072891920904,-0.4427689395353443,-0.6280061731907612,-0.6583790442467424,-0.59319577385548,-0.47116439517759157,-0.3724149516981152,-0.44073227997294573,-0.6683591542411027,-0.8074415542052298,-0.8279398789857898,-0.6248046675596012,0.5198803787928725,0.9150877407020337,0.9646757265375672,0.9702659098588664,0.9576104535701294,0.9344427903864072,0.9096235324843959,0.8925189174938647,0.888305816702017,0.8935708386855133,0.8981043398321331,0.8922485511657242,0.8751257895072214,0.8510732231633831,0.8516817031556614,0.8891867684548522,0.9275433241916449,0.9527245574108997,0.9692137841734048,0.9794111895962463,0.9852548717329798,0.9883959067009127,0.9890088897025343,0.9772095025872144,-0.4355181176441467,-0.969000487306445,-0.9827445593161386,-0.9842109048398681,-0.9818809860089468,-0.9766523185255841,-0.9685323164918328,-0.9588904822551984,-0.952481216293087,-0.9543619715055136,-0.9645047795226056,-0.9709131932972495,-0.7727709911260449,0.45524582829216587,0.7851762115918557,0.8735187250031247,0.9053147922291545,0.9067171151841228,0.8912788138452653,0.8720400724560073,0.852891734463724,0.8318436652444909,0.7969022552489066,0.6986960688583641,0.20543163360502772,-0.7991955396788393,-0.9503543330575803,-0.9599208862380918,-0.9304825796635201,-0.5994684875525041,0.6002976469468091,0.8439674149083591,0.9046925326039142,0.9321539239680188,0.9405909254662577,0.9250808077757003,0.8298485542870111,0.1404837833003587,-0.7943127596625248,-0.8333088576959361,-0.6419322531451515,-0.17497542855439896,0.3664222621694638,0.626791148407327,0.6625962117461286,0.5111465939424553,0.12262029618051218,-0.3290901888282181,-0.5981300693457317,-0.7225508799259194,-0.759135450980007,-0.6787417912702811,-0.09053772637776891,0.760084694008971,0.9048445136891008,0.9318054047083805,0.9303608018399474,0.8952746865303449,0.7020309465357356,-0.4564193477574038,-0.9270675476396891,-0.9766878878642319,-0.9872494020695247,-0.990579277470731,-0.9917088361965782,-0.9909647509511584,-0.9853696560001437,-0.9475343862850176,-0.16775991396081102,0.8338762973550964,0.8923099933282131,0.8728006185743268,0.8073953555642845,0.6740560970380969,0.46157940621575627,0.24675146576575083,0.1474093712429964,0.20931665578645078,0.4481268877644515,0.751592734760766,0.8911905924191356,0.9149872711930604,0.9136586700056513,0.9075541378474953,0.9010227564650344,0.8965894979693451,0.8899735326550846,0.8640417896281147,0.7872052675626556,0.6234547340867362,0.4255497915654129,0.40843681796590897,0.6285988131099273,0.770082585740319,0.7785471044058577,0.720829431143736,0.5958696075321163,0.3461938652363174,-0.09125740009652965,-0.398280446583425,-0.5307979439770301,-0.6362320283627111,-0.722345766756434,-0.7267071017649398,-0.5796961102083549,-0.2374680866696604,0.3018508707955188,0.6687500028247095,0.6337484448946897,0.45746254008791587,0.25176317160382494,0.11750262175134624,0.12489916427450112,0.21075201358337883,0.3266829630627655,0.4460219787386156,0.5456610291159185,0.6018079897778607,0.597647989187309,0.5661859667889378,0.5622923392301313,0.5965927167293645,0.6539765825914491,0.7112787445216263,0.7505905607123684,0.7621818795959449,0.7465855854804173,0.7131236725761319,0.6793241068197585,0.6654683633147281,0.6838588687617493,0.7236616477701532,0.7711941987778338,0.822158467408249,0.8669966288038781,0.8958842623417598,0.9056505537218836,0.8908017022493927,0.8594252100897163,0.8303630797399201,0.8203757578892039,0.8352023291532487,0.8598291970952217,0.8706734317215485,0.8680344542922851,0.8545435236944385,0.8018755510660021,0.5346840546519311,-0.5039847870845184,-0.9131289367645145,-0.9718285469633284,-0.9791704845076408,-0.9593585181856839,-0.8941847256274,-0.767851270502816,-0.6291864061630011,-0.5589614844440399,-0.5714485279448736,-0.6267714626959385,-0.684195178853887,-0.726719033416861,-0.7549935069034504,-0.7694669919272248,-0.7612898287014073,-0.7272523536740191,-0.728107978499545,-0.8313806000052847,-0.9236508100029388,-0.9613094950518587,-0.9760855004494676,-0.9827456632831758,-0.9859984640875799,-0.9857235114211502,-0.9713025815589279,-0.8500518086220629,-0.04358074052815127,0.6420534540324719,0.8099400760796729,0.8601462980629809,0.8664419427791248,0.847562560396975,0.8253363166422434,0.8161294577631923,0.8199270903246713,0.8285191614194382,0.8367853296819494,0.8431727392440097,0.848469859972322,0.8545380668975193,0.86226787877332,0.8724721446126805,0.8869556916880957,0.9048810697267411,0.9232614060154252,0.9399033266212218,0.9527042180199001,0.9586913223319095,0.9583923508990806,0.9546096396654695,0.9493283611990382,0.9317483566097517,0.8103862413620025,-0.1363800069049712,-0.7648246592093634,-0.8753885824650682,-0.9097903907110889,-0.9238347967131932,-0.9290519209327567,-0.9284992780450191,-0.9158388503025313,-0.8365148857329062,-0.2426236719439144,0.5539874568733226,0.7492078490573091,0.8151692875112785,0.8533732123177705,0.8800901166096406,0.8658764248823347,0.7453463052012212,0.5076901513521704,0.16794105537582177,-0.31587814062513137,-0.6989796842983192,-0.8574225398061631,-0.913981576546954,-0.9347610060985333,-0.9407554245857969,-0.9385776754999795,-0.930686831717932,-0.910682497569629,-0.8195989870192355,-0.4774323459856532,0.030357216691441657,0.3849497569617506,0.45398719496621176,0.4432649987885963,0.5097143576136004,0.6652460792726326,0.8448369077732455,0.932477307729527,0.9177455399314401,0.8762429508392116,0.850082816582238,0.841444487415458,0.8436997889016116,0.85078791088722,0.8595900462848656,0.8696257079080051,0.8782398934779435,0.8802573821339083,0.8736788855779675,0.8607731964913885,0.8481402045639216,0.841461468564082,0.8432896147555126,0.8491138747481048,0.8522110720475188,0.8463097429634283,0.8358610964674117,0.8367163109639267,0.8655818427635245,0.9036185248257799,0.9360477800631504,0.9576216992259619,0.9698900628647849,0.9753236700583005,0.9733555081917175,0.9593898255463866,0.9124236370640201,0.7492710356325346,0.31647680596505806,-0.10416662996188106,-0.18790384498088444,-0.04555524719879823,0.1424578004139394,0.24970915090791607,0.262095786068978,0.16560948809194834,-0.13511193730642684,-0.6583106773408927,-0.9052284188602034,-0.9590130446664168,-0.9732916879075127,-0.9782466373229797,-0.9798374863090549,-0.9793944529590769,-0.9763739643677529,-0.9691124082261597,-0.9547194250967828,-0.9291351932773918,-0.8913974006253446,-0.8490401593688569,-0.8102869172551501,-0.7641232301866793,-0.6506520627128393,-0.12849645624539643,0.8030478723334983,0.9457823860781411,0.9612248113800665,0.9601801523902557,0.953518790778332,0.946397768335098,0.9479707567032379,0.9597777587721928,0.9706633648032819,0.9727334928689502,0.9682232949120365,0.9606648678474677,0.9516033894406559,0.9410152124361486,0.9263973273053221,0.9046509896345099,0.875570033525082,0.8459833684400344,0.8213240059957329,0.8061439423397667,0.8098398466432272,0.8368349314904586,0.8690327217892079,0.8744800725632558,0.8521433001585266,0.8240796532616118,0.7977651933181973,0.7719270533487543,0.7269215206050919,0.5604516352935867,-0.2941651818048083,-0.8775639980773096,-0.9040479267583855,-0.9103384907862757,-0.924568064399748,-0.9389424922850674,-0.9500718303342778,-0.9579261837373443,-0.9631782284563238,-0.9654623636398657,-0.9632928603226829,-0.9472996609976766,-0.757747543266372,0.7077003981306385,0.8438868877471136,0.7877694964419327,0.6343221883389196,0.5186858283525259,0.5910616708774252,0.7319872103970684,0.82242603036217,0.8644347393998172,0.8782813731677032,0.8715157601153183,0.8466089629499807,0.8084349427589339,0.775161047808037,0.7699272004831756,0.7907240569319564,0.8131497962226907,0.8259396889612547,0.8280197520544949,0.8155123298167847,0.7618299637660487,0.5531725490140834,0.006384670301380857,-0.4619229088071536,-0.6670569978552139,-0.7510710497601307,-0.7655026579523075,-0.7211003268087584,-0.6309357510566032,-0.5977815706296631,-0.701190096616597,-0.8126187643328957,-0.8639835810826095,-0.8734303758105346,-0.8424640094094149,-0.6601728444350232,0.6017053746109695,0.9527505407883103,0.9655386922490532,0.9561486239238894,0.9386344313159585,0.9174175676810146,0.902195614295589,0.9032902686076996,0.9136828989664765,0.9219398668704413,0.9231256489336476,0.9155287315065733,0.8984191033071094,0.8693037419429152,0.8339819144474219,0.8092600699399181,0.8114751032479953,0.8422983190008697,0.8818784362909368,0.9143482021973893,0.932179836737421,0.9338014996362309,0.9233866803235289,0.9105371633596205,0.9026866204477475,0.8977680424595446,0.8997973249770351,0.9172986632303425,0.9446171597001548,0.9670348124347896,0.9802738520540154,0.9788235725754623,0.8437152811090849,-0.7403418734796697,-0.9425609285499679,-0.9699319852375954,-0.9761449153854401,-0.9680010482244634,-0.9199307897492469,-0.6998975050370105,-0.16242784345021585,0.14480340851746165,0.052733081340591605,-0.3306839683557719,-0.6851560458588998,-0.8437400601721642,-0.9052156640681294,-0.9311992441216097,-0.9411160988466342,-0.9346576239762256,-0.8929802760765241,-0.7823119393447615,-0.5886127480514072,-0.35451927658204596,-0.13013070044755792,0.06527042337635242,0.21771017702863302,0.32074309666367423,0.39113794325202766,0.44439689292750306,0.4958186694758995,0.546394699184023,0.5748061352596181,0.522632485562676,0.2578691097830384,-0.24918269189495312,-0.5499234159818701,-0.5921297482273868,-0.47079938757567646,-0.1661228220059582,0.23599143831748334,0.5015970172219584,0.6188896939503508,0.6616353709992389,0.6339460999468913,0.4572249680620725,0.07905066074373258,-0.26216138101357755,-0.41888976450146725,-0.44729272761837136,-0.4023039455714743,-0.32314839753501773,-0.24312458961797462,-0.17794699514137113,-0.13646374386382612,-0.10352304643773365,-0.011361616820404609,0.26890088996939543,0.5049047233414028,0.5825880267080966,0.6177043270195695,0.6401507969517761,0.6574385283792372,0.6658569458357936,0.6321542977163092,0.4786623633161584,0.08106884592404838,-0.41948725403910225,-0.6826818528325953,-0.7594538139506934,-0.7181562396446438,-0.5290299099100295,-0.20437731394807235,0.057275366061252865,0.17605592299986977,0.20098991371266176,0.18688863420826562,0.1679478051844396,0.16156105180245053,0.1669642514092465,0.1541276429000133,0.04473820892812839,-0.2776323544491207,-0.6643252292422344,-0.8472507423908178,-0.9002492069588782,-0.9073016450272738,-0.8997600162893019,-0.8893525947224358,-0.8825346695973866,-0.882823700262891,-0.8904568450744267,-0.9037544454529483,-0.9194779530171665,-0.932712272910965,-0.9363879452840259,-0.8999538625791242,-0.5743214505201879,0.3081075243864866,0.6236451562808385,0.7012361716051536,0.7222158852672884,0.7291216364250908,0.7382667469914366,0.7551189709499261,0.7798265785462931,0.8074609664883986,0.8316919074794777,0.8464633545971163,0.8516878576190331,0.8498122846958546,0.8409093459875867,0.8265476604369644,0.8172927112166388,0.8169178992773161,0.81196668994168,0.7961543263202423,0.7963402967480664,0.8329706003400942,0.8777540326090876,0.897852077744795,0.8899268945320258,0.8680726409865187,0.8441815958463773,0.8193061475255509,0.779177146581444,0.6778881385089782,0.4266300122051207,0.05768907672781102,-0.1250144332396521,0.03552556118832608,0.4801470201740436,0.8035956018466062,0.9105970366873092,0.9367333265494316,0.9395267202786493,0.9398527492001368,0.9501398526453588,0.972463313538525,0.9694787515557595,0.8121514441353787,0.5217395640469328,0.3890916167867286,0.4803153898111484,0.6783619010060312,0.7942113645364872,0.7906080090961234,0.7232484052826723,0.6184606617660514,0.47958141396947185,0.32863721667848866,0.16861845549260482,-0.047020451143147325,-0.35032496468211216,-0.6172340350597317,-0.7442351791946367,-0.7499514070830436,-0.5920712018624731,-0.06625492515398354,0.43498957749066686,0.48798240901565787,0.35240191942064053,0.2925127163683715,0.43225371059973416,0.6482078254227326,0.7350369178358899,0.4992053519496435,-0.6532484438941527,-0.9302878748582284,-0.9666857854524987,-0.9750222229193158,-0.9740451853039004,-0.9600304719569724,-0.8780737259445116,-0.15204550018547522,0.6795412504123854,0.7894770903099505,0.7548123009620619,0.5943208340082513,0.21018769119459432,-0.270736343712217,-0.5488680304216239,-0.6761885518655305,-0.7480215543798802,-0.8062654747987312,-0.8596287623337548,-0.9011942902704367,-0.9274758622593485,-0.9414958216497941,-0.9450111996753869,-0.9326729049913943,-0.8881644506594992,-0.814573115351487,-0.7500493332335921,-0.6852012837285302,-0.5133681657188034,0.022013700722838668,0.6658494026121444,0.8820299692162147,0.9437752653828032,0.9655731177040322,0.9730684602662427,0.9721455922064318,0.9654530714423755,0.9555587618723796,0.9412199537275506,0.9208701758671145,0.8982500407268929,0.8798188569344114,0.8684135975261129,0.8613870337295285,0.8483430865478342,0.7824850179404635,-0.2797064588545308,-0.9481093182317756,-0.9544059091228175,-0.947976329285859,-0.9333895999799643,-0.9126199196554718,-0.8942607750607532,-0.8880040460298086,-0.8905284265558794,-0.8037120644420307,0.6162001888565688,0.8651323342812053,0.8981156957177002,0.9003230179130111,0.8911795836110507,0.8776230308249591,0.8662513862378599,0.8650395832292943,0.8717097501608616,0.8714826534042647,0.8176058246184249,0.2368527884637282,-0.8666505403517953,-0.9614041579161121,-0.971697369155266,-0.9638545433625803,-0.9296337508986378,-0.8204717815291194,-0.5216805863392552,-0.07755175765134478,0.23668622823248597,0.44584125694274335,0.6399601987637418,0.7936330496331648,0.8610160559286658,0.8734279294195869,0.867285402612557,0.8548719549912379,0.8375926030203577,0.8124540609097888,0.7630259474439822,0.6131469705544728,0.1356809648104063,-0.5223002323377142,-0.7850693639202742,-0.8526861313534454,-0.8584449629508046,-0.8277623798995986,-0.7527263017782547,-0.6111021425280458,-0.39512783535821455,-0.10806614496605733,0.2224852946468701,0.4986746943736683,0.6612808634603744,0.7409904124808149,0.7750361708459655,0.7854263837638437,0.7848316775568785,0.7864566126600842,0.7986875302711759,0.8213567474223957,0.84745916740056,0.8697412510481627,0.8848085906928729,0.8927178694623779,0.8942222962522385,0.89168103648422,0.8918918320214168,0.9040571940905953,0.9269607711473846,0.9475978990429269,0.9583945778380192,0.959445025601207,0.9446616700278562,0.8358735285435374,-0.41263599809857215,-0.9062784646111798,-0.95138161243525,-0.9601874214424571,-0.9595878427715123,-0.952984422635659,-0.9380863703596622,-0.9096158863652183,-0.8668352918953472,-0.8357050245434833,-0.8483938864772094,-0.8854645449988933,-0.9176779135702917,-0.9379281756879695,-0.9484563709727347,-0.9508972622315193,-0.9419576738995515,-0.8903461837247757,-0.34850747590880565,0.8016793097952293,0.924221343532245,0.9438187485869975,0.9454497150290083,0.9342865422433173,0.8966932758638606,0.7690409030595475,0.4026576031334668,0.026875089760682116,0.12195238798609233,0.613895101015615,0.871133779160855,0.933079698626348,0.9472654465166164,0.9494978159056495,0.9492133676503637,0.9502475484017742,0.9534791626419338,0.9576361378646159,0.9609710756765688,0.961150136348272,0.9579143584291635,0.9508066891193055,0.9401505107266208,0.9263696610281406,0.9126775661714414,0.901941483327301,0.8919231554736734,0.8754894387544624,0.8444977108195918,0.7865540440620532,0.6908814387775966,0.5586756998713225,0.39608129235703815,0.1979294845275125,-0.09847358634748353,-0.5700425979510738,-0.8784399893147262,-0.9359655467896298,-0.9371762326969241,-0.9282421762680976,-0.9148805159394955,-0.8937743312228126,-0.8506783346347716,-0.7314971798184501,-0.4009620265316183,-0.003098047444735789,0.10176339313531879,0.029565249495717816,0.032694512401166276,0.2875403774219771,0.7270053373585025,0.9402137917229006,0.9866023068257455,0.9930472485379855,0.9877060552781762,0.9743388682216249,0.9530305542809456,0.923345567939915,0.8759784204637954,0.7846401316284259,0.6001413264325632,0.3334900959940935,0.09814049302977629,-0.059656952622431994,-0.21345194882103521,-0.44348761445543916,-0.685421457130502,-0.8199618926272751,-0.8612008251941464,-0.8510742985710827,-0.798743533244433,-0.7080120553575667,-0.6250188650082971,-0.6476366643589873,-0.777790794108847,-0.8312686267042214,-0.7584132011821741,-0.6184992381357741,-0.43886431783418783,-0.25632947125536176,-0.10066533621302787,0.01932814320588669,0.10310766710118839,0.15461532139288592,0.1977733120267239,0.27047400225084733,0.368607666036632,0.4267288828506609,0.4076279441960218,0.33664660383563016,0.23743435617534214,0.14301657969857623,0.08278760574516697,0.082358064172824,0.14305876138340853,0.19183743766044536,0.20910411093056608,0.20170863419648255,0.15831419515173306,0.06508436987667145,-0.10380633678963168,-0.40907025415206794,-0.7988327493207071,-0.8892985013196065,-0.7726354553275608,-0.6605856208871428,-0.5946403372046477,-0.5882485382067315,-0.6294417525354125,-0.669768130405972,-0.669484033371501,-0.6020515131467421,-0.45303214781252044,-0.28247049784552714,-0.23905156555658194,-0.3421465522964896,-0.4844807776263216,-0.5925933893180522,-0.6536310240733386,-0.6720871112535297,-0.6365633311316551,-0.4909798816817164,-0.1436852471306482,0.14774571724082164,0.24041621089051574,0.2926215369377443,0.3759576978214679,0.5042051454560785,0.6575350286013134,0.7920904820828506,0.877461015705741,0.9196756435104375,0.9329498301139333,0.9285133087002396,0.9066807557466711,0.8314399275455769,0.29792288775614933,-0.8465094216686505,-0.9666510148465103,-0.9822777300207504,-0.9849720833439504,-0.9833454881933822,-0.975601352834105,-0.9453990815144977,-0.7900508054804799,-0.21657491293293807,0.08498533019678586,-0.24319856917509683,-0.6362895804254157,-0.7525838517051301,-0.6881869241182802,-0.29878935342437507,0.4225388774688948,0.7509721460433059,0.8548795491181816,0.9021006510382118,0.9289569658060288,0.9412155982605633,0.9428971733140902,0.9408739132669209,0.9423685288100664,0.9495706960466767,0.9536738207087616,0.9431800241924287,0.9194665173461941,0.8906629750445946,0.8677210814325617,0.8547413836388307,0.8456524684518003,0.8319341182641763,0.8096702919827317,0.778511346697445,0.7454639971810848,0.725413181176065,0.7092376226730716,0.6605669972022077,0.5956880869001792,0.5581851335077123,0.5562432413549301,0.5825718309472236,0.565171719765132,0.08528867743416352,-0.3975091044636298,-0.6085122802087962,-0.7099701429998417,-0.7124601309188316,-0.2779268672818412,0.7078287444873286,0.8680757217908546,0.8938275827762516,0.8931425374803282,0.8836293782316371,0.8747151594553663,0.8708355380633859,0.8742136030316373,0.8834675740800966,0.8932472658466734,0.8994733373422075,0.9030056725623983,0.905549936244075,0.9062596793234045,0.9030203578875888,0.890417443996721,0.8671390773426182,0.8294190345267669,0.7784965900538673,0.7192272310849797,0.6485729940566427,0.5342576559890411,0.272421244784116,-0.27186710700861155,-0.7117150473822947,-0.8575138925943295,-0.908499338638275,-0.931717035877444,-0.9439239779350795,-0.9513194056156249,-0.9554008089387112,-0.9561135229991663,-0.9515084036267645,-0.939271727249548,-0.917305468539893,-0.8870591579326835,-0.8584198392582973,-0.8476695373529006,-0.8640198307834586,-0.8985484673321801,-0.932233163237108,-0.9542221423850485,-0.9641875151260414,-0.9590131002891693,-0.8708963955794939,0.28520344152029276,0.8025330238461927,0.8560098230953288,0.8652365558438931,0.8707205298745607,0.8795791636009995,0.894109756643569,0.9126562389592721,0.932012361734515,0.9499936409971441,0.9637737150819596,0.9670977104279216,0.9530400344584165,0.9235595761509675,0.8947972598888462,0.8821975483500867,0.8833170262197277,0.889962198993226,0.9036737286317716,0.920803899991108,0.9307279674792757,0.9201186730621634,0.866562577233377,0.6950936729526899,0.2855170424052616,-0.12676382810474623,-0.24597721548765375,-0.14373256049496022,0.04061693650067323,0.15413881114828565,0.1713075632835515,0.15334659595767292,0.20427920198547858,0.3914406380554793,0.6054689979651241,0.7363688717401997,0.7937990864872534,0.8140875450548232,0.8200447563453565,0.8214601498296977,0.8231396773772455,0.8275234754981727,0.8369496732931446,0.8513482557238835,0.8674488810646758,0.8794524796066044,0.8839812567197405,0.8796375676701998,0.8654239559604858,0.8393038211626469,0.787951908133059,0.6802756410478883,0.42266445350630616,-0.09485845713540286,-0.5844516744093304,-0.7929243288644128,-0.8480408407793218,-0.8205790872077775,-0.6401942511243055,-0.07740160679388618,0.4389120872310954,0.5117260250911165,0.08314784394342231,-0.7203894267156086,-0.9162433147779,-0.9434645948568449,-0.9263279680419116,-0.855310947541996,-0.6356901087771312,-0.12899898538303184,0.29412443464399496,0.36062608082231856,0.12298300114973887,-0.22023861465362773,-0.4123900549173468,-0.5183246946498656,-0.655242298356153,-0.7447479197304884,-0.7149942355099775,-0.6839930989527075,-0.6947020027981959,-0.7330988029218863,-0.7756464163624398,-0.8062828095870944,-0.8155734332037997,-0.7847613821261709,-0.6398443147921107,-0.15750911212041366,0.4249520582837274,0.660480250926915,0.7607223681071125,0.8233562649933751,0.8541917579475733,0.8219591071600885,0.4998746285620244,-0.6214679338883625,-0.912501929522751,-0.9591820369398114,-0.9706798140455929,-0.9713661850417997,-0.9647407777413487,-0.9512258422836306,-0.9340696153932222,-0.9242233893616493,-0.9123543091518833,-0.7002108465655587,0.21473156477461686,0.6607091545963067,0.78466552499924,0.8281381882851129,0.8436609503525698,0.8442787025508307,0.8355557654749157,0.8183460314013006,0.7937151657232613,0.76093258624217,0.7217954210769776,0.6773029233958954,0.6219792421827426,0.5487290273081971,0.451516038662371,0.3372784604939641,0.19756207802374845,-0.06055660267861059,-0.4714472478412117,-0.7569470140583668,-0.8634021047250824,-0.8914580388511885,-0.8729835172474827,-0.7633049186837844,-0.3638685571081913,0.300784194947193,0.664967599355231,0.8194741658532122,0.8945449072314623,0.9275342228307929,0.9336498263330518,0.9248116780738274,0.9114585643063623,0.8968944863556396,0.8761015183672207,0.830720065344698,0.708692535960645,0.34599527783609185,-0.2282614880943449,-0.4051898058712655,0.027233974217196838,0.6917920730548269,0.8485594320067862,0.8962034708686627,0.9280135631531942,0.9470743584956954,0.9538596719683259,0.9567403985749717,0.9626094656507977,0.9680036188401526,0.9539632741650561,0.49512370195866545,-0.8152797093170653,-0.9145113660816439,-0.9287974486775459,-0.9255168004213236,-0.913528067046167,-0.8915709205357627,-0.8337279589622416,-0.553282511747117,0.25980405229392645,0.6551401416943502,0.7610376021435832,0.765459764907658,0.6920304739977993,0.61985565581841,0.6576636684187268,0.7307247562564155,0.7574325348607293,0.6800027220493233,-0.06844768756957213,-0.8347239488766341,-0.9190212064384696,-0.9396768750779775,-0.947799916691026,-0.9471943128855287,-0.9327885097781168,-0.880936385170878,-0.7209741964629547,-0.36646465279743295,0.018129551757201726,0.21640733976619012,0.2299926935930476,0.07387691036517204,-0.1972566840181698,-0.429366165792796,-0.5622035961080314,-0.628688389998542,-0.640858514109856,-0.5832923160545188,-0.4241252853444693,-0.13758018048187082,0.21437764288201677,0.4712031503640887,0.6478663439629497,0.8025312663165569,0.913583419715733,0.9624664544388276,0.9670957147331463,0.9524500757167692,0.9348792373062834,0.9202573504402072,0.9089814022803325,0.8986914515146145,0.8862411229795103,0.8743911054950676,0.8639468602294506,0.8474414520661956,0.8196248929699218,0.7863765284247396,0.761203654287643,0.7543286009651334,0.7620974273374678,0.7711454266180773,0.7690116666017476,0.7552492807289978,0.7368765722007912,0.720975319857905,0.7125377251200938,0.7155991227670918,0.7309493132018697,0.7594890732485748,0.7972549525494931,0.840297516190157,0.8782487773905776,0.9024790130854646,0.9151295355153873,0.9228793855635747,0.928406076531384,0.9325866949753482,0.934304639414245,0.9330589687262265,0.926529524816872,0.920123442263952,0.923399039763744,0.9358956882059525,0.9438401101993786,0.9301678689521423,0.7909241392250526,-0.5162323169078908,-0.9152157540242613,-0.9560884935325151,-0.9653072706434218,-0.9658841427014777,-0.9608557887702529,-0.9499757373958064,-0.934358026739244,-0.9173876336616614,-0.9045761053676649,-0.9012375698785808,-0.9082714932728997,-0.9177118705038428,-0.9200349407015395,-0.9048649370996852,-0.8417730935865477,-0.6644516582710764,-0.3305214043417158,0.026283827447383855,0.2720582234908273,0.4243192117279088,0.53688452818068,0.6418716659087813,0.724691688322059,0.7546819583717709,0.7592615578262527,0.7747080102013325,0.8094633091796151,0.8431071186761249,0.8584270864974869,0.8524628437149031,0.8317764703899857,0.80792425905466,0.7921224262900127,0.7915280259324771,0.8008384413474515,0.8124488455738511,0.8226742566247134,0.8325828512634831,0.8430349767017985,0.8526387498057936,0.8597058434210515,0.8701524189166097,0.8875805843933414,0.9145796972428482,0.9425261409935617,0.9381411378441612,0.7376578260950906,0.07819277825574376,-0.504638492532556,-0.7833364799216385,-0.8968014858916014,-0.9413344972528362,-0.9584230913655735,-0.963032668726378,-0.9588955842063248,-0.9435352423001372,-0.9083800172251102,-0.8399321407003008,-0.7247474485618854,-0.5660989595591821,-0.38693722910489714,-0.22578442323795642,-0.1958574424143845,-0.3630363367773704,-0.5817695834883284,-0.7087040396168649,-0.7625403668255734,-0.7871118646769409,-0.8108713046657603,-0.8459057412927791,-0.8883699641817455,-0.9266223373350104,-0.9432397768331522,-0.7004662363674393,0.46990069385806615,0.7331181332498654,0.7792622858724836,0.7853130177638121,0.7810189752262616,0.7833908397495444,0.7954861390265134,0.8149969311423957,0.8378225252740331,0.85710123865496,0.868827730914187,0.8746333311538509,0.8769553517267584,0.8781251564570124,0.8784788102963144,0.8774222273035029,0.8765563827454618,0.8826209575709887,0.9015692341025993,0.9287707622666976,0.9342801334605809,0.8501260110501915,0.5934596986462413,0.24976325871006153,-0.01513076722870391,-0.1811127413165506,-0.30515468254928846,-0.43687613679151077,-0.5734765071830589,-0.6729275993768793,-0.7035895298813145,-0.6310660747734592,-0.4150548770415478,-0.16442615458015178,-0.08380138361977221,-0.2754970303973783,-0.6271810259667764,-0.8434143393451612,-0.9238212897993586,-0.9547544309118848,-0.9688015768181977,-0.9755401167903753,-0.9780275133395856,-0.9760627371598559,-0.9622991633723782,-0.9017767072881223,-0.6636546750227361,-0.20060636352855116,0.12442679100724016,0.24961323306435337,0.26120822688086287,0.23565471312256833,0.24375265844268254,0.3142784185335005,0.457621739937108,0.638476917438853,0.766630652670254,0.8102138655962474,0.8090456586499811,0.7945285211028222,0.7785598656468238,0.7666748682735685,0.7605471628073788,0.7588725862152642,0.7623875716462326,0.7719174947705798,0.7900439604352704,0.8140520315747547,0.8379977403085781,0.8423834294759287,0.8156677294563178,0.7682811249775836,0.7253842877428864,0.6968243430409872,0.6794233716022499,0.6738635806884642,0.6775652454078244,0.6943162926601816,0.7084948906046149,0.6966990041097141,0.6831889261828725,0.6875213217473803,0.7107539570262902,0.7573647554162461,0.8345145081975723,0.9212335358437098,0.9119200293242561,0.8191007775461202,0.8012034245934198,0.8696383464273922,0.9346382736164361,0.9495787419252605,0.9364160335276802,0.9171609876827327,0.8932987831781439,0.8547167368666523,0.7731367594325896,0.6276734171730346,0.4924883925433207,0.4907353753002297,0.6275053588905196,0.7737760108095368,0.8383603568900809,0.819359362296377,0.6694181007511506,0.18521857935257885,-0.49105287608031767,-0.7821118698241316,-0.8740637009635374,-0.9074361491839311,-0.9215610708856296,-0.9304515939824385,-0.9403518374162083,-0.9516450788926902,-0.9612816540278654,-0.9668364427861303,-0.9682139098044291,-0.9665938727169324,-0.964529662654756,-0.9621801634900788,-0.9006916181010155,-0.283251147758316,0.47765287094422126,0.7597206115722471,0.8931317345292085,0.953398098102777,0.9707171295012824,0.9726379198975703,0.9740779693637234,0.9777688529859774,0.9813339537826868,0.9787948777958334,0.9600072681069243,0.9107717309949259,0.8475879301471834,0.8051358338415872,0.7943437081551779,0.8090200834287444,0.8373804693717759,0.867978768235731,0.8949215556097355,0.9172880703119072,0.9354656834501472,0.9480370899210567,0.9543418388788365,0.9519888311657274,0.9261479454016937,0.8087950012161987,0.24730753136231615,-0.6256793603728306,-0.8726328846616714,-0.92447671252098,-0.9286516112231409,-0.925655553283856,-0.9427007121949245,-0.9696144914651508,-0.9623173195239765,-0.9277807347661233,-0.8934113279721541,-0.8733589526504378,-0.8746556280807263,-0.8940446360662114,-0.916005085661257,-0.9305389040830296,-0.9333564732461814,-0.9180771558013474,-0.8656550810475748,-0.7346640607807725,-0.4658023804339083,-0.06820326281420548,0.32190659109037817,0.6020158479757111,0.7672963505060785,0.8420797481068505,0.8601201264536839,0.8511748905597416,0.8211698502028322,0.7623257960078769,0.676731883819175,0.5998676222650687,0.5830571770190206,0.6460744467948489,0.7555852070285286,0.8409251913348055,0.8805213698066036,0.8858224341388901,0.8706245676901866,0.8486548289912352,0.8368706624722967,0.8457298383811647,0.8668918228081751,0.8862349809569641,0.8979618856725837,0.9026049881794362,0.9038535896507571,0.9088001384566441,0.9202701150460137,0.9307227184094204,0.9351344062759854,0.9304531530981182,0.9165448112390653,0.8981753727254542,0.8803646971977096,0.8630130837586683,0.8402481540760122,0.8078591395225523,0.7622559080746529,0.6989095673771839,0.6023154660889803,0.44664126502956786,0.16693343844679065,-0.31347077155788955,-0.7593229317956182,-0.9346379574610147,-0.9624273795680198,-0.9615792741147136,-0.9608023371707372,-0.9612475478893245,-0.9598633868615359,-0.9538432987438741,-0.9397392754782445,-0.9109457568524698,-0.8562612641912213,-0.7624650967963399,-0.650145216713248,-0.6016246015691297,-0.6652298120609784,-0.7728713078507025,-0.8495897229358738,-0.8853596473338985,-0.8828687802811571,-0.8145977240952125,-0.5864999754433795,-0.1299238255157344,0.3148772834549629,0.5694422766766173,0.6876168131355981,0.7374020019205574,0.7505458458726689,0.7427507079823521,0.7265793682931384,0.7157811311222104,0.721303302978656,0.7299533610138972,0.7165278914279634,0.676372149390732,0.6303889460077612,0.6085055961117234,0.6005015851986218,0.525515529743814,0.1979565689616738,-0.3875318706975558,-0.7278680617011559,-0.8512615189844679,-0.8913379227863184,-0.8815019823202873,-0.70137199752925,0.4967104521684709,0.8892210766694889,0.941057059013861,0.9537760234782237,0.953850628850837,0.9457578735382589,0.9249316871050541,0.8112798352762273,-0.8034977335665455,-0.9663362710399476,-0.9702879650625713,-0.9643568505661609,-0.952226502192512,-0.9304173834026608,-0.8877814456380209,-0.796098490345375,-0.6027466168226033,-0.3132170658309623,-0.15099108749698256,-0.33419918818053757,-0.6944224139266121,-0.8522751159270646,-0.8872233977001557,-0.8869717916966947,-0.8664250509801981,-0.789513567454991,-0.4460081136486889,0.3470435308411461,0.7172123264408907,0.8281708753829551,0.8715926066202132,0.8909316998061483,0.9007638303819409,0.9071185513335723,0.9133683242727513,0.9190878205862067,0.920908996501694,0.9134117411068663,0.8928066828287836,0.860568753036989,0.8217064438741712,0.7836754067816065,0.7538985257784928,0.7394817858738778,0.746176967607548,0.7711592406157018,0.8014492949360281,0.8172977703019728,0.7927740832818346,0.7173104943537362,0.597617892436825,0.44107187539956644,0.25998290212164443,0.072678537599968,-0.1238168033942187,-0.3253091885231907,-0.5013947645679384,-0.6318168326150184,-0.719442933801354,-0.7782718646011322,-0.8152540437224463,-0.8302698450211143,-0.8057396181809028,-0.69530410999328,-0.441847622146103,-0.09282535006999532,0.18922024922529276,0.36724027312407487,0.48772534292538705,0.5889137641706316,0.6820633099985962,0.764463060877604,0.8203971131745355,0.8376791133695793,0.7664906277189533,0.21831855840867456,-0.6790691905767736,-0.8912908247631062,-0.9433320166754736,-0.9480506794536706,-0.9154179191897844,-0.8459803947263351,-0.7377200119116597,-0.5499121936242048,-0.12421472634718711,0.5563380937133913,0.8250716667735608,0.8591599126082579,0.8527996995088083,0.8484793763353364,0.8568390930203755,0.8762537927496442,0.8953003319330162,0.9127897755811514,0.9349655497006236,0.9459232380151155,0.9218222385708933,0.8614909292060863,0.7790388767909194,0.6818694411362423,0.5806300315535691,0.48272512298886716,0.4155789042197175,0.38642083472613575,0.37592737873097287,0.32498495609028455,0.15229246295529444,-0.20930968265511388,-0.5851485093247153,-0.766707826630837,-0.8182449974609431,-0.7988293185364623,-0.7114678256949855,-0.5508850800375956,-0.3931694521280089,-0.4064534491972629,-0.578469246052602,-0.7363340852606851,-0.8204939328035497,-0.8565744075675094,-0.8671558371751441,-0.8776131610958244,-0.9015709244900496,-0.8392239595999434,-0.7341503483649151,-0.6857413088162809,-0.683014586657651,-0.7037472196442889,-0.7358934171572065,-0.7716106785041728,-0.7917098222749385,-0.7614978182905026,-0.6333008253232715,-0.36820565459914883,-0.05466373004717602,0.17043767402080992,0.27127078930632226,0.25448769123598636,0.12367616403362379,-0.08231598984805713,-0.23825403522433183,-0.2627577856284959,-0.0949887535858634,0.4243035349662578,0.8754109319684035,0.9372112417584649,0.9252450437614228,0.9139295307061712,0.906938553334217,0.9007294266684002,0.8942517545338741,0.8850344820244429,0.8694015951765243,0.8433307751891859,0.8039966643509608,0.7511013187265805,0.6752741196834375,0.5339298586604418,0.019728207171559816,-0.8302505665451438,-0.9613401731289062,-0.9765300759568932,-0.979486168367758,-0.9779705964832794,-0.969413789345214,-0.9391553270974184,-0.8253685861343759,-0.5117558968734199,-0.29988726836646823,-0.49274993511796944,-0.736657882683496,-0.8394269996441887,-0.8639910085368727,-0.8436669340963804,-0.7718214842543965,-0.6042450554907339,-0.28059855050270743,0.11672654321615135,0.388964081538492,0.5285400118179935,0.6082115966405622,0.6627434636662116,0.6939674832185528,0.6974427502592104,0.6670504292330368,0.5902707362406249,0.40335043377251867,-0.03911311585873096,-0.5644201481043283,-0.7841834510970697,-0.8139724472351952,-0.7297136031546744,-0.4443354868863486,0.071565047054233,0.42661416444418904,0.5758071536682728,0.6472770117768746,0.6873662664050485,0.7048836239527114,0.7106883963543565,0.7236019506678093,0.7619737883118233,0.8280389068551133,0.8936253358609021,0.9350918407758589,0.9520966855377052,0.9562148451627768,0.9566530278679142,0.9550686574635365,0.9479763011379077,0.9277513803304485,0.8806370776321464,0.7878373728783851,0.6407324897323518,0.46346255469052344,0.31223512974793166,0.2669389864048883,0.3185885250087246,0.3602727586367147,0.21331000188127713,-0.3587094027692777,-0.8120974878276329,-0.9247901054719714,-0.9525499268943592,-0.9592662791642004,-0.9584572568712203,-0.9545128139519993,-0.9493222203686765,-0.9356129700202415,-0.8437245750150316,-0.44521255380194324,0.06328599963971986,0.35245604106937517,0.5298871394292232,0.666410630298481,0.7630359569203523,0.815210730280725,0.8333443672780733,0.8295839961927949,0.8228412994794453,0.8238995359732444,0.8327793292961269,0.8421004969942194,0.845296060042925,0.8411564362412653,0.8332627103061379,0.8299191657939068,0.8353068192588105,0.8482298578265082,0.8649881512658715,0.8797213246703603,0.8876317835837569,0.8938433583938342,0.9048080404050746,0.9173346968246384,0.9275753030519577,0.9379867764201136,0.9470226666965526,0.9424412398309614,0.870494144564586,0.28499936574204,-0.6751592602782288,-0.8570064633433699,-0.888794627547988,-0.8781819814636943,-0.8530970731321155,-0.8624906356260195,-0.9079782681278721,-0.9419881424573018,-0.955788156461482,-0.957801576845143,-0.9573998475128431,-0.9604461855278081,-0.9669195069843904,-0.9741587329548015,-0.9807956230575644,-0.9862511340668081,-0.9877645488933108,-0.9710212303468656,-0.7940354564103139,0.4960277834109245,0.887532591264572,0.947125283856934,0.9652383922478003,0.9704592571097541,0.9656655701990408,0.941935537185413,0.8707364035789773,0.7590142498421715,0.7054901129869924,0.725024252994344,0.7662727058845308,0.8038659743585126,0.8385518135025131,0.8715218466656702,0.9036488193618887,0.9269439587449595,0.934004479005091,0.9222864906950201,0.8913563097640366,0.8407287689086729,0.8047655655776355,0.8234618674137482,0.8782400866067217,0.9280125428619468,0.9456883837872526,0.9291926771477014,0.9023411338509406,0.885998173957141,0.880876207990305,0.8756305599880914,0.8566149656307475,0.8162151310271367,0.744846883191384,0.5437715647507737,-0.28649710810753115,-0.9106698230435618,-0.9841320004243024,-0.9930187263499102,-0.991844126600062,-0.9869957864991395,-0.9770974464969518,-0.9543385365099248,-0.8659808953791391,-0.1324202991398434,0.6942525076966829,0.7609636821549877,0.6758471743848049,0.37350707682836987,-0.4222723357838519,-0.8473998532175139,-0.9180857041980118,-0.9225452571091223,-0.9010996530225952,-0.8450878440775849,-0.7363554717995013,-0.5879232808185726,-0.4612232942562296,-0.39439130667768524,-0.3737073274382224,-0.3542191713248191,-0.2950977952188789,-0.1844624398021922,-0.06210899443923347,0.01368648401119554,-0.005505631472168029,-0.11760651065578998,-0.2945087797403654,-0.4970519518958016,-0.6775385829762112,-0.8044373719814643,-0.8734500837670628,-0.9047965025075152,-0.9157204501787107,-0.9118681098854426,-0.8863497851645084,-0.7691490009620193,0.01791062039102944,0.6805882021679411,0.7606143509198352,0.7753668642609027,0.8128919466150695,0.8858703614356608,0.9036914105274475,0.8272811107955527,0.7867841193792495,0.8074180868475654,0.8182817373432812,0.7912728548585121,0.7677991079748547,0.7753860690935876,0.8122416411092965,0.8549621594051927,0.8845878146258327,0.9038807495002831,0.9111701876885729,0.8919447811922391,0.8636948924377659,0.8518171367497179,0.8640226591911048,0.8940731381040897,0.9302602722002086,0.9598579382805649,0.9767004492959943,0.9769725408722721,0.9190271569855645,-0.23420744427621074,-0.9230457819006851,-0.9736752178465143,-0.9852435780554867,-0.9854800502771712,-0.9614792088053781,-0.5604720532137131,0.8283965296087312,0.9360865000297768,0.9274704412065038,0.7273206217972397,-0.1374241969454068,-0.5391854265952628,-0.6126016907751253,-0.5920633642758212,-0.514635931143901,-0.3886998488774338,-0.20464940024001907,0.06175175414370584,0.33738067056732796,0.4933584478878612,0.5415890063816595,0.5238317067315588,0.44982794337024007,0.29489224463078045,0.061739524294587816,-0.17938873149967657,-0.3827291278656613,-0.5408366945971039,-0.6499728134709697,-0.7006585978687728,-0.6958545971934169,-0.6649981436796127,-0.64002248599395,-0.6275050605229056,-0.5981162135343856,-0.5187866757313746,-0.3827214938525016,-0.20916038248123342,-0.03636742128423565,0.09178039652575835,0.1575717346066434,0.18169872208685361,0.19077875836875244,0.21099379703498336,0.24883981659777366,0.2665206637765309,0.22067872343027506,0.14482351724734613,0.11048929476528502,0.13037412453881658,0.19065423579300023,0.25994244547170153,0.30323821070875856,0.3089646935387739,0.28835381640001506,0.27589565289342716,0.312932431198511,0.36679623754593177,0.3351001866645058,0.2907501307216407,0.23598251903569664,0.14110818125486804,-0.04853405855147926,-0.3764686848848345,-0.6419448436024442,-0.6859853498487934,-0.6149494315140421,-0.5053824768601021,-0.38903604584039364,-0.2430323235845831,0.05200592476727006,0.5716375126725528,0.8080464919141659,0.8773268355572517,0.925661850240559,0.9565556948454488,0.9727052050678572,0.9798716897875624,0.9805703297342679,0.9755682687087233,0.9688999948102222,0.9629453188943448,0.9561552494481708,0.9423123781253838,0.915147116797718,0.8652727782615209,0.7663507171676245,0.5456189655943894,0.062803670072938,-0.5072841013647912,-0.7844217958753501,-0.8851462262963347,-0.9283063213054624,-0.9528423913438514,-0.9685361813568325,-0.976472884064243,-0.9788171712472532,-0.9785380679311272,-0.9761477039925747,-0.971990031329531,-0.9661755488757642,-0.9584068711785823,-0.948222409902553,-0.9328357902214086,-0.8990403107547159,-0.8056455735025776,-0.5654629997754905,0.0015341127227719623,0.5596998185890782,0.7736853493490252,0.8464326197951157,0.8694145225616277,0.858916267808769,0.7927305727447561,0.5450962113785166,-0.0015442485119965355,-0.026820537705340465,0.5531699317066117,0.8324369655342847,0.910092922576933,0.9382670180991334,0.9489059158283975,0.951024747436226,0.948793953706984,0.9462669349426526,0.9451080382186069,0.9454931710958236,0.9458729697291792,0.942132305326416,0.9231049874774127,0.8518444706492726,0.7207244469772685,0.7076197189141105,0.7787470385372712,0.8201033969431487,0.809909929332958,0.7272710852479699,0.4754668250136842,-0.07917568286183156,-0.5640492216489754,-0.742423679967087,-0.765767357208572,-0.6590313119618074,-0.32483370213019264,0.17465342492823108,0.35942746368607126,-0.18477498949224014,-0.8394656281203908,-0.9439977438606694,-0.9654709316600555,-0.9721190079755325,-0.9733936536074158,-0.970042105949112,-0.9586493566903683,-0.9274771531387896,-0.844793956722371,-0.6855391703192721,-0.5606595684409762,-0.5737549881493155,-0.6483943689367524,-0.641676420488264,0.16443213890203628,0.7663594625814704,0.8488581952834485,0.8772581014991722,0.895935391267945,0.9131847463858123,0.92960623438653,0.9422293329958891,0.9480691310417261,0.9448017599351501,0.9337742969299007,0.9153054814131257,0.8906242394393326,0.8637180370497056,0.8388476446622283,0.8181376427119808,0.8073154114609095,0.8130932164004141,0.8383922079976648,0.8759101853638401,0.9088429628859168,0.9242422681271131,0.9241458995965119,0.9191031871557562,0.9159025861346043,0.9141549302336958,0.9149178249922187,0.9192732596690616,0.9241788208377583,0.9239419863451384,0.9168177134571039,0.9058395750788705,0.9040916517578655,0.9166649445733517,0.9301873319850288,0.9119892855044986,0.014883329137548413,-0.8896427432510768,-0.9307172961599779,-0.9307919306891482,-0.9116517145913486,-0.8612130127939921,-0.7308450343504246,-0.3615690546042956,0.040860746872683165,-0.3125957676841784,-0.6810762034180352,-0.8274831318884016,-0.8799392061622442,-0.897312503124507,-0.8989695245517327,-0.8945621998712385,-0.893670659604613,-0.9005130320664848,-0.911451873507597,-0.9221185022956777,-0.9307198269723388,-0.9361769617593995,-0.9366651830120847,-0.9296476821990473,-0.9129678549860321,-0.8893623450689142,-0.8742120619494925,-0.8793369936889059,-0.8765381560515118,-0.7677484390528857,-0.2909270621144912,0.24783787447314712,0.2635679132153748,-0.2588819232128741,-0.7449609247710819,-0.879565141006115,-0.9103691964728567,-0.903815927792732,-0.8184808744694119,0.29401917015526,0.960332693196192,0.9888784163358186,0.992886376161099,0.9929815856703045,0.9904998898256057,0.9863373065172167,0.9817933456011695,0.9768223821932761,0.9694513202379966,0.9592741817920124,0.9487884816999445,0.9388563253496293,0.9296938676855109,0.9186084282805476,0.9053032503467098,0.8925658706334278,0.8807730232007519,0.866224540163329,0.8477868194111501,0.8280618253725232,0.8078867085049025,0.7850850990818178,0.7528827611331254,0.7027217101170442,0.6285096765122861,0.5427640665021914,0.4713890339626197,0.44128285246637833,0.46729894724142146,0.5442277291754383,0.6370877199478081,0.697385894351322,0.7052100355575993,0.6684231978130974,0.6099595544871608,0.5448711955375902,0.4942429169965124,0.45829775644058657,0.41751832641445136,0.3305877780182484,0.16548007513839363,0.015233855492136518,-0.014804392660149785,0.06602570217641202,0.1531048147627742,0.16073468238002644,0.09320509021651181,-0.013599456340129983,-0.12309465385364901,-0.18383024465274328,-0.14361252382791848,0.04643708806115824,0.3383851661006938,0.5482504149792667,0.6442089230121798,0.6875397424344519,0.6744895950045906,0.5303332241062448,0.2769485610075059,0.042799730007873675,-0.14061688494149854,-0.2799198840055049,-0.37699802088704454,-0.4413101353870466,-0.47796571894826617,-0.47680153734298597,-0.4532467518759357,-0.4728615047801282,-0.554539630152287,-0.6662936995804413,-0.7662863470578128,-0.8263315983211676,-0.8552626437951345,-0.8699930068697092,-0.8789828649315428,-0.8860719752341886,-0.8886137485843447,-0.8822803906046778,-0.8689624557909202,-0.8581442910731567,-0.8594770182690022,-0.8726286188806451,-0.8931648999443897,-0.914856733402512,-0.9333296252565783,-0.9447282881642347,-0.9467248222034502,-0.9358470019419638,-0.9063498486585552,-0.8422823026757653,-0.6924781705824532,-0.38981032126829035,-0.04647823171851703,0.17460794195907278,0.32844608213872606,0.484458977117655,0.567468488529807,0.5383407592446352,0.47510050697177636,0.3766484057708118,0.19238344537724802,-0.12858055133502352,-0.47638449190840404,-0.6734135015652406,-0.7429211056689352,-0.7364011150917281,-0.6661096169519661,-0.5389080891195841,-0.32936045277520887,0.18725843139329856,0.7322116429779825,0.86567476763721,0.8827714825253012,0.8759106976685869,0.8647269035451035,0.8520410738887382,0.8370729887306964,0.8272478478094997,0.8365131016949687,0.8783558282186564,0.940213189329497,0.9846602700546344,0.9907268600419302,0.9785353754136425,0.9686281749157557,0.9643673599643354,0.954434540007615,0.9095962128269391,0.8289685948707491,0.7481637155630859,0.6930559703733044,0.6684556057276937,0.6749139249129127,0.7073533459212014,0.6923047645877514,0.5175296766195844,0.3641552100104318,0.3642318149483475,0.5094583801003796,0.7239656428381943,0.8535925488633922,0.8820420611983274,0.8856177938606565,0.8933591074080544,0.905022742529866,0.916068185791341,0.9249131828394599,0.9306952973667293,0.933580211584519,0.9349894790536991,0.9345324937834897,0.9286141351975524,0.8960230733163329,0.656607694145241,-0.4305503031848256,-0.8089707719926863,-0.8866390474042011,-0.9206612723724031,-0.943095996491711,-0.9575689293445331,-0.9658328584058092,-0.969850379981571,-0.9703547401589977,-0.966540351809965,-0.9562594598500934,-0.9399053359805917,-0.924139561852463,-0.9153139023213693,-0.906563279672522,-0.8838524800532356,-0.8165708640408984,-0.6273814868350416,-0.269953938917388,0.05335421489765031,0.26947042067673477,0.48931546817325644,0.762320770786289,0.9566806037785891,0.9740149239524303,0.9356605404601953,0.9102114636444795,0.9041226353155585,0.9125316137982923,0.9243578464787267,0.9300974908710805,0.9296433381655054,0.9238304655795961,0.9121191820670762,0.8921623586990161,0.8681904574968036,0.848513600312702,0.8434499365074137,0.8508310804918395,0.8612105318101406,0.8700221432454243,0.8771811736693806,0.8804516437096046,0.8784045032723478,0.8709953865701224,0.8587881937713673,0.82982739556175,0.7419563457791256,0.47013672995346134,0.005419198303844516,-0.29184839017632797,-0.3977862119246303,-0.39857923348288177,-0.3030761677157998,0.0755861541033152,0.5678269420580857,0.5963692746869484,0.5718637929465026,0.5420806143824171,0.5104008511893753,0.4740494931514097,0.4294659413316473,0.3721291098556167,0.30072698362766187,0.20861288983510579,0.07313812777983475,-0.13974322580280096,-0.4441988223761947,-0.6554220779457028,-0.683188041540273,-0.6578680546955918,-0.6215265438397342,-0.5675203728941068,-0.47743451139481047,-0.3346621469047434,-0.13502829521487872,0.06774631609939387,0.19672247717723798,0.2170837712264069,0.1498733248165442,0.0501243286716243,-0.047447603812696526,-0.1268913302956546,-0.2083307107255873,-0.3788411621336226,-0.6425741740638378,-0.8357793637279576,-0.9169761973423982,-0.9466176730269817,-0.9568642008435595,-0.9576636664400087,-0.9494326876485296,-0.9257076504376989,-0.8646477266752022,-0.7576962369619902,-0.7378029467409831,-0.7971553690269841,-0.8356369595053544,-0.8546008673851243,-0.86132402829619,-0.8539634597248457,-0.8139484624967018,-0.6776720490277257,-0.352913529694205,-0.00031648991981171544,0.08409515777843915,-0.07368529430366143,-0.297770734077497,-0.4262413238975649,-0.45651807243512516,-0.4225406995846195,-0.32311461008245573,-0.10343020825092768,0.35445248861764317,0.7833344163000312,0.8778561026216815,0.8475647455100135,0.767870048203613,0.6721509744675266,0.6186783641648538,0.6709184062476925,0.8131219667070199,0.8878145568387869,0.8845220744323552,0.8700628451514472,0.8554877456078324,0.8330985849206561,0.7945517264597952,0.7321214594401229,0.6415839955129712,0.5350445285874474,0.4665032069766512,0.49083127848235214,0.5865560449532268,0.681474795180503,0.7391370230445881,0.7665291504834065,0.776450163643793,0.7828601896375805,0.7950683261537734,0.8154882607921231,0.8440484499581308,0.8818663137435275,0.9241462554413455,0.9631629858031008,0.9869016641277973,0.9068982501168192,-0.049991101026264397,-0.7322594312199172,-0.86833015602252,-0.9143756492500176,-0.9359972411200058,-0.9479842808861993,-0.9550132390738909,-0.9582410728558424,-0.9567763780890741,-0.9454336223875878,-0.8932147766134615,-0.20971015357177294,0.9393477570225615,0.982996703195325,0.9807807707259414,0.9694670634876669,0.9557805250299314,0.9482481789209951,0.9517219243683138,0.9622452349602966,0.9727679069231766,0.9784871235406634,0.9788797375332143,0.9765025605130735,0.9743429742508078,0.9744701077979169,0.974954925893208,0.9722001713223364,0.9655428176699064,0.9555543157520155,0.9425924328821426,0.9295922149694703,0.9192629047428692,0.9120880738671701,0.9030704927577676,0.8620181895093928,0.501225883318436,-0.7092073453337168,-0.8980021914606379,-0.9318711578401409,-0.9520058371621293,-0.9662057077209298,-0.9703533400701531,-0.9686721348502694,-0.9649611367127261,-0.9605700075205637,-0.9559781441636953,-0.9522111496760636,-0.9504000997749125,-0.9516485891367839,-0.9236771834454581,-0.574743983458788,0.10547636626039386,0.4329723122656781,0.5991392181392987,0.7132673447444886,0.790724055322703,0.8357900927652038,0.8606139977464304,0.8771065487710215,0.8914457472128126,0.9041301282055098,0.9108656147163046,0.9087484530348715,0.9005801571880937,0.8996615597882419,0.9165712369886436,0.9385490924566259,0.9513903561316828,0.9581516133044041,0.9623761724035986,0.9608974856286508,0.9526546729376442,0.9412054344217666,0.9306999127202524,0.9218449051110728,0.916563379510032,0.9172578392369743,0.9242396096595948,0.9343905859416605,0.9422633265557804,0.9431601456204852,0.9173014555158806,0.21865984034688254,-0.9054137984811783,-0.9468821621909093,-0.950048547881918,-0.9244498969831404,-0.8265790079437372,-0.6723768369912172,-0.5848829096179583,-0.6016045244247262,-0.6906750091780443,-0.7990277026642992,-0.8734512894118097,-0.8972011634076141,-0.8713018286457019,-0.780089002676367,-0.5726939017438769,-0.2760260420957759,-0.08618314183696027,-0.053644211520619274,-0.10656544241546284,-0.20565531571484205,-0.32708488145846837,-0.4198653166025225,-0.4414805041457553,-0.3638173099273905,-0.1552522663226368,0.14043410437983334,0.33689769607564696,0.19339688286009984,-0.533454741118257,-0.8800576100462868,-0.9490315972045382,-0.9669768903785289,-0.9579095115624954,-0.8935156783643641,-0.73891860013858,-0.56897069748598,-0.514164950727598,-0.6217829822824661,-0.8354799699474166,-0.9584894261327722,-0.9654510608233065,-0.9541783744449596,-0.9497742003733167,-0.9490327830360473,-0.9473935708487744,-0.9394352376560735
