-0.24411143608541672,-0.22928459395591066,-0.22415984978593903,-0.23495956598662332,-0.25769662441813884,-0.28233497173405203,-0.300623895270628,-0.31067665271288136,-0.3147150523120627,-0.3117441123867181,-0.3028123360834611,-0.29328999172065456,-0.2879457807651081,-0.2845909057270802,-0.2804283537487281,-0.27337213510071906,-0.2651071792206412,-0.2557762268326917,-0.24573403325332172,-0.23138402619989903,-0.20341453950207372,-0.14669970494338372,-0.05037942028954286,0.09935316056859797,0.3110827141907851,0.547624499942102,0.710953114631681,0.7756913833248383,0.7964573839419863,0.80691239353064,0.8152485428200306,0.8226070632533036,0.829753409955535,0.8375674803710911,0.8470195099982095,0.8582988508293656,0.8709038580403207,0.8847046527259194,0.8990786480587039,0.9135315026874988,0.9261312474416422,0.9343165771480368,0.9359089350668871,0.930144978856956,0.9164318524650664,0.8907825335952869,0.8441533002066919,0.7680440649612013,0.6618940318283862,0.5190069683617395,0.3035864246256133,-0.02377058327491916,-0.3719967027459209,-0.5961158220097756,-0.7107656979710931,-0.7701827506233268,-0.8026657447849095,-0.8213472419617536,-0.8332036038779137,-0.8414557357368775,-0.8478199428550042,-0.8542817816388766,-0.8617300172671809,-0.8696194903171022,-0.8774787579617057,-0.8831797049441038,-0.8802663007776614,-0.8606290505017673,-0.8194320731599047,-0.7630761116851758,-0.7047161296367401,-0.6539856976339278,-0.6131716382774023,-0.5771736041807144,-0.5415055398361416,-0.5071736056257329,-0.4786417540776939,-0.4581742659123787,-0.4453092311915617,-0.44049209161803204,-0.44288676338791855,-0.4495779776589226,-0.44651373277776873,-0.3890432210350041,-0.26942736437150167,-0.18519413176568014,-0.17759632010172877,-0.23408580469965176,-0.30686780011831377,-0.3500808336366665,-0.36081233456670625,-0.3493235922173677,-0.3231484012625572,-0.28872930325689017,-0.2520398415757218,-0.21802452119652557,-0.19304731672803607,-0.18247063342345404,-0.18298864553933897,-0.18275038049994732,-0.1669196016007053,-0.12884504149858592,-0.07329206688797896,-0.008346036421033546,0.06146267023568942,0.14597405713124154,0.2701457968101171,0.46357076572458356,0.6786679999284049,0.7800926538069716,0.777686163357374,0.746037828463395,0.7083741699960481,0.6715770706650969,0.6396878248932772,0.6107220725241992,0.5811917906305913,0.546229760035724,0.5016275166490342,0.44913342270874435,0.3977038467241403,0.35352964093371886,0.312622717136248,0.2666025378032363,0.21284379670808934,0.15412134450499473,0.09359878622613946,0.038807727033886665,-0.0023367263419362834,-0.01991425283262127,-0.009230692269227684,0.023623354136518344,0.053987766113562236,0.06244725272828348,0.043321141888646136,-0.001255406817542143,-0.06833273149633881,-0.1582508574669054,-0.2679266122029261,-0.385620197191249,-0.5027119089895891,-0.5992056295063746,-0.584146587101898,-0.423318307948934,-0.2660203118509517,-0.15126655867870492,-0.05706117065628236,0.04443071228969999,0.18287826348643715,0.39540821973092793,0.6651085109394018,0.8526150558874814,0.915808749001929,0.9269105512552631,0.9213240593350017,0.9094784861961923,0.8983559181590823,0.8921638588381695,0.8922702614864312,0.8970635421368799,0.9040100562925332,0.9081159013721576,0.9000461852343954,0.8595459386744487,0.7382314317029589,0.44331671832536707,-0.026754015442522414,-0.4124606405841662,-0.6102310485278711,-0.697314023457797,-0.7345423856460014,-0.7508114098600284,-0.7585037385712036,-0.7608937366409722,-0.7609541010479648,-0.7579699347404818,-0.7502969425526755,-0.7384320916869125,-0.7280084903324457,-0.7250087943320367,-0.7345542722904552,-0.7564876556860602,-0.7862613631310242,-0.8161179098390994,-0.8324074348785044,-0.8158522203437986,-0.7445116927551623,-0.6135088270228986,-0.4603303178532289,-0.3606303201505107,-0.33683577473716875,-0.3527556524895852,-0.3454203569898576,-0.23885939747091917,-0.006909147104258412,0.23725092862150318,0.3832319278766757,0.4409149389613877,0.4314333785623681,0.34551789529717497,0.1413248863620793,-0.20840327131229597,-0.5856462756618764,-0.7981975083892097,-0.8690890367395269,-0.8825376844216994,-0.8711228308559743,-0.8407370477389152,-0.7922857856691116,-0.7339146926675282,-0.672941789331377,-0.6115981508601398,-0.5531570269600347,-0.5042111648860966,-0.4663749933970765,-0.44153706360262424,-0.43893058659483425,-0.4721139204394433,-0.5455797835078848,-0.6424659510179068,-0.7285458029485398,-0.7796841987376969,-0.7967062351813669,-0.7941127324781626,-0.7805983979258323,-0.7590915930235154,-0.7306650983430295,-0.6960693263256688,-0.6495297723460636,-0.5784848914141795,-0.471767420951104,-0.3311163177087706,-0.18442577185685194,-0.06907398862446856,0.010503371901688846,0.07909630301649515,0.153861649695726,0.23261656037044434,0.31350228279904374,0.40168945948323265,0.5057043218419605,0.6248308891975634,0.727572364084643,0.7874824068663985,0.8059702573597353,0.7885579617704056,0.7302518917035102,0.6355007064992841,0.5367569305858969,0.4739962074355865,0.46170036093818445,0.4935417975945291,0.5532384170873333,0.6216873967492034,0.6831252922156091,0.7301754874318254,0.760139136920827,0.773457749241126,0.7647366065911055,0.7252053077568213,0.6604626910928195,0.6069897389453067,0.592149971372834,0.5993740775008681,0.5962012342341766,0.575957602020428,0.539909483130255,0.4762297602657375,0.36492601456393664,0.20211740509113169,0.01845018359201283,-0.16776717553906115,-0.38105037363121935,-0.632108113009019,-0.8193222817115527,-0.849531175997755,-0.797513711333101,-0.7351103865543849,-0.6852491784179539,-0.652456894645579,-0.6343256881558772,-0.6263628354252235,-0.6204200639302384,-0.6053238928565844,-0.5749547746755159,-0.5312801271397513,-0.48393134646500596,-0.44552012284868564,-0.4270490964402766,-0.43201328579920295,-0.45637978740795637,-0.4871184707997407,-0.5146216967767248,-0.5378425352429662,-0.5620962136017903,-0.5921354710335381,-0.6249130918466788,-0.6546439058472334,-0.6735358077774013,-0.6665570031560757,-0.5786970967742502,-0.289699914405016,0.12152147468985157,0.4007873901742474,0.5567341571738847,0.6514289834913369,0.7137771394080447,0.7548779764261452,0.775798621488481,0.7708742088982278,0.7337036909694665,0.6736289683297456,0.6098952722264448,0.5537225952328918,0.5077909833423396,0.4713210315891506,0.44207833803781554,0.41618665733223775,0.39146948775195706,0.37029467110412057,0.3540594052121598,0.3422214587610868,0.3359749827100677,0.33801385361954167,0.3488978561721432,0.3557621420173952,0.30059128209935737,0.10098182318695892,-0.10485287710297776,-0.23360031875912113,-0.31682937241580217,-0.3655330184641795,-0.38482364673666336,-0.39046313815224687,-0.39405233010459195,-0.4047836348466656,-0.42277395023252623,-0.4452420100756277,-0.4703987286593875,-0.4921599177942898,-0.49342552725189165,-0.46655521755703394,-0.42183435246599904,-0.3685447848843906,-0.3046349147769644,-0.22920935815709834,-0.15004218910727823,-0.07518911059468393,-0.008639442284579349,0.05050907445984949,0.10738057638268836,0.17172243927682032,0.25504760315781644,0.36840092827295,0.505579555985165,0.6293903254445204,0.7117088019285902,0.7570328066208831,0.781879781237351,0.7932444476997227,0.7839926922366611,0.7285216773251483,0.6098690131385007,0.4546528722500098,0.30342379169883077,0.1694829193862606,0.0470764297668198,-0.07261096312331645,-0.18481163144164975,-0.27970355441399886,-0.3385968128346988,-0.3553851543179779,-0.34735513327455253,-0.3347469860488419,-0.33058375326045547,-0.33963617872043905,-0.35971842094711975,-0.38748123237314497,-0.42561149995700065,-0.47771612921436546,-0.5463043361457609,-0.6167628619688014,-0.6574516455787907,-0.6572018039129862,-0.6282491277259014,-0.5787900326057431,-0.5058776675066909,-0.39932408939985986,-0.24622435853933544,-0.06949797062962872,0.08678444082883825,0.21607764614947444,0.3199328300089329,0.41438655379722783,0.5114264775509489,0.5984703951684224,0.651787067016057,0.6724156052814404,0.6701312552189149,0.6543683937400743,0.6240151076847202,0.5713194004730999,0.48417473777191816,0.35761940918516155,0.1809792024592401,-0.016712309309506526,-0.17478180462245557,-0.2803824859724044,-0.3656869829987441,-0.4479267547882277,-0.5217388108545745,-0.5786142793638251,-0.6125177003005261,-0.6295633896028252,-0.6435867498496584,-0.6654072918228743,-0.7004963220294188,-0.7487650337302278,-0.7979102157364077,-0.8268497257734964,-0.8319427307432096,-0.8231577336842446,-0.8039711586469364,-0.7646023399986961,-0.6673691271173777,-0.404243202512936,0.09551621711977407,0.5131563574293423,0.7115767259240969,0.8003409508716669,0.8421548161994108,0.8631874131954574,0.875538610888743,0.883836657680027,0.8846550075418751,0.8741808579341536,0.8570123597671068,0.8443994757916607,0.8427634041951841,0.8467020102252079,0.8484244870151866,0.8422268605091365,0.8221995483207276,0.7888816615996116,0.7543213036304159,0.7323073139123277,0.7276004467770683,0.7359915303380002,0.7472307509080043,0.7447368905638455,0.7132348061880084,0.6454388797205767,0.5530482405401268,0.4605221422855803,0.3846941289207311,0.3356097465217681,0.31413218982454333,0.320427961458224,0.3450948244169396,0.36811010712784514,0.35196538186548637,0.24300916712933798,0.01271190713348564,-0.21593623319893474,-0.35319721189616593,-0.42538672006007006,-0.46868838484995706,-0.5008937784028146,-0.5340618253980887,-0.57505223758559,-0.6262922169048977,-0.6825861478242343,-0.7383451599738498,-0.786603460927034,-0.8193048629675318,-0.8286700049881117,-0.8127216446210463,-0.781076451611225,-0.748811729634983,-0.7244537894868641,-0.7068639653458628,-0.6883986483014186,-0.6670013308485649,-0.649304567485258,-0.6396742886854554,-0.6373635864921038,-0.6398751651527632,-0.6456599861532543,-0.6552103988219282,-0.6653643385488242,-0.6592060757269668,-0.5860333927011736,-0.4267876014069807,-0.2778677395217775,-0.18784924978636883,-0.140228871688163,-0.11621408031504717,-0.10646271288575099,-0.11112573803786645,-0.12827452392184407,-0.1522772115529192,-0.16997816447517,-0.17069358903126788,-0.14651102485037765,-0.09525178776658107,-0.0009342950636485254,0.1604983067641577,0.34456184827554576,0.44652623543561504,0.48592709218041197,0.49120297180415323,0.4658617090940857,0.4179038475289161,0.36231388431367945,0.3131631713931037,0.2918018431566224,0.3218483084406725,0.3958692961478296,0.4801750353957137,0.5468887128604715,0.5936946385270989,0.6255596724112826,0.646054045398257,0.6567766668398738,0.6565332068958233,0.6441250299472079,0.6184079989604563,0.580643401053183,0.5392246521970242,0.5097639730105934,0.5023931918694413,0.5150031705531984,0.5372371273264471,0.5622616646823673,0.5875319071721827,0.6067353251974674,0.6058467637194794,0.5690961446753691,0.49012202305565894,0.3798086253794669,0.26312302607057975,0.16015476684303395,0.0809243054569149,0.021092867011020883,-0.019399260564598068,-0.040566935912914444,-0.052679235038307855,-0.0851231989023445,-0.15597087400158222,-0.25593012990922565,-0.35505534131397226,-0.4440669964715457,-0.5289131373142396,-0.6140174676369554,-0.6928169903025749,-0.7476870858349113,-0.7568443801122103,-0.7151268934777221,-0.6397590975085087,-0.5549306260024512,-0.4874379757301272,-0.4568123747677213,-0.46464182385129266,-0.4988879614893754,-0.531277541201768,-0.5279409764389011,-0.4536502232454852,-0.2605066661277043,0.04159105912875511,0.32275570581168156,0.4991609199063533,0.5901132153780083,0.6252327537689644,0.6250530432939907,0.606060859717303,0.5794273580388593,0.5488692414247459,0.5170976704336664,0.4865712701594659,0.4580200511265385,0.4281634741428007,0.3899395639202734,0.3277825257128921,0.21276171131902313,0.02232141751908979,-0.2124476526592666,-0.4229509771675881,-0.5740832770582295,-0.6760008330209327,-0.7474944706893784,-0.7979025874027666,-0.8303551027734706,-0.8505872438441934,-0.8635148984656297,-0.8711135303619414,-0.8755451474907594,-0.8818564148652313,-0.8918621974339536,-0.8964464372100274,-0.8890936308281435,-0.864560976922159,-0.8240702698349922,-0.7759296391043247,-0.7330512782376996,-0.7038965447110849,-0.6930051527323061,-0.6920457985532453,-0.6864912093723727,-0.6502975887411994,-0.4854976873684015,-0.08466458786772998,0.21944210214091464,0.337249135602387,0.3753683489561074,0.3793859742806991,0.34642830143176,0.2380650958905257,0.028077038599968636,-0.19136360361960303,-0.3321102796029127,-0.39774506406681287,-0.41071204013342666,-0.38917045517450505,-0.3501388780685099,-0.3123514444722482,-0.28455241909309137,-0.25713645560855125,-0.20440527046679802,-0.08005469713369236,0.1406475151831527,0.38862793186735567,0.5567890101326937,0.6398863646109052,0.677999431845505,0.6975126550133062,0.7052422469218523,0.7035214312453696,0.6944744522247999,0.6782300779350132,0.6559613117695043,0.6199778355933663,0.5540833098812032,0.4478739835052658,0.29639010528081156,0.11382710473523644,-0.06892809326677009,-0.22837590799598145,-0.3429782251675085,-0.411962514145516,-0.4486326913545012,-0.46620812165645786,-0.46906889161906085,-0.4540991798717517,-0.4207254522741538,-0.3685669000400664,-0.30944344520688455,-0.26021903910147604,-0.25701912425877904,-0.3352479566321235,-0.4426515066107695,-0.5133775603097693,-0.5272732057137881,-0.5051286935836525,-0.4734456622780424,-0.4252865137652181,-0.34073743040636867,-0.2067609521233476,-0.03970201887922435,0.1323789338522733,0.2953134670902645,0.438363909575756,0.5720295360190617,0.6884163587852279,0.7541220104366271,0.7561724087454269,0.7294720205410319,0.7041585694752317,0.6907118073027931,0.6881488836015626,0.691005034122737,0.6918836248268809,0.6917368294945883,0.6982353935654108,0.7189459533174339,0.763781495226008,0.8271516871795338,0.8863420902930783,0.9235107978488614,0.9362882553799458,0.9268104083579829,0.88790210784831,0.807869365691919,0.688580164909755,0.5546161598045712,0.4261558707001344,0.29569939793907035,0.13368312684247977,-0.07430102173944407,-0.2842525339037111,-0.4573798573092272,-0.5813746584238486,-0.6512901299781375,-0.6780356857346834,-0.6860055319896232,-0.6873384574504999,-0.6825008817353041,-0.6682751217555842,-0.6409857366570976,-0.5991338017701736,-0.5426035355840453,-0.4734390238340622,-0.3924740915784202,-0.3029771818712515,-0.2136832875996071,-0.1374280276712053,-0.0756787791948592,-0.02683851466110562,0.011180122326505807,0.03906411137123337,0.05638871587651379,0.05846225181602748,0.035809436428754074,-0.012178778733303952,-0.07635071443358152,-0.140123807816793,-0.1926039088538225,-0.22756686195991024,-0.24149013142603018,-0.23323579484892443,-0.2060236057204002,-0.19187036946663746,-0.27053255168233353,-0.46653961600464605,-0.6105974918354674,-0.6654508889246034,-0.6688002827250744,-0.6224233554213641,-0.5220903611626326,-0.39132683789939826,-0.2745787812065558,-0.19476041112233244,-0.15161586422434672,-0.13986630024804567,-0.15536192090784148,-0.19230185786482948,-0.2401174356461564,-0.2904684652240906,-0.33680731705126626,-0.37323889046333325,-0.39306413334192336,-0.3802239718674039,-0.3171530478712918,-0.21341871683345678,-0.11898862295710896,-0.06912209399836938,-0.0404726225344703,0.027003024538948036,0.18352579630943783,0.39080488414167663,0.5366294930665231,0.6050589275060265,0.6379941584894437,0.6660355803473429,0.7018564679658961,0.7465481927541394,0.7914149570277591,0.8256819353619873,0.8463080852803285,0.8553595795062813,0.8531828183696494,0.8362672666633659,0.8017576258752072,0.7523355147600005,0.6939289953998224,0.631629707759247,0.5728071239665504,0.512007756574415,0.39616484580050304,0.1464012243056529,0.02142418061880471,0.006906382905704334,-0.0019679690814736715,-0.036111768155048955,-0.09848258565552978,-0.16880419504892305,-0.2292500815352107,-0.2736983787620115,-0.3044771649043457,-0.3246702025451524,-0.34267247667939743,-0.3675766366891929,-0.40385512664589834,-0.4522390547921327,-0.5130139123329319,-0.5804681838984657,-0.6465692174247083,-0.7056101411161629,-0.7553633615358494,-0.7923075548061302,-0.8166297849386592,-0.8332753353090588,-0.84262231014472,-0.8385308017926612,-0.8120246082251895,-0.7358199180528583,-0.5853498330991493,-0.38740559905315547,-0.1965329505281883,-0.05342027975897864,0.03492215152852234,0.08513150797119579,0.11771363435787201,0.15645138031362685,0.24142655097899735,0.4333904079777301,0.6862296310082429,0.8053039805903337,0.8470802816133676,0.878317113959327,0.9028883450950886,0.9183736260147278,0.9233337049507222,0.9160912614095104,0.8932138580985047,0.8462511953382746,0.7610211500469886,0.5971988303750709,0.30281047286249535,-0.01442063752928535,-0.20610624283488033,-0.2785506163857475,-0.2786825545034258,-0.23964408833320222,-0.1930411763595612,-0.15859466036515735,-0.14172756325980432,-0.1334980432114313,-0.12216868407437302,-0.10781067884888346,-0.09790321787060331,-0.09644313862843318,-0.09847730664479494,-0.0990707238439824,-0.09930318460030446,-0.09823400795765665,-0.09028199651995619,-0.06831420004794017,-0.024499290802036514,0.050544314128378766,0.16078820173444294,0.29809989293730016,0.4485272458392754,0.5880627143437537,0.6973818748367925,0.7662611931788792,0.7930372740582551,0.7832646583894421,0.7401541057830863,0.6446657072228743,0.47806631594260196,0.32841639506430886,0.2586957411988097,0.2374600729439887,0.23619481775087345,0.24599424611693882,0.263090028737172,0.2795650258531619,0.2830507421084248,0.2608743729964846,0.21086257160339136,0.1525686519154796,0.10478024190706851,0.07538910914572375,0.07011958916294846,0.08642370181051591,0.0846449936599757,-0.021798672015521024,-0.2280569043187414,-0.38700674961176723,-0.47036926900729154,-0.49959012146720383,-0.501061399843572,-0.493990474169442,-0.49421773875044883,-0.5150791906104336,-0.565239435896479,-0.6459644178219419,-0.7323669160422861,-0.7840670502889131,-0.7907895500686437,-0.7756979347982409,-0.7568642594920449,-0.7391285555288816,-0.7239365681672962,-0.7134397343882579,-0.7123937644112391,-0.7233378712118292,-0.7426597739169398,-0.7428133779692425,-0.6560677293229928,-0.49474078478881933,-0.3481982301870405,-0.24058216909095315,-0.15920386908762643,-0.08818302351701378,-0.013763095699623522,0.07015020991715483,0.16309180358787226,0.25838511942682585,0.35482490594100463,0.45320705648652054,0.5478605966028219,0.6269538124672244,0.6874011193486523,0.731391187718216,0.7623175131900131,0.7799974438706445,0.7804859733212761,0.7599176794699165,0.7246046972750555,0.6883338190440367,0.6613770258877582,0.6400917054756177,0.6109151987219856,0.5477583276471032,0.4233598853998451,0.24655016229808724,0.0707831724272,-0.06659124951381296,-0.17096601575541412,-0.26171514313605154,-0.3572952032841253,-0.46995091890864654,-0.6000845366773848,-0.7086664630478767,-0.724782783093581,-0.62039585124396,-0.38789135413520887,-0.059869405587019774,0.24062044511980227,0.45238110221088274,0.5928713877378962,0.681798989992366,0.7315813696155299,0.7540326417251062,0.7616670225939155,0.7624789326423544,0.7607073995737237,0.7609495254144932,0.7674784642313371,0.7819123102582419,0.8026934126543744,0.8242754375496568,0.8405686459130576,0.8481314303843555,0.8466127365523933,0.8339492409938967,0.8001633734273275,0.7199305495936735,0.5434667690947019,0.2267585252054159,-0.14451183719557992,-0.4184276574451599,-0.5762005979738263,-0.6607354107849395,-0.7025489602469399,-0.7228100539482438,-0.7359311536456122,-0.7504935605867901,-0.7691203551888838,-0.7880593638193099,-0.7980645482955142,-0.7918570742056302,-0.7690575186008924,-0.7391264721045472,-0.7139864376912294,-0.702000129394129,-0.7029013230314395,-0.7107962205376673,-0.7216976704301531,-0.7341937678691729,-0.7474492690512649,-0.7626685263754882,-0.7791967517220113,-0.7979490074946429,-0.8211413481690348,-0.8489482082778078,-0.8827253344889143,-0.920224163078483,-0.9449280535142921,-0.9299848414583013,-0.8676122672703154,-0.7878386739821908,-0.7199009254101018,-0.6710838433991114,-0.6379386281938692,-0.6166274767534446,-0.604061402592818,-0.5943464368189718,-0.5825627585306752,-0.5661667086689282,-0.5448783950209926,-0.5177922514569896,-0.4841701974682839,-0.4457582687559504,-0.40301955113452526,-0.355909720233543,-0.3022952168862184,-0.24150207184116018,-0.17757498549039336,-0.12054012484312732,-0.07769665680496267,-0.046784640125376434,-0.017992116199251756,0.016097346534458337,0.06143536336751835,0.1263204810120869,0.22192619996139368,0.36053128320227695,0.536238754260845,0.7028608744280894,0.80474738553026,0.8428790039385675,0.8499567530007353,0.8477311434146011,0.844250230815723,0.8411510881039491,0.8386201722485033,0.8361162459061068,0.8328489535402585,0.8263901862000499,0.8088124985257428,0.7563503903219184,0.6242971529575513,0.4031215372088605,0.17733563171429723,0.019751114807131036,-0.06519400586610093,-0.09363167715148446,-0.08552726096671051,-0.06036481999561264,-0.0447652351820209,-0.06297474144489285,-0.1277298513587462,-0.22383718720549278,-0.3149150697657809,-0.3746163513236451,-0.40428072898807654,-0.41494994822148856,-0.4120809345187985,-0.39761107499809106,-0.36938534316193355,-0.32335678684469277,-0.25757408358477973,-0.1702160349138841,-0.06500303123538749,0.06081976998608997,0.21877212442768748,0.41155442652577373,0.5987041324668574,0.728520636203705,0.7994595767008593,0.836216829154946,0.8591818020242602,0.8799630889432005,0.9027238975455051,0.9252873922191848,0.9427173616032467,0.9512976990662585,0.9477732474120057,0.9275881846449825,0.8821311106626981,0.8082807414855675,0.7198315742636657,0.6364494456259111,0.5676946026032553,0.5044015887937164,0.42353606435658775,0.307870276739128,0.1615032904226406,0.011100241591254053,-0.12864856140607667,-0.26882534373204203,-0.4462507225352975,-0.6815057800943725,-0.8302981952188717,-0.8287408506650569,-0.8207933217376574,-0.8311861396928785,-0.8437367298886251,-0.8496132827999741,-0.8443046972839923,-0.8225918552863511,-0.774310656842425,-0.6820289772215757,-0.5346699774146196,-0.358273371456024,-0.22056102955376763,-0.17605686294929848,-0.24247170947171268,-0.40357965805234336,-0.5723430480749006,-0.6879839253677061,-0.7621479086294554,-0.8186996644753132,-0.8656342864777928,-0.9029098446554273,-0.925708157224522,-0.9355077504151119,-0.9358337328103432,-0.9309059432511391,-0.9240823846791423,-0.919372407850166,-0.9196247419272912,-0.923742794276309,-0.9272605298214064,-0.9245132598805305,-0.9107847468339505,-0.8849627432698589,-0.8440061313267919,-0.7723930108364238,-0.6209556836103906,-0.3340155461166418,0.03761351890325021,0.39612917609346915,0.7005348148120052,0.8902177941686904,0.9599736179355922,0.9666059472922349,0.9504338950092232,0.921114688970598,0.8713141072195613,0.7885618588964656,0.6646999138054426,0.483866731063619,0.22128155118476234,-0.06514001194321963,-0.27443921760202217,-0.3950133424766587,-0.4551867864764415,-0.4754999635347145,-0.4589638657262915,-0.4091202662371471,-0.3513228558199583,-0.30705021064298715,-0.2852545968369522,-0.2972718619629355,-0.36099731212155917,-0.49933558931520433,-0.6984404669736248,-0.8390665147126194,-0.8304555657786028,-0.7399828460181044,-0.6321688171051729,-0.533289601849065,-0.4489121696637116,-0.3773288745567845,-0.31272753164629324,-0.24353475010348738,-0.15764364407273285,-0.04777899694119246,0.08373079723866461,0.2308133750186775,0.37905169122637977,0.49261541049114954,0.5528263670414701,0.578319839470871,0.596268231413001,0.6258875209239766,0.6768656709445074,0.745983362351793,0.812146618452531,0.853601554569347,0.8692434830199068,0.872870494485689,0.8728824034302539,0.8699573854056782,0.8613979452736926,0.8423076068142017,0.8035555057590962,0.7258449464285589,0.5896597417175765,0.40848435912298003,0.23341640412328662,0.08665074676869948,-0.0354919900690697,-0.14138673888740932,-0.23347154998807862,-0.3157271026126661,-0.3761526915586921,-0.42074560297876357,-0.47578092254578586,-0.5507690270678989,-0.6068252079330443,-0.6049927970570206,-0.564184470663511,-0.5281903963519896,-0.5251372392784399,-0.5642954991850512,-0.6255795709921079,-0.6663987203481025,-0.659089119202923,-0.6044187994543968,-0.515385514958701,-0.4223263712529353,-0.3422605487676047,-0.2736884081947912,-0.20521899802017274,-0.12708121026532931,-0.03795841410627333,0.044639455967189504,0.09412994110786103,0.09791605875177686,0.0608609596495853,-0.0055235962665599716,-0.0960621722908193,-0.21416496691773707,-0.3698501189746015,-0.5367993103518589,-0.6029381552840891,-0.5625165348939932,-0.5144297013489021,-0.49111075640034074,-0.48875456326672145,-0.4992836794008517,-0.5164930152122655,-0.5372604156830868,-0.5611901683182121,-0.5889220197613552,-0.6183701715245598,-0.643004452515951,-0.6548788750159208,-0.6497324457750165,-0.6211580146635367,-0.5538044685465048,-0.4310116267388478,-0.26632060015895825,-0.10294940728657909,0.027908726230526273,0.12384385243209999,0.19487006517333968,0.24826369497779824,0.2907394827937983,0.3284184455812873,0.36658557762005556,0.4103597773117824,0.4640383838267657,0.5312035395297001,0.6120802599141315,0.7004394074068166,0.7810461656279674,0.8373479580279762,0.863613990432499,0.8655066734799493,0.8492805660306268,0.8168316265431984,0.7672793759280414,0.6990411943054561,0.6117527239309798,0.5080156438194132,0.39412228717615105,0.2799290711625633,0.17339445263628803,0.07687922863418163,-0.01064360297601035,-0.0901816299200341,-0.15917465693537408,-0.21331616083717275,-0.2508180873395516,-0.2757006712203694,-0.29358109528454346,-0.30983200278896555,-0.32932423424432744,-0.35679141634347855,-0.39491031166049534,-0.44539029977629224,-0.5040615022071028,-0.5607923721172987,-0.6086258155162549,-0.6529714891251898,-0.699060833635345,-0.7468870529857227,-0.7911643635479112,-0.827299035849562,-0.8485543841688246,-0.8454251972695249,-0.8152047424624796,-0.7652818011705419,-0.702829253599921,-0.6307320087196594,-0.5572020209668855,-0.49462894795479,-0.4494528084770752,-0.4224812901617997,-0.4124721081294099,-0.4171562081409424,-0.43205716184690396,-0.4537692713329323,-0.4749655008271544,-0.48911681729698275,-0.4933921164505709,-0.48946446448170783,-0.48360151691725506,-0.4836881106340077,-0.4998525231051096,-0.5431877836023983,-0.6149967695570207,-0.6934850765293954,-0.7537662956577228,-0.7874834925106171,-0.801671586334253,-0.8043789490537948,-0.8008306017652981,-0.7901697440834786,-0.7567939023542112,-0.6125269204438346,-0.27262308256848844,-0.010774291633018475,0.1014912457349947,0.14816443712040903,0.17706527983828316,0.20884130314497035,0.24778047516303744,0.286006756123035,0.3226588397049539,0.36080879886507483,0.4040749531592345,0.45547726035068453,0.5132862912883975,0.572871527394788,0.6270838300109479,0.6682662930523867,0.6932354008320128,0.7023720968398803,0.6950351900223284,0.6701441414144269,0.6301548428084895,0.5829177937743787,0.5364811898629546,0.49286037757739737,0.4450689600614042,0.37936305419348765,0.27834475075829757,0.14067329065774786,-0.0006326133460902264,-0.1083046720996604,-0.17694251091733953,-0.22082184407248856,-0.25503162884988273,-0.28951395098264127,-0.3277147436592974,-0.36663190857422395,-0.40367506797603425,-0.44394716553069874,-0.51339435053472,-0.6565330271052358,-0.7518526953428301,-0.6008468251119199,-0.4764286736131346,-0.4085924013976271,-0.3667316883723825,-0.3408745476649444,-0.3274368413587372,-0.32569561331326025,-0.33216757026190624,-0.340751617131677,-0.34571741488805513,-0.34433610633424006,-0.3372053470937832,-0.32590967358500345,-0.3118737053180158,-0.29744341028009835,-0.2866799555882261,-0.2839915090827604,-0.2916834837114394,-0.3122373485279179,-0.34849503247261343,-0.3995755354280342,-0.45627672279066356,-0.5065714273148886,-0.5377421619732162,-0.5465486356675874,-0.5460700640927343,-0.5547098673003611,-0.5910569851557219,-0.6601427443473992,-0.6931735598221717,-0.5656410120027947,-0.3647071279352035,-0.20339737165440314,-0.09490405369518905,-0.02663612163802315,0.02146614750057326,0.07853481902111728,0.18275830525353234,0.3602125637348087,0.5683975776884566,0.7076208875941244,0.7674594361947554,0.7949971153907606,0.8203105042282672,0.8494271138742691,0.877145633334394,0.8958954171153731,0.9046678565643501,0.9073560510536308,0.9095845047742666,0.9147092949672173,0.9212420308528636,0.9242768233103004,0.9200747284959508,0.9071697667859929,0.8799403620251456,0.8253561067448221,0.7132618383368393,0.5029518111657927,0.18589327726512778,-0.13896023643587965,-0.37832900223019583,-0.5398931904009722,-0.6512158234301084,-0.7257912107087935,-0.7775081782723339,-0.816850104905426,-0.8495104636474049,-0.8766761594643783,-0.8980748655625017,-0.9137663979544554,-0.9242487431958504,-0.9310905342681037,-0.9358443674277765,-0.938055140433801,-0.9366454727513586,-0.932361613632502,-0.9289579030845142,-0.9287151074372196,-0.9311603101428135,-0.9341757989956423,-0.9344234073508658,-0.9124194617101666,-0.6484041471665579,0.33793407278134113,0.6947872299978556,0.7913017519309632,0.8327327371825903,0.8561208934241447,0.8702810609944444,0.8788061838575937,0.883792899973996,0.8870576390806713,0.8905749008913029,0.8954123316942121,0.9013450739181984,0.9074730895035064,0.9126834369396903,0.9165848497160086,0.9185202189539605,0.9188130628825113,0.919391201363147,0.9222908337560684,0.9261405247605585,0.9286807932060814,0.9294898304647912,0.9299604119077028,0.9316861004361353,0.9325640724961962,0.9180000099233578,0.8255492079751352,0.437721561886997,-0.19130633441923542,-0.5380191827276082,-0.6909598850136627,-0.7694900040413626,-0.8120736103891277,-0.8320438905353853,-0.836523895144323,-0.8304734370543463,-0.8199698272816703,-0.8141335033030693,-0.8215548333128783,-0.8440564506139592,-0.8722271798664483,-0.89424471518323,-0.9067795398398664,-0.9132753189937662,-0.9154780353194869,-0.9133452104665041,-0.907009439563089,-0.8979368218026123,-0.8874586535730031,-0.876767784813931,-0.8657467479323285,-0.8556049439948615,-0.8493811060056566,-0.8511158006819013,-0.860168419456624,-0.8712256581047537,-0.881078189102751,-0.8892475286631477,-0.8950428665341656,-0.8949994004651378,-0.8831265167749419,-0.8579295407364894,-0.8222666056029108,-0.7644481519838939,-0.6661765359403237,-0.5521528602970087,-0.4502117074660715,-0.3628043771076562,-0.2932446471641476,-0.24713230612084183,-0.22765465316304154,-0.23088115303679843,-0.2543170927657913,-0.2927237326424328,-0.33844797697544676,-0.3828371959412299,-0.4209733706758439,-0.4570575473575598,-0.4930423594263097,-0.543440004867478,-0.6197907709757686,-0.7110243859898704,-0.7801267751059017,-0.7904720487592889,-0.7480830039847365,-0.684066438689328,-0.6245793952747817,-0.5713384441514747,-0.5254632800396949,-0.48704414762512055,-0.4716228721844591,-0.5083121700400074,-0.5917028490060862,-0.6688128210236622,-0.6964670184431375,-0.6605486454827858,-0.5349240130904891,-0.2440461928941053,0.2319390704646167,0.6100125193535073,0.76616623306115,0.8198441154871537,0.8326515221551299,0.8253926152953768,0.809931702333458,0.7932747739989576,0.7784476108288749,0.7674000108421297,0.7609887681504744,0.7568216215856386,0.7506784969300385,0.7418992323621112,0.7290166786014989,0.7141789473206275,0.7028016885332133,0.7071144026630077,0.7340529881473713,0.7767303192303705,0.8168507333833871,0.8434265825370632,0.8566724215862151,0.86167931299625,0.8618696050223857,0.8536077971390434,0.8276262243521981,0.7670203558842795,0.6556005637497022,0.5155708631624981,0.41118470125910844,0.3729806145148596,0.3783661676317875,0.3816542896316971,0.37431593545246455,0.3742654265079449,0.3966352438528258,0.44365959661147664,0.5098576074552075,0.5897528426282765,0.6751052711968422,0.7582869837019344,0.8282648728886821,0.8766971941896373,0.9036377672978515,0.9180634098535277,0.9281307289338171,0.936645942302075,0.9386535697009516,0.9098784437205404,0.7865687133040961,0.5203004763490813,0.233691943271988,0.038228756078596486,-0.08575950682278777,-0.17153786737939686,-0.23338343613367732,-0.27765468390942777,-0.3093829607425034,-0.3372864472023967,-0.3675316520423465,-0.4047966207645458,-0.45405176762697474,-0.5168330169568884,-0.5887136264196215,-0.653909771377613,-0.6962821349903233,-0.7031946283704008,-0.6676835946758706,-0.5934594924617367,-0.506745678454227,-0.43924207648263186,-0.4093019077385349,-0.4231348325256215,-0.4812955630402049,-0.5795219125494729,-0.7022003433591637,-0.8130222422167991,-0.8688998306254488,-0.8639685375814294,-0.8203735936616605,-0.7558463397566145,-0.6779816354825979,-0.5894709155775867,-0.49322562846778634,-0.39845905148796024,-0.3202094505961827,-0.26504769424077573,-0.23116697185368537,-0.21453557170273752,-0.2111541512002021,-0.21646753337659622,-0.22395626931173215,-0.22670509756604149,-0.2182269082965866,-0.19627276311469252,-0.1638560068657574,-0.1224800785738953,-0.07155089660649211,-0.011242233299559888,0.05571616131097369,0.12642767853687042,0.20631983105021912,0.3072250525449407,0.4330955182489908,0.5672450009431466,0.6805997664381461,0.7557056508081726,0.7955939527772744,0.8115843139207103,0.8095670418180455,0.7667305036511916,0.6165645699195311,0.38800322052648456,0.22782883818106858,0.1596153363296938,0.14256451009433763,0.14570792066166904,0.15729394310627118,0.17719971874634355,0.20962687115917453,0.24937394109595545,0.2854089315891107,0.31154941736587294,0.32786820602399097,0.3347461404769565,0.33094574750298494,0.3156517486687107,0.29068824391705733,0.26396308699169735,0.2496176553669714,0.2583508751258499,0.2876136914151416,0.32305053574710924,0.3504880943833374,0.36153229472304965,0.3540661821424779,0.32883840911576895,0.28647871260159957,0.2256106428130966,0.13970176944968446,-0.005616989700698214,-0.24654860148634591,-0.38147744013379836,-0.3870498355224582,-0.3670762787982861,-0.3469124414018682,-0.3331395845353479,-0.3348265689217442,-0.3657973291931597,-0.451346257386653,-0.6186992545589014,-0.8314654369120791,-0.9311923090446378,-0.8897109685136604,-0.8139151688562875,-0.7574831362325569,-0.7323274421309668,-0.731288874859698,-0.738360265701091,-0.7402897094216787,-0.7314022833539703,-0.7126250723087283,-0.6871743424516293,-0.6581068119459073,-0.6336856918736249,-0.6266503349758324,-0.6423293253450437,-0.6792292187545115,-0.7313278847989211,-0.7885213728969832,-0.838358423997261,-0.8634440258223569,-0.8590493561547472,-0.8361279222021937,-0.8094011498450979,-0.7876336037849502,-0.7726924543120791,-0.7579509380437273,-0.7337962184589453,-0.693480156243072,-0.6376379396433626,-0.5780258042138587,-0.5312758447326094,-0.5041954935636055,-0.4914344032262611,-0.48091234494783985,-0.4550504257371013,-0.39298671841683014,-0.28145255133042957,-0.11436451318576639,0.11018727689108831,0.3712004462406938,0.5971242573273381,0.6949040277378699,0.6860087656282283,0.6481687372153616,0.6187052748674529,0.6046294690749972,0.6148969612554952,0.6536255307618982,0.7119386323245681,0.7741823387506904,0.8291990638696798,0.8720285882125367,0.9017649429456513,0.917841070781613,0.9176283653595173,0.8978242839617234,0.8534364060765313,0.7835546298105681,0.6924765577374687,0.5829526327699572,0.46362469320887684,0.3482532229876831,0.24830726683278792,0.1711157562400428,0.11574088435297514,0.0781215609409113,0.054079155110822424,0.03979740411986435,0.0332517312450035,0.030670081086114225,0.027184869368723125,0.017003013621716998,-0.005421754940443902,-0.04439192552989271,-0.10454641136285407,-0.18723588949880218,-0.2879812025449864,-0.3931239581237399,-0.4858637733863345,-0.5591130735928301,-0.621062478754075,-0.6727300547600717,-0.686333893669972,-0.6240272121705577,-0.5093830113604508,-0.3869418007440234,-0.27792904609844576,-0.18048563070116666,-0.09664691393100756,-0.036055202148906736,0.005811767667564101,0.03845209260074158,0.06954981793927115,0.09939526582790566,0.11816830771183649,0.11503141971487707,0.08219652064622018,0.02294932784861225,-0.05050313650068182,-0.12336165910450853,-0.18374438297344475,-0.22680426008770807,-0.2540882027386838,-0.2738630633133354,-0.29151413495425954,-0.30755849458750567,-0.3188511818045232,-0.3213005220013942,-0.30973100791496033,-0.28287066425545637,-0.2441142079480195,-0.1941219594693229,-0.12049604984770668,0.0007261943587881804,0.185447820531476,0.3903898188944518,0.5471925309056878,0.652138226506352,0.7303293106643953,0.7980460148384996,0.8600913235822045,0.9093423592060457,0.9358976362275121,0.9436162618547386,0.9455714641768064,0.9473750987042979,0.9462547501092204,0.9409156618354962,0.9342782567297918,0.9302396356293582,0.9294120884608601,0.9280687017536434,0.919738354642409,0.8968581977093967,0.8495410258423883,0.754600093522758,0.5474370395269058,0.15087382220027176,-0.26945185282874096,-0.5187905063188558,-0.6497664513584978,-0.7264989806629991,-0.7773367960441598,-0.8145534927603247,-0.8425903308358903,-0.8639968798149648,-0.8779335193671128,-0.8846009870778225,-0.8861751454073548,-0.8854375208129228,-0.8836744916907759,-0.8821437269215936,-0.8820310079390485,-0.8844586587452613,-0.8898033586638561,-0.8979201338437383,-0.909547627574949,-0.9235604532482117,-0.9370672483497641,-0.9458441731373246,-0.9484262221935398,-0.9455612455026539,-0.9402705072724543,-0.935807352635563,-0.9344547416870983,-0.9357069308436861,-0.9377889857946852,-0.9366340026222054,-0.9272059517194998,-0.9005384448653502,-0.8348058689912716,-0.6835265360526259,-0.38174383613880336,0.019681409578576094,0.3257337236427162,0.48246717811134254,0.5312015416917798,0.5010728501592995,0.40288529523554073,0.25296046436257463,0.0799326554600066,-0.09277550395907319,-0.2458143940049447,-0.35817113258434036,-0.4200287403868912,-0.4419493048136998,-0.43767066394815946,-0.4146854204307873,-0.36581876117443773,-0.2847315697813693,-0.17694111034178303,-0.06806419121848742,0.011551917528022503,0.040088786847551,0.020767357848967515,-0.031707996599491944,-0.10949277180528504,-0.20547299191808163,-0.3162284155304597,-0.42266448818194674,-0.5001873567795865,-0.5472342804706253,-0.5628435593155517,-0.31017949553131935,0.15052338031165868,0.27338777548293086,0.3033750552208759,0.3199527894909529,0.3552453427190714,0.41464421817331204,0.47689967865032007,0.5239435347517674,0.5528577951539331,0.5642598517282242,0.5555473267072761,0.5259224548284173,0.4901192725284022,0.4927099517922782,0.5430188108313023,0.6079160186034959,0.6595247994753911,0.7022192725019827,0.7517481068187313,0.8111834754741847,0.8601276949192451,0.8862096047856072,0.894054164331228,0.8909400443933836,0.880758352992277,0.8656975194270438,0.8440463646100398,0.8101051423458503,0.7554559358613417,0.6911589765240499,0.6435564341696917,0.6205259110993595,0.6072649691107158,0.5939252814199347,0.5801495558710045,0.5648651016726678,0.5412829560932074,0.4975722647736179,0.4237127488673106,0.32506784216943685,0.22946815685534058,0.1612750580357485,0.12280737507133872,0.0990846017858303,0.0679624660151134,-0.010873956884405563,-0.18508556698310816,-0.4228226386051244,-0.5385475514229993,-0.5381845970837944,-0.48612262160976677,-0.39520300561826266,-0.25926341283819454,-0.0818122039668751,0.11331485063959396,0.2897908438088017,0.4287837570196334,0.5328159233184292,0.6074663706241022,0.6499384908518953,0.6625157657241564,0.6527614492208648,0.6274175301284872,0.5922435217795399,0.5479941155342998,0.4905500735874912,0.42282038451133047,0.34957643916845466,0.27455362086443375,0.1962151013317182,0.11314264580386844,0.026754255902286084,-0.05863422637751449,-0.14050378397679517,-0.21955861070171306,-0.3016674791829391,-0.3970182691732827,-0.503334491258698,-0.6005450670241939,-0.6691749852585912,-0.7022286890935314,-0.705209834251037,-0.6907912016872705,-0.6713176070818387,-0.6547382341630478,-0.6436519335884442,-0.638018358613888,-0.6367339996768389,-0.640700954825373,-0.6511052880291088,-0.6694342442013687,-0.6931921073489862,-0.7171116524871268,-0.7354920097398009,-0.7471396870719614,-0.7559592551290527,-0.7741581086822285,-0.8065017250414291,-0.8243429226420387,-0.7839344884163262,-0.694622684653823,-0.5987766210912143,-0.5155931228577201,-0.4465629819514105,-0.3890771332232734,-0.34089360355193205,-0.3020234608094949,-0.27215250366804994,-0.2503900709243254,-0.23498054427706833,-0.22474210218306404,-0.21938030954735646,-0.2184327744111764,-0.223748770161933,-0.2432553461719438,-0.2798392024909286,-0.30261375568122195,-0.2566170122079364,-0.155227918562656,-0.08549702904178494,-0.05676016384558187,-0.048659172669923964,-0.047913380657375444,-0.05101717103228748,-0.0485490903513465,-0.010260409861575195,0.08354041590217626,0.20247759040444055,0.28205404693602104,0.29983954071787483,0.27844791093672006,0.2510987435431369,0.23501985320192004,0.23603605776609418,0.2543318743036625,0.28766955688371443,0.33217325753126586,0.3830291638873554,0.43779401423974795,0.496198264142925,0.5587898684960688,0.6239445526623616,0.6869967220433781,0.7370168873171407,0.7668289900929613,0.7746982703634008,0.7641555853529526,0.741327332220443,0.7118231935667507,0.6724716382780686,0.6110209311954092,0.5166248522513563,0.4062153443792043,0.3093634347545094,0.23642034969118267,0.18414860679733347,0.14450684078715498,0.10881371830042692,0.06880123776537836,0.018641665456421812,-0.03917851028734794,-0.09293354342356493,-0.1335275684216199,-0.16813991905006098,-0.21043696005850346,-0.2681553476065657,-0.31025809287641803,-0.2671777283369156,-0.20516145122268345,-0.17669523038169654,-0.17422775057532744,-0.18289170279559336,-0.1898160386062189,-0.18779620383050916,-0.1748532273316469,-0.1538494700911057,-0.12804790892356704,-0.09642881825610168,-0.05190086065666582,0.016419347318778588,0.11816067112772974,0.2559178531046615,0.41074682651703315,0.5498311531493562,0.6545886516445437,0.726948767013548,0.7760286935526842,0.8129361408606255,0.8462699942268178,0.8787567577593562,0.9060900882361201,0.9212911388695166,0.9160937076408056,0.8741531042090388,0.7561860839370225,0.5407235400031717,0.2937553174334333,0.08653419295910006,-0.0774811195415817,-0.21777457325611843,-0.3451012985041149,-0.45849080879522863,-0.5506631686491303,-0.6135048104181435,-0.6478049221284373,-0.6666377171133185,-0.6841663088164551,-0.7059308519950258,-0.723616826933249,-0.7284171899108591,-0.7219893645431379,-0.7082644873885394,-0.6903015770596191,-0.6748830160296992,-0.6567449914603285,-0.6095159516473156,-0.501262760350961,-0.37232571755093846,-0.2827152637296306,-0.2303544803476114,-0.1840656246916298,-0.11268853807390324,0.008419752438984069,0.1831318967603009,0.3727015998804337,0.5312459759529751,0.6395306977715398,0.7037084441165746,0.7372627907920329,0.7416016504649239,0.7085521021710339,0.6556730786796506,0.6090503689125393,0.5729227950375249,0.5326494820951394,0.4597975237944949,0.31945406716143265,0.1195941014907209,-0.08246608640266742,-0.2410386009329769,-0.3500092895578359,-0.42746485543955687,-0.49026967511380365,-0.5456884466555457,-0.6002553581816567,-0.6589652480305572,-0.7214854900240715,-0.7813633359434786,-0.8287959912802484,-0.8605583163615359,-0.8798182746000491,-0.8927258000312998,-0.9041475630247139,-0.9169111098221242,-0.930908266622941,-0.9385320917219155,-0.9286925136467087,-0.9030208260095961,-0.8805321723322145,-0.8852945556482876,-0.9113970825849642,-0.9164273285896802,-0.8837426465770216,-0.8343040317656872,-0.7805622164647484,-0.7256469772279789,-0.6849469287259817,-0.6750136616674552,-0.6821056139480615,-0.684408652638907,-0.6702193302994061,-0.6383823240978641,-0.5916950804887465,-0.5378061423682532,-0.49408531948921036,-0.47597713971431443,-0.47034530074521347,-0.45325106535342635,-0.3837149615877974,-0.26657291087507795,-0.19438016282495257,-0.19068004327044544,-0.22870304802809416,-0.2733279703637661,-0.3121769709409479,-0.3339910986182021,-0.33036625151963794,-0.29676886212767295,-0.23641832549564895,-0.1681890174149219,-0.12255706579355967,-0.11168917133805716,-0.12798615778163575,-0.15478086158730073,-0.17074971624662302,-0.1523595115592541,-0.052239135923469356,0.10163400805252282,0.2052138573549357,0.261291733707584,0.29165292957917277,0.30972015761214766,0.32254143162109483,0.3313598662632995,0.3346137842162594,0.33390921487143127,0.3295964670696804,0.31951321158583645,0.2947899317823854,0.2552509831011208,0.216108936775021,0.2004235757874322,0.22654033900947895,0.29619083451286876,0.3864403166826174,0.46461442976663275,0.5176703607848612,0.5520052161053282,0.5985824280641766,0.6723604094974424,0.7622260099766196,0.8414671370142129,0.896046986448281,0.9276927277299346,0.9449392609921248,0.9546534020678615,0.957685039748159,0.9523551454012559,0.9366329162875956,0.9128063717489124,0.8848148609079592,0.854941259583496,0.8159441782435546,0.736793761201647,0.5557614472980053,0.27657917822998107,0.04652839466235964,-0.06347544002745467,-0.08905297065662608,-0.0715711121103203,-0.037248030230171696,0.006613748937048332,0.06070090646740909,0.12138853687717707,0.1818017702271936,0.23026413432899656,0.25567253730876316,0.24413100577504715,0.1844393503238525,0.0699472342484399,-0.11334836777060385,-0.35655189520633246,-0.6180607931435504,-0.8022928652248714,-0.8685083848506046,-0.8713506603878722,-0.8580946067233529,-0.8462995710841976,-0.8417731013714611,-0.8438092989512715,-0.8463259771470719,-0.8417685770091364,-0.8182944239969786,-0.7599550802922137,-0.6586867761637918,-0.5154615201758467,-0.3418269082037315,-0.1538035196191688,0.03326951593051854,0.21090982754710833,0.373855095138327,0.5180037862316248,0.639546749750576,0.7324170426893414,0.7959080069454124,0.8353517428620337,0.8592952226878905,0.8737931032591533,0.8832677189618954,0.8899298092422683,0.8951870993449388,0.8988082282745697,0.9003355077762117,0.9000715211387941,0.8988263509549618,0.8961598205852481,0.8878607166156472,0.8691805811016577,0.8379577062522304,0.7966812808055755,0.7470895529963513,0.6826762902568756,0.5698098525404133,0.3203185637777841,-0.12892518065383968,-0.5000396101962724,-0.6458705148670251,-0.6737908792025491,-0.6591208765706374,-0.6314490614619312,-0.6013001213474619,-0.5732153351857437,-0.5486773975404396,-0.5276653994474764,-0.5107691516364044,-0.4996653981735022,-0.4965053847123397,-0.5025886201396687,-0.5198102843892449,-0.5465691287583125,-0.5777390020166934,-0.6068019372084082,-0.6295576831700811,-0.6453811214056346,-0.6547061778719757,-0.6599299211778309,-0.6650337931780468,-0.6755427644260114,-0.69029276489983,-0.7033408010661795,-0.7086697964397362,-0.7032421373699572,-0.6846131390286315,-0.6501812426378103,-0.6022560809090028,-0.5548233553912792,-0.5166211790456173,-0.48636542313277226,-0.45580031158209894,-0.42289032056520437,-0.3925974170542442,-0.371974299742409,-0.3662304661442377,-0.38013660068223454,-0.4182026874705473,-0.4845243188971183,-0.5738728897674948,-0.6691945148287527,-0.747080753501729,-0.7942007135537024,-0.807726074875504,-0.7879600788599881,-0.7353870136172768,-0.65187258068741,-0.5504675602620922,-0.4477175207292939,-0.3548286034417434,-0.26555808619201854,-0.1729410184531554,-0.062220561365712454,0.09160306342363124,0.2991455364999145,0.5114847769996423,0.6674735469862071,0.7581392676713345,0.80454778023802,0.8272299020875179,0.8366928472326023,0.8377743144853035,0.8336331079387331,0.8277750964885868,0.8220127889527705,0.8198170377475176,0.8210305478241426,0.8208987027023179,0.8127822220426258,0.7927730824615775,0.7623262735959706,0.726302216312556,0.6941127558219987,0.6723134320255949,0.6609506739843295,0.6547578937421024,0.644296846908294,0.6234581163273224,0.5979684966115467,0.5769452270591635,0.5666509603750507,0.5631723345471221,0.5522744733913515,0.5153020997518477,0.4470854962267745,0.37277684785736054,0.32646320507801296,0.3322882630410617,0.4004313348939583,0.5254420573285465,0.6712133005555277,0.7716575822142493,0.7754992860294526,0.7023964097419003,0.6220265960544135,0.57057243149257,0.5465418730597842,0.5401008371841052,0.544025530474281,0.5560552085007257,0.5736725335795787,0.5894827451419666,0.5960701294875782,0.5832802963266277,0.4866038081332049,-0.22252378508548154,-0.6471874369959721,-0.6758309593284406,-0.6690739788330734,-0.6558945882981141,-0.6466872911906434,-0.6518929489121472,-0.6812353114237597,-0.7299607389675256,-0.7773722267962241,-0.8011891452483955,-0.8006051409884599,-0.7859474919100684,-0.7617955379808915,-0.7354250747324621,-0.7147327739611353,-0.7019488145921084,-0.6936322784025123,-0.6844815989248803,-0.6700878278864242,-0.6482238974171055,-0.6185620951273116,-0.5644893958899212,-0.4182949544626777,-0.04085329957595865,0.3488815434936825,0.5342764406929343,0.6158853219742658,0.6510609757250713,0.6583394160417415,0.640665763746096,0.5982812411781645,0.5396540196092428,0.4804044469764787,0.43714497551862924,0.42236961241028737,0.4430599196741094,0.49887215286215303,0.5823887635998353,0.6781693923162797,0.7658169761300789,0.828135623360459,0.8560174862068615,0.8439619435915648,0.7861352326279851,0.6787740919523039,0.5265210616315533,0.33377458598490267,0.09611911902363118,-0.18578605808143842,-0.45117483075515763,-0.6407669029621902,-0.7521981129431148,-0.8004497349198205,-0.8045989100254652,-0.787633603971287,-0.7700015707704531,-0.7618746534008429,-0.7614986350502686,-0.7611969774217419,-0.7521294083303306,-0.7311875823959157,-0.6977875928787148,-0.6517545737337073,-0.6061719089052069,-0.5747807799274179,-0.5619675966718723,-0.5702805049463626,-0.5921100229814314,-0.6161034394333232,-0.6286454364357316,-0.6185149332067162,-0.5822705231144979,-0.5323899997453553,-0.494454560397672,-0.48410556257345766,-0.5000216532403318,-0.5273492950967885,-0.5570425880024794,-0.5883228559940604,-0.6232574319058033,-0.6610811658837532,-0.689398768608503,-0.6930860982584583,-0.6697357491755478,-0.6443139723998681,-0.6441939089684523,-0.6629146759651148,-0.6821473515650142,-0.7026525869217927,-0.7265648453662711,-0.7489219374150718,-0.7665863785949647,-0.7768987790431509,-0.7818118767708913,-0.7864373754490879,-0.7990835966630064,-0.8286423849032208,-0.8657322700038167,-0.8621244282937932,-0.776544020894221,-0.6529958054161906,-0.5561915391207183,-0.5002172397797454,-0.4782295791926729,-0.48819092021028415,-0.5116742403046287,-0.5212728663707951,-0.4831784486581625,-0.37584145939948066,-0.16992768496109437,0.08781548983652797,0.28550373744422836,0.4097776055173449,0.49295087026532025,0.5495314580814527,0.5924699586757888,0.6385106617577336,0.6983879289920596,0.7687111034896763,0.8333280035003361,0.8810948905426595,0.9119848031759595,0.9316981769255143,0.9448957417751204,0.9507720915824167,0.945918827026111,0.9298618452010753,0.9088723332226104,0.8891635061488695,0.8731088502982656,0.8582378517003523,0.8405407792303893,0.819264790391787,0.7960151123002119,0.7718513442322692,0.7470327902552435,0.7184058655604513,0.6875285942478156,0.6615634410836078,0.6539517127229747,0.6690423774661668,0.6974117557406916,0.7297253860604811,0.7584888003311068,0.7763877228559057,0.7670763425788357,0.6815262668426749,0.37865224158191885,-0.13468585378139689,-0.4317398162274677,-0.5200353284372505,-0.5376773499772863,-0.5446448491686388,-0.5617812239503214,-0.5940385415024747,-0.6396625369632977,-0.6936257958265704,-0.7486780810187157,-0.795403694655894,-0.8279586126841072,-0.8464616089889595,-0.8556688400635819,-0.861311019045726,-0.865453364687531,-0.8662605976736364,-0.8613305629152459,-0.850369636448903,-0.8332328411285137,-0.8109139743111142,-0.7838303581624844,-0.75245976063864,-0.7187612849701437,-0.6882634949604464,-0.670361399091065,-0.67120381216108,-0.6873400962110209,-0.7089963458156845,-0.7266455345494123,-0.7334398481417729,-0.7272500477175599,-0.70878630243714,-0.6756836856258461,-0.6162192966153657,-0.5095247706431563,-0.3390288231332937,-0.14308833964405238,-0.006539304349695219,0.03306637425229413,-0.0098119688214511,-0.10143660223397358,-0.1932788722992944,-0.25508056597724593,-0.28531122354323596,-0.2974497041766754,-0.2984483627726142,-0.2768441909458778,-0.17152286907601808,0.21291713389882558,0.8210207343114203,0.9179554607962593,0.8891503549493446,0.8715650237679282,0.8699359951968767,0.8757175359671887,0.8813873162181178,0.8812656747536902,0.8740996811738931,0.8593956811882223,0.834899516008683,0.7942115197984595,0.7240037412129302,0.609604257349629,0.45756159947921893,0.3108272059975976,0.20360590523707633,0.13368682712154897,0.08350315854308953,0.03669474617654655,-0.016610731814524875,-0.08370090424194189,-0.15584468675470903,-0.20893233825136986,-0.23457738690744268,-0.2600533746771362,-0.311903800448588,-0.3927483607275649,-0.49353092335163407,-0.5968873554925631,-0.6755721455199092,-0.7142917340076315,-0.7123228117129242,-0.6616663543488992,-0.5477758044088588,-0.38969984211733105,-0.23834041155311947,-0.12387661814711094,-0.05704500377299958,-0.039815580059279765,-0.06877447672034444,-0.1320500689795527,-0.18533148450566833,-0.18614546014806074,-0.1494941637412898,-0.09549573609891789,-0.033477266107383906,0.028207005229365614,0.07965155910402488,0.11433595055101095,0.1367346350526514,0.14700281411696886,0.13508827907788548,0.08298670059834029,-0.027927681894040737,-0.17806521175400947,-0.2957306764513029,-0.3380958126472204,-0.3338406713216014,-0.32444402834304875,-0.32987273228180664,-0.3569800288812282,-0.39678137807113556,-0.445173351913907,-0.506545198961025,-0.5914669266550856,-0.6952083788369051,-0.787045055127384,-0.840697508320374,-0.8621721922593462,-0.8613848970276154,-0.8331749399125749,-0.7576414706699653,-0.614215526070289,-0.41085117795257814,-0.18950858607799456,-0.004111901204359449,0.12725904075697633,0.22654499584389873,0.31901083494577087,0.420421238995616,0.5306428423560826,0.6361362600605721,0.7218741040475163,0.78122019543536,0.82115601269406,0.8493799576019138,0.8701288085772357,0.8838098836107884,0.8893407107211494,0.8863681190938424,0.8760065200769873,0.8601298570265203,0.8407415519460784,0.8194812746605653,0.7975715404937859,0.7759623177636593,0.7547789072551107,0.733196268513083,0.7070400818054302,0.6627002913170409,0.5760888428152888,0.43140608566633637,0.24947932089415317,0.06877145627480148,-0.1086607879856487,-0.31873723732267983,-0.5463520971455126,-0.6396864858255908,-0.617680988420239,-0.5821173481661971,-0.5562486769690181,-0.5415347675858351,-0.534612756864164,-0.5345574749786444,-0.5412410915833243,-0.5565548878996085,-0.5807783255945556,-0.6126755128445411,-0.6480883101387576,-0.6830406173559705,-0.7123585189275744,-0.7305457980326309,-0.7318994960304809,-0.7125343254039835,-0.6731932547647267,-0.61980993082234,-0.5651102415105583,-0.52448313285605,-0.5082403781225645,-0.5193412633225275,-0.555720151278644,-0.6102996020465209,-0.6680967071943725,-0.7121707153048151,-0.7363086922563367,-0.7395080588945165,-0.7168682405161032,-0.6693865925433692,-0.6055682913014276,-0.5358917357574481,-0.4660067522980644,-0.39726252593071243,-0.3265854517679368,-0.24304089724822528,-0.1400519076596657,-0.02316073581958799,0.09476180115025251,0.1976646797911452,0.2786192434015632,0.3284339178437008,0.3412766306684856,0.31997591856231045,0.26738470021753064,0.17736349814386781,0.05430582948441113,-0.07867461681955443,-0.19704141659123037,-0.2889626076322854,-0.3365011997717161,-0.32318651980719915,-0.24412494154863754,-0.10914773752631732,0.047530660500540584,0.18674531296023114,0.28005545668618315,0.32909001917057046,0.3513678210153013,0.37814062975013996,0.4261597504194101,0.49343010469869314,0.5745911658300262,0.659132094259064,0.7345188144888566,0.7931176412111334,0.8320004774858388,0.852320737439141,0.8596947773874106,0.8604153776737882,0.8595521671645293,0.8588838129353096,0.8579627827221142,0.8555456577703161,0.848179848978498,0.8308609292207411,0.7927020186721995,0.7050158382559348,0.5027815392686875,0.12304107447988814,-0.27727222537661983,-0.4988566902977511,-0.586067174914527,-0.6135241566157024,-0.6194056391380343,-0.6150524492057959,-0.5988762398489955,-0.5606790252687772,-0.49139400695322194,-0.3865164254333958,-0.2610185468005003,-0.14840833554975552,-0.08365727920958231,-0.07187576809073534,-0.10594738376632894,-0.16097059552649706,-0.21683543156074903,-0.29007674383241955,-0.3832845212384206,-0.4397591615976882,-0.4196452115677554,-0.3481871569700632,-0.2540542830087227,-0.13801504762335842,-0.01331084463063425,0.06561779794339126,0.03807792797464465,-0.08733347231003412,-0.24363637871969643,-0.3727082370740664,-0.46458404679461607,-0.5335907525559836,-0.5928809759314159,-0.6510450422479489,-0.7087872030208976,-0.7581437965176449,-0.7916883298199355,-0.8105547559802294,-0.8212365245705348,-0.8292895750428112,-0.8340588323718819,-0.8293159031708243,-0.8075164210938962,-0.7695352464052898,-0.7310373237491962,-0.7048708296925031,-0.6954017429062574,-0.6927356540466334,-0.6834888920169111,-0.6576802615659677,-0.6081337398721812,-0.536820686198415,-0.45354612411578527,-0.36458626820892204,-0.27596133832880093,-0.19428893051469676,-0.1250869276821581,-0.06699637777998067,-0.0025708563765848604,0.11086669329262036,0.292433282356359,0.4711463491543374,0.582439234205315,0.6376893857506208,0.6596512640929828,0.660724834780984,0.6441627428964726,0.6190197015084716,0.5944202690136867,0.5723687496346198,0.54152701203611,0.4211831312541891,0.10331531319798362,-0.12049121650446469,-0.1891801368035566,-0.18402998831745912,-0.15313252300348437,-0.12911692212546996,-0.14047036897835943,-0.19895028071508658,-0.2878113553918645,-0.38024131577567494,-0.4303932656722556,-0.3918044507336087,-0.23136087672136407,0.0063369769859496945,0.17926478054620307,0.2432901034738925,0.23667899211236695,0.18265646415314574,0.09342371374313732,-0.024811261954200282,-0.15891253859882587,-0.2881968181339283,-0.3954030624528674,-0.47759614989366117,-0.5379267986067707,-0.581629287460661,-0.6132101298648961,-0.637121839277516,-0.6614232106011979,-0.6923286427272589,-0.735802756935152,-0.7931233686146729,-0.8557508852524753,-0.9070888700994635,-0.9167382632772432,-0.8053022986404066,-0.42668029575178207,0.06710911161118119,0.36875355739373955,0.5148465860487119,0.5941934916850796,0.6525504266111135,0.7053255740810883,0.7539117222950044,0.7909562151289136,0.8112764080997247,0.8148207534057731,0.8079892816135547,0.798301187538562,0.7904687804916113,0.7839106655087855,0.7780741629266762,0.7730743255885619,0.7659396835776369,0.753375507084734,0.7336962732629481,0.7049166550694156,0.6664201232620615,0.6278721024328734,0.6204677081470451,0.6578637396207718,0.7203492459226104,0.7863167686032384,0.8419953080085766,0.8840032874208386,0.9123176092494902,0.9299670151414732,0.940340441259245,0.9463626244443271,0.9481954813808197,0.9438823295753833,0.9317367110047087,0.9093064942637455,0.869009488253766,0.7954804140821868,0.661065617037086,0.4417113480101565,0.1571014152581386,-0.11470615003896673,-0.320498223856238,-0.45169035167395,-0.5236707318643508,-0.5578562757193127,-0.5806897924766459,-0.6153500186776959,-0.6670586607540027,-0.7190660082700795,-0.7545104280270218,-0.7713285309905406,-0.778082154834314,-0.7823561846421496,-0.7873990918484545,-0.7929020648738551,-0.7980051611591417,-0.8027095842087892,-0.806190401287524,-0.8083077487022812,-0.8077700854375184,-0.805791657015986,-0.8019474257454472,-0.7948483559773177,-0.7842128213036091,-0.7697756242936045,-0.7443250889597695,-0.6919794170215834,-0.6065005042337511,-0.5137825092674255,-0.43324932553442275,-0.3648451724152817,-0.2956964758328795,-0.21739733584574858,-0.1292366478520397,-0.03755525720145604,0.04723347379335041,0.12048431908277274,0.18121518653519259,0.22314244717188783,0.23893800568163753,0.2311633201596781,0.2085121638357064,0.17839467340223678,0.14491392499445394,0.10789806025511353,0.06664175651434164,0.023335452146229237,-0.013659468173753663,-0.0234433896530017,0.04796846136167737,0.2606379073442881,0.49497357048055113,0.6094280597346644,0.6565914636402659,0.6801923199737337,0.6955148694409952,0.7045923797113428,0.7070513754989269,0.704866760219511,0.7009134598650293,0.6970136977569114,0.692328067103703,0.6826861437031605,0.6599497929716492,0.614411245511607,0.5466581668541651,0.4745247742207709,0.4161705538218093,0.374188808882937,0.334800998965317,0.2810407044234191,0.19884004103357542,0.0834162384693874,-0.05082989844075021,-0.17335094301072762,-0.2600192011083726,-0.30984113705789584,-0.33349002430193614,-0.3425940785909263,-0.34796126731235566,-0.3604754576488122,-0.38825255965720723,-0.4328321826619896,-0.4833931240967259,-0.5198279201632852,-0.5241558103307019,-0.4994863633661482,-0.46616856425065384,-0.4403155744915717,-0.4300365707974483,-0.43620747032872453,-0.45215312534340873,-0.468880463425014,-0.48127981534328057,-0.4883766799274778,-0.48857316261954215,-0.4674916021121272,-0.4077103162994226,-0.3313479772920543,-0.26491091733449246,-0.22106941509226147,-0.1939605269727548,-0.17431508659866554,-0.1573781157100715,-0.13976921912091567,-0.12701095310343252,-0.12637967325619298,-0.13877998947739362,-0.15923606973861013,-0.18005521027077903,-0.19759862667560044,-0.21178980868967956,-0.2243451767411372,-0.2352808470293395,-0.23940567535390775,-0.2311186168115752,-0.19911149288637758,-0.13546145159359374,-0.04433509004119203,0.04897665384294622,0.1193131238889956,0.16058765386695387,0.19187756352538682,0.2319032952669981,0.28631974050396203,0.3427415167800733,0.3903951014122786,0.4229979061126967,0.44359324539189604,0.4574246753806117,0.4644185841230448,0.46397827841817363,0.45689072542562975,0.4382021574606895,0.3973627073360116,0.3313751469962878,0.2412009983361203,0.1413648371726956,0.04233184108525149,-0.047004064647001326,-0.10423819004207938,-0.07336430021924112,0.06375983277871163,0.2378038551581417,0.3807812612930227,0.47669994126737775,0.5369308663800834,0.579490920734525,0.6159951834030842,0.6495111858876963,0.677154898208373,0.697488793088058,0.7109277732149907,0.7187062367082049,0.7161192289149988,0.680979161093207,0.5649512059157575,0.3080231393012448,-0.009751801020462693,-0.23531516993648238,-0.3661494706304908,-0.45386743201190755,-0.5350874817163859,-0.6227597254278521,-0.7070239133818704,-0.7693869096554526,-0.8054543221814024,-0.8255239691919809,-0.8360233781408095,-0.8389730157189415,-0.8320987804068097,-0.8085999188041629,-0.7589962429382726,-0.6760192085631955,-0.5575149135095697,-0.3888530636818662,-0.14588624093478098,0.14954057754289796,0.38525247180856986,0.5174792620720767,0.5839195701835923,0.6166093257765012,0.6307602977295064,0.6344473199247398,0.6313573232165489,0.6240095415467736,0.6148935515488639,0.605598337823629,0.595125603421808,0.5785172296755464,0.5471121892988086,0.490007843257698,0.406444173214086,0.3061997533663746,0.21006725722278222,0.1301435501803831,0.061241580677388475,-0.006070065754012058,-0.08178233381638617,-0.17689921218686605,-0.28946311462167046,-0.40742349050537074,-0.515815754135626,-0.6020599595106377,-0.654774406994225,-0.679161938055018,-0.6885686360906936,-0.6955497345357593,-0.7066904734584655,-0.7272871843174062,-0.7541826346128884,-0.7794263632645527,-0.7939147862446874,-0.7916431900022077,-0.7775704484077838,-0.7618332592925,-0.7516861856874616,-0.747147426477593,-0.7452559906931391,-0.7426562201725179,-0.7378956307753964,-0.7295067361641597,-0.7131636045326749,-0.683086126817103,-0.6271772262796831,-0.5292689412357984,-0.3678102701313193,-0.13267518940718592,0.14395835349381264,0.3907632096028138,0.5599136362882329,0.6403242771265003,0.6215239734574199,0.5598167953624386,0.5617553883736228,0.623987367422242,0.637086593174978,0.5897313447775345,0.5431699288516734,0.510334309339877,0.48774092643529504,0.4714312147969534,0.4676859085721597,0.486319864510667,0.5307190642584535,0.5902083159874771,0.65055129282055,0.6976827953961128,0.7225955772985396,0.7261755949154702,0.713263519896462,0.687197183733108,0.643664281501137,0.5719464996632774,0.45925381778987484,0.30282689658682543,0.11720348420798285,-0.09058606503134159,-0.3557780666160816,-0.6824292227869339,-0.854343320979642,-0.8199199050246307,-0.7497110499503937,-0.6929551754136446,-0.6478815211553929,-0.6082052415857472,-0.5672105650975986,-0.5205834936498577,-0.4692379700333455,-0.42082286217475257,-0.3798456716284131,-0.34823719417757376,-0.32736204089233484,-0.31794958393460837,-0.3203813348582143,-0.3334551547056342,-0.35347758501097004,-0.37305917501249014,-0.3858127621021803,-0.39177830904722993,-0.3940352696736726,-0.3938121231451772,-0.3769769635524509,-0.27928561441675503,0.0042022594711315486,0.34904545818767946,0.5799024329413669,0.7095782106564379,0.7782625697986005,0.8150842181545005,0.8393671973290711,0.8620176863910916,0.8868089773447048,0.9129232320018601,0.9381142495153791,0.9590336450810153,0.9711158676607103,0.9695168111521377,0.9474790382383071,0.8977094441466535,0.8118841476101468,0.6907279885885564,0.5535978916329845,0.4271229901752893,0.3219247023086672,0.2324250556105469,0.1470743597018335,0.05818243993948376,-0.03483190550597452,-0.12817466006703113,-0.21459677572457522,-0.28857868325103225,-0.3485916737715512,-0.39425400437156155,-0.4259734537458198,-0.44877936957729114,-0.470743824591443,-0.5020095839165631,-0.5475781462207264,-0.6059618518895519,-0.6680906488117521,-0.7224573094856966,-0.7594778058055516,-0.7791296615768482,-0.7895070610677641,-0.7985952525961572,-0.8109152230941724,-0.8259957424611355,-0.8424512172047184,-0.8587920002771994,-0.8757474875843068,-0.8924834974508284,-0.9077798316560863,-0.9186412024616147,-0.9199989572809162,-0.9071364563570506,-0.8788077664442784,-0.8348347665632205,-0.7753871744097677,-0.704225045931618,-0.6234822852369881,-0.5219538377959634,-0.36239735629707726,-0.045140331676884124,0.4166962555718697,0.684282571399786,0.7880302006109798,0.8436530669416812,0.8796507850974848,0.9020999227081984,0.9150330755397494,0.922038193965888,0.926959569705263,0.9321646113513878,0.937818388080319,0.9423495433487641,0.9427877716221704,0.936580384011971,0.9198056216711852,0.8856060447293845,0.819060922725018,0.6888499508275608,0.455458603527143,0.13482860176379183,-0.1747719525423391,-0.4127469175210919,-0.5830593340088307,-0.6998841153841049,-0.7720985691742783,-0.8091726730130095,-0.8209698533820928,-0.8152408312004432,-0.7983675594035436,-0.7757953834084564,-0.7502754031302498,-0.7221228711579764,-0.6927260629412152,-0.6625057307295696,-0.625176111829029,-0.559201699417465,-0.4329380100591955,-0.24000388276878107,-0.029920800053015704,0.14553496869887336,0.27967423155941895,0.3879796121355482,0.4579922949763072,0.4517804976076054,0.3342330163294929,0.0648787983058902,-0.30480543796686743,-0.5778728563106464,-0.6993963809296271,-0.7353708572884952,-0.7412886312579413,-0.7386547864342701,-0.7176560421479221,-0.6715339091554383,-0.6104174703008621,-0.557939554171861,-0.5150792621198917,-0.46788747566271155,-0.4078885404666744,-0.3354983167367078,-0.2743565455244068,-0.24481647244232607,-0.2519026966298869,-0.27112058425729996,-0.24504247159887912,-0.13557895859655852,0.05244315139573985,0.27140702900256736,0.4202268479527354,0.4813187691004518,0.5129938196443512,0.5492512759890172,0.591925756579402,0.637859886182153,0.6845754637069924,0.7293272464523612,0.7659296979432005,0.7840478890256939,0.7779210100215466,0.7402904986000305,0.6553851683730954,0.48815443440339956,0.2003268137432001,-0.14188181776978268,-0.38087581093127043,-0.47437416697070295,-0.4718375415439618,-0.42996071376622835,-0.3785221982669426,-0.31965718875471755,-0.2390757200435488,-0.11368791027416947,0.0852903542693218,0.3206875834825319,0.48175963193010374,0.5692134558926542,0.6312200113812388,0.6806744137197641,0.7203269817780009,0.7529835757388602,0.7789730398932451,0.7969923486539342,0.8078104662227874,0.812428508023193,0.8148564396138532,0.8182092978467039,0.820522742020791,0.8136568279010811,0.7873000030970508,0.7346137294748764,0.6444974843989489,0.46901561091833566,0.0779932075760621,-0.48552529025325925,-0.7672210154009272,-0.8170031710479494,-0.7984134332416543,-0.7659803793169085,-0.729796326742755,-0.6904728481611369,-0.6527340727038167,-0.6286269594899059,-0.6133227897199974,-0.5901184705057638,-0.5479352217409151,-0.49123406248129425,-0.43784270893083865,-0.41236707009433676,-0.43250546781794097,-0.4838532068369099,-0.5384202408438652,-0.5932591763880897,-0.6482929147640538,-0.6969840197676983,-0.73573909738527,-0.7668448474704382,-0.7914437194015727,-0.8083389536166505,-0.8153498498689192,-0.8030623488346177,-0.7714225894427955,-0.7314772637080664,-0.6982999743757011,-0.6823013323582782,-0.6846482602302569,-0.6942552063743598,-0.6940070438448263,-0.6698461164149866,-0.6251175615664119,-0.5746595891172858,-0.5176426607064762,-0.4525425363595755,-0.3906638403507248,-0.3448421000706551,-0.31714482599473137,-0.30225926160239885,-0.2924141893436298,-0.2835631019911967,-0.2789834562584326,-0.2886393890112299,-0.3235995383604034,-0.38249766894223175,-0.4575220930826231,-0.5228304909817637,-0.5657461042118765,-0.5952939201938822,-0.620796628457537,-0.6436110053226135,-0.6610837223651873,-0.671146285216535,-0.6772705591553652,-0.6843770747153755,-0.6949228058215408,-0.7043795031638014,-0.7008805603500109,-0.6746111038567661,-0.618869946390006,-0.5307012272150415,-0.4247819342567178,-0.33094174787146646,-0.27307621145450867,-0.2379447913886079,-0.19464161817460116,-0.11933529568126779,-0.0018176251414795965,0.16085247101583197,0.35934651647629384,0.5527493745463702,0.7010355978920748,0.7984372670042724,0.8602286264653923,0.8992447046276854,0.9227915448041104,0.9353623813156029,0.9401055067872267,0.9397382748975748,0.9366127161405428,0.9331461276074431,0.9311877298342676,0.9290624034337606,0.9170994464064978,0.8711278537935194,0.7756738128878885,0.6661742997254833,0.5869972837613747,0.5424488593432419,0.5186162995613977,0.5055825503249506,0.5002322474766132,0.5047278449082936,0.5243717580195351,0.560965428976681,0.606960263803206,0.6451216076629154,0.662924416711713,0.6566970270805829,0.6242208055322404,0.5581263131108934,0.42709135099019163,0.16450385090422148,-0.11302921373253119,-0.25887753020830284,-0.33762536595230885,-0.3885414778760564,-0.41988132872410816,-0.4348639272383941,-0.43218155545448744,-0.4146881759512398,-0.39599354571015255,-0.39582836859135256,-0.4273182826631084,-0.4848040823247058,-0.5454103134503481,-0.5868153080905624,-0.5998331387412325,-0.579938436858896,-0.5222846090772436,-0.4285433888662913,-0.31851110110645825,-0.21898955102536707,-0.14943385510318255,-0.1109452165125486,-0.08925695109442652,-0.05823245400012084,0.00703649551094534,0.1081502455917818,0.23637992363207877,0.38498729077371,0.548421583909828,0.6997172137349134,0.803097759537202,0.85188080975935,0.8631529222173248,0.8516254320623777,0.8239322537031439,0.780134131761186,0.7051799103991194,0.5737721196823508,0.44414080634053016,0.38010213672982274,0.350021054462477,0.3115511818658679,0.2384627638205889,0.12353538234526339,-0.018783035648863803,-0.15593053166766493,-0.26027278975551493,-0.32254087738087084,-0.34373344053392935,-0.3284680310547306,-0.28711120889971004,-0.24165634899298064,-0.2114260920614296,-0.20017012975693174,-0.20181343808535673,-0.20791851323417143,-0.20872615350872614,-0.19627662969857548,-0.16644833656351582,-0.1204705865191616,-0.06520147712293706,-0.008303322119816443,0.043618911721244054,0.08297988536086007,0.10167718973511697,0.08745170594187927,0.021216603794892232,-0.10801999542679425,-0.2815415550041102,-0.4405880100789924,-0.5496375003154179,-0.6060339119877073,-0.622009561045867,-0.6177374162333001,-0.61617907021794,-0.624616830356202,-0.6306264990567754,-0.613512132723434,-0.5614881765261263,-0.4751617139485461,-0.37939960424053504,-0.31345910404218097,-0.29978744184329215,-0.32752392415945164,-0.3700426276171908,-0.3988017111486694,-0.4055685812730428,-0.4036190972611526,-0.40204502913357426,-0.3147838497822455,-0.1354893162697604,-0.037717249570968434,-0.006770140066455581,-0.008493971792126277,-0.02241707942854556,-0.0324573386165242,-0.03269320094081769,-0.02228504515050956,-0.0029059700865811094,0.027198807009033866,0.07300674054876771,0.1409103407646493,0.23611115516811376,0.3604287778148027,0.5090377131195862,0.6639982933643669,0.7976519513541521,0.8766461203237584,0.8804438468394282,0.8316663529156433,0.7632468022621428,0.6914982763130799,0.6217122243071705,0.5575317280001266,0.5006040828744374,0.4493262685142524,0.4084404957718224,0.38185150538473317,0.36400199145046797,0.34148862444042055,0.313436187333323,0.27789342053872595,0.22501078782885264,0.13727378787400638,0.0075261847643213085,-0.1393589351282988,-0.25867459131803816,-0.33601300067859313,-0.38199684246902577,-0.41599099420044533,-0.45155952123106813,-0.482638622686047,-0.48426178372610984,-0.4365100263440464,-0.3460884297550089,-0.24043102954951362,-0.14254899733136775,-0.06152295284359158,0.006052616210562737,0.07279240600159484,0.14571589977533717,0.2194337783605358,0.2841677406299503,0.34205353768303215,0.3918583592553896,0.4395568142429731,0.48215687981615524,0.5158505224719452,0.5341220161656531,0.5325235104724337,0.5093621151408745,0.4689180107947334,0.4184235346171206,0.36529270699712274,0.32865596315254103,0.3158641194342313,0.3302043453319858,0.3772754361215442,0.43828500070731574,0.4695275189922445,0.45486518133161075,0.44836852537081107,0.508072282966454,0.597917919687726,0.6720352627285917,0.7173491901581781,0.7446587687431877,0.7589143971300286,0.7604959134271283,0.7523307296140759,0.7363287191551882,0.718852276273375,0.7033358465538853,0.6974071593207374,0.7012534006136822,0.7166070164129144,0.7429930398621261,0.7735154944129025,0.7917389899800253,0.7579849992728122,0.6118206983177762,0.3489005341231781,-0.0018085235818427483,-0.41084436799881197,-0.7581097600160247,-0.881080322940826,-0.8807994859583622,-0.8627863065086244,-0.8456798448409918,-0.8310751793365587,-0.8211580374677785,-0.8201685684505697,-0.8274014709108569,-0.8389145933185367,-0.8518788129650041,-0.8634348072122073,-0.8701838332010766,-0.871711574624514,-0.8709819604832947,-0.8718408864242169,-0.8742666270710798,-0.872981666029217,-0.8657493343549786,-0.8548622037967658,-0.842433676362976,-0.8282824359184058,-0.81165206435063,-0.7858298489507017,-0.7353044277159182,-0.6389854964081244,-0.49065822530869146,-0.32442135377495973,-0.18842376152775694,-0.10150380958167267,-0.0646591468872019,-0.06746901009805693,-0.06695224240585593,-0.025887670096357517,0.055254363006067904,0.16935714466815782,0.32412151905739656,0.5067427189343452,0.6704484583117406,0.7774512933549917,0.8341864043264058,0.8606623624068978,0.8708410871470768,0.8742460279587212,0.875097748723756,0.8743644551711197,0.8696177519870523,0.8560540509837155,0.8195824382556763,0.7233920400058992,0.4890522474792482,0.028074777104254815,-0.41151717963119167,-0.5751219275211086,-0.6183288024412872,-0.637042074330862,-0.6556726547133351,-0.6793203453759897,-0.7055294315269759,-0.7238054876688444,-0.7131367911051399,-0.6509766408867107,-0.5325476625582813,-0.38338056951121907,-0.23707408924284923,-0.101527191419151,0.03155964933623198,0.1740002229161589,0.32735044563160814,0.48030463987841204,0.6164476324719148,0.7233969458268341,0.7963956806428818,0.8380895841947625,0.851596342911704,0.8367665102227922,0.7857834363405162,0.6851281577073489,0.5174803764541204,0.27680894396726136,0.008344964707223257,-0.2033525739018246,-0.3193590992381796,-0.3639619558786981,-0.3735902101075413,-0.37841456547496477,-0.39116220940090946,-0.41418534771078097,-0.447151360649959,-0.48677827915425553,-0.5294558328838969,-0.5677489967556311,-0.6015220385269442,-0.6334296593171475,-0.6683227994033931,-0.7095447641672857,-0.7571577109321833,-0.7999251588220572,-0.82826319345625,-0.8393121538956658,-0.8355510222576679,-0.8222208573758869,-0.8051504384209075,-0.7916119684149132,-0.7882535968865593,-0.7968981844075231,-0.8097377962829748,-0.8177265656311624,-0.8219190790011166,-0.8229781273576405,-0.8178863364968131,-0.8058390864090174,-0.7913162889717723,-0.7809805230512632,-0.7842197872602932,-0.8060979120400873,-0.8400293193226497,-0.8719444439200458,-0.8868613518683353,-0.8629408185109197,-0.71608605770343,-0.22394166297596557,0.35729721885200294,0.6291323779565328,0.7423315559379521,0.7971619278690891,0.8271215390215299,0.8458015549674779,0.8585906182846305,0.867870618251631,0.8758492574234686,0.8852197571864706,0.8967372208176354,0.9062510533842961,0.9088432117603545,0.9014135979342326,0.8829155438414392,0.8552093221843615,0.8265132706253084,0.8071047573793775,0.800605122878567,0.8042124317498007,0.8109301952402959,0.8146242989759824,0.8127597678106087,0.8036404680012108,0.7816293055586085,0.7213748323880552,0.5131869797908428,-0.10431426880316436,-0.6346418816280122,-0.8071078195856788,-0.8722642898554072,-0.9050949225872394,-0.9217334519275021,-0.9251283970006893,-0.9175439206120551,-0.9056113922873609,-0.8962040679060934,-0.8930760861288088,-0.8937969039256872,-0.8942021424196318,-0.8900661857890155,-0.8833902488461496,-0.8789363024337572,-0.8785665133530335,-0.8808161491879488,-0.8822638199600442,-0.8807092283501871,-0.8748701407390843,-0.8643096952780225,-0.8509325906942921,-0.8404546452702913,-0.8375280420838953,-0.8420108014548046,-0.8485039993907125,-0.8489658393346028,-0.8374458370182146,-0.8125028375529144,-0.7747499152974661,-0.7215899024109826,-0.6463276561078586,-0.5380659077598258,-0.3847664367475593,-0.1591304780408212,0.19996272177740337,0.6561718441114235,0.905850680218372,0.9412665059303782,0.9150895761958863,0.8789613740198033,0.8449144873772373,0.8183284510447205,0.8002175210653004,0.7905220824865816,0.7891211617218633,0.7898553960917835,0.7781587985775814,0.74637460077479,0.7016382848885716,0.6577594515595623,0.6180812258360313,0.5751769179168899,0.5193758295728468,0.4320289911995736,0.23464983969450684,-0.46243817527354386,-0.7653276837081036,-0.687847119449646,-0.6238036653610707,-0.5708316032096663,-0.5217896697129238,-0.4725271712253727,-0.42014563528724136,-0.3663082647891076,-0.313599552533148,-0.26735261924489145,-0.22994506015628935,-0.20542386444060934,-0.1962900180117967,-0.19888733560032013,-0.20342866764163364,-0.2013033281902928,-0.19545748987642209,-0.2006005823322994,-0.24129676939513292,-0.34549414129904377,-0.5290691550281953,-0.7049480432025587,-0.782263175498822,-0.778639385785573,-0.7227258720824185,-0.6349456822683522,-0.5418421612700133,-0.456830739485481,-0.3829741962874092,-0.31520906202054005,-0.24580269854066708,-0.1707223438105254,-0.09376599852479417,-0.016528034341836802,0.061147371988341054,0.14729471559262508,0.24564309930977826,0.347932796016216,0.4376472026533764,0.5075701336603344,0.5598537305870934,0.6049298582351235,0.6511691097950756,0.694488324497411,0.7289901417187431,0.7520989634246292,0.7706212568786951,0.7949050199359674,0.8267004559816378,0.858196135354017,0.8761605891594096,0.8689212933228285,0.830181628173581,0.7584463637732983,0.6436357703463074,0.4611351677142337,0.19738819456585285,-0.06358654669018153,-0.24354593569784633,-0.348655276079254,-0.40815167709795447,-0.42880236735071886,-0.4083363395127099,-0.34963654478692907,-0.2673765731340874,-0.17088178526081638,-0.07470883348563863,0.015473478927588902,0.10108017428050699,0.20285280949400972,0.34975921216562256,0.5216062148811613,0.6432796345687454,0.6910178751222863,0.7000719117930931,0.693070730514039,0.6872308973664645,0.6846665409927228,0.6831003738629886,0.6802263443240536,0.6739229823321838,0.6602918842208262,0.6210147315788264,0.46569683172444365,0.059519091027225954,-0.30316545941886447,-0.4783584922979681,-0.571265435793617,-0.625725125077147,-0.6583385952061495,-0.6840035063795636,-0.7091954296376315,-0.73724561417408,-0.7692420630565513,-0.8056807422595043,-0.8449655029172722,-0.8854870709101728,-0.9216049115343604,-0.9484519979481818,-0.9632020477031842,-0.9536070453434301,-0.8936051978302367,-0.7659099053113744,-0.6052596645692453,-0.4531612842589728,-0.3166713034505492,-0.1775681270914948,-0.02454686319315402,0.1354317161107371
