0.599074609898403,0.6364061660171662,0.6915699594230424,0.7049108835793781,0.6966539724711533,0.6863834023740208,0.6925012915365266,0.7153565918861933,0.7453441499522614,0.7724238425506018,0.7853824810051505,0.778374590565166,0.7572362806138868,0.7412804978473703,0.7487440826271026,0.7744742669500546,0.8079255831482032,0.8405471541495771,0.867592444501844,0.8865630237710546,0.8975036050491785,0.9019079342706453,0.9010986506590181,0.8986267634943987,0.8982695342001255,0.9005757445906595,0.9047011050973374,0.9052644437214322,0.8924597015189816,0.8475799313939972,0.7660888471735178,0.6738827866005712,0.5880224732957348,0.4835463868748396,0.33913878516290524,0.14730321996414905,-0.08299161605993988,-0.3402883341727648,-0.5778797794924558,-0.7459035788256089,-0.8293337170912184,-0.8556464740954297,-0.8561354954026177,-0.8477073427465014,-0.8360627282795614,-0.8212260324249946,-0.799276488056923,-0.7676948693160502,-0.7104709255046042,-0.5888579095199162,-0.35547849712971674,-0.07369394188334794,0.13300402017093782,0.25213567832683276,0.3144264475960359,0.324851418111291,0.2900177354613292,0.24360328204191842,0.24267322246783668,0.34920360122733246,0.649018798011873,0.8690638754458976,0.8351599966373039,0.771917201387416,0.7237652316511006,0.6876900034459814,0.6512108184808824,0.5824541155823482,0.31631643203516935,-0.646424219414008,-0.9070423195057657,-0.9262651084623399,-0.929248662883564,-0.9269094842381183,-0.922163243307719,-0.9182618392752793,-0.914963928882568,-0.9127586083951374,-0.9119665682474601,-0.917680407131547,-0.9301290434072291,-0.9391848316155785,-0.9302519172256083,-0.8940359162212366,-0.8257727077660213,-0.6938057080331246,-0.44028331321772807,-0.021148220026654407,0.40091050623842966,0.6662697792350142,0.8156156651121322,0.8872549717582282,0.8925737425161676,0.8487091038140513,0.7860926007041326,0.7149572236574967,0.5899986135236388,0.29092353370854734,-0.17677695630606757,-0.5071640570439089,-0.6609908404980558,-0.7302937076701195,-0.7590893459160374,-0.7684757755101653,-0.7715648135498083,-0.7754322428878604,-0.7883194883160953,-0.8135821286521765,-0.8248756285785996,-0.75753162458167,-0.5842009064381096,-0.3461249671892007,-0.04439042124826668,0.250358265763102,0.28272861062880655,-0.28901294848622405,-0.759416930760988,-0.8663150931838329,-0.8924594301306181,-0.8944518873587812,-0.8838661281354576,-0.8663294198586609,-0.8407911322420093,-0.8003108930246045,-0.714129990457208,-0.5074309184475002,-0.22761940677275863,-0.013289102534093362,0.15282972853086396,0.30032701259883754,0.4399846241955563,0.5831864539814081,0.7191315237545082,0.8185026288224013,0.8734064302497355,0.8964399172539694,0.8952548001339788,0.8666823138005543,0.7923788727338306,0.6089315075743907,0.1938511869652393,-0.31930020323557906,-0.5802935044102286,-0.6308740504762701,-0.50226055763007,-0.006389041365182218,0.644180974716642,0.8361066275876275,0.8659476749349224,0.8635356612039691,0.8580756743008835,0.8547615420154856,0.8507380116087,0.8411267806444127,0.8239752536743389,0.8045431350541308,0.7919286205929533,0.7833256045584752,0.7700466452335871,0.7691427316566213,0.809392859420128,0.8792098346069288,0.9283829123397188,0.9461983177794927,0.9504101098507416,0.9502692350337069,0.9464695082572313,0.9387618017586886,0.9299164605634552,0.9217194378503358,0.9159922279327879,0.9112270307023566,0.9056588741980414,0.8994157884784044,0.8899436614803086,0.8746935356188082,0.8439153577299543,0.7630898108304556,0.48236195656562264,-0.24021370708042786,-0.7030916677815903,-0.8273292264902503,-0.8607949860225281,-0.874662099322338,-0.8909961775406232,-0.9082590173909768,-0.9118601651376393,-0.8971917062813458,-0.8797198704934609,-0.8727723791188046,-0.8786220619861291,-0.8903595604485477,-0.8929604977390172,-0.8730069213062888,-0.822789817564895,-0.7478181934078961,-0.6702940912860482,-0.6125593625480334,-0.586840656491963,-0.5990707548068517,-0.6448726814304486,-0.7112354341198265,-0.7779417543228542,-0.8306004541747097,-0.8676736394648932,-0.8934241787257134,-0.9150573967429523,-0.9333228647628087,-0.9467744167453042,-0.9523936659485076,-0.947468886300386,-0.9239082004319152,-0.8706397124811743,-0.7826030074964995,-0.6594486255333125,-0.4972401698172004,-0.2648703552942438,0.1505821225306943,0.31010886430985746,0.2148853746828838,0.0762475819271699,-0.047697318588035484,-0.13332560407428612,-0.17952954136662785,-0.21160298508244552,-0.25511760941767186,-0.32857266246552724,-0.4004231785632369,-0.41958208293211513,-0.39167962405689105,-0.35445080086046166,-0.3518292517242567,-0.4014828074420061,-0.49054167142587446,-0.5941033869293493,-0.6865351504773818,-0.765143006170427,-0.8289471034511774,-0.8302290007207126,-0.7268639950765213,-0.6110859139126342,-0.6448724748407187,-0.6896275341899833,-0.5725538758184879,-0.5709882623981851,-0.6226794909698381,-0.6895788256884011,-0.7575364188053018,-0.8122824536385239,-0.8302913049807281,-0.7356843136076632,-0.04844180566217233,0.7139046321528422,0.8299579910464365,0.8341454002798225,0.8281202079746194,0.8315685153597718,0.8415596068452476,0.8539435327748581,0.8611024892610367,0.8529422383283405,0.8157241841169198,0.740489513333687,0.6676435144300814,0.7095892280065165,0.8518818421176854,0.9183999478821402,0.9312070851384642,0.9330554601583713,0.9313139354991106,0.9276423879853969,0.9220626737360746,0.9146141850312165,0.9052503912920294,0.895374335197831,0.8870958961866563,0.8810849066918511,0.8772928018359772,0.8729133210536639,0.8604859529933225,0.8237635298088906,0.7280757408114293,0.5496697911755014,0.35262860566137616,0.2393753222609361,0.22114640135262267,0.24929503378970397,0.2836003429552594,0.30799434922535335,0.323860977585264,0.33066946108958356,0.3080333880066527,0.20246352869768253,0.019759190621879703,-0.12793743217139528,-0.26095142054972814,-0.40258166320836075,-0.5329687647442336,-0.6627059312055014,-0.7845081001263964,-0.8559289417411838,-0.8687443376319292,-0.8512494184461992,-0.8290937072441132,-0.8171194702318649,-0.8223695640541571,-0.8437700610866482,-0.8762965260431341,-0.9066064355356915,-0.9261224259176045,-0.9325566209508781,-0.9289249854937919,-0.919209688858484,-0.9057916743443553,-0.8850265189846709,-0.8534849849146787,-0.8052174077397666,-0.7337029077196132,-0.6445085490132326,-0.5674377700307213,-0.5369990373015905,-0.5478808996806308,-0.5731954063310759,-0.5802382980548583,-0.5668973330081478,-0.5512581916888394,-0.5498104430929173,-0.5662937884824303,-0.5911741676342137,-0.6059184136574961,-0.5947210655138787,-0.5312883134894588,-0.39270433497945667,-0.1390556301619195,0.25640490828521767,0.5556406617219807,0.709974667865425,0.8232608022785456,0.8901213818280012,0.8924885953451164,0.8530205734748932,0.7948513670035707,0.7239515746436513,0.6284000748171233,0.47882432572085937,0.2038548710142071,-0.19928321471760807,-0.549898184433751,-0.7671350000858199,-0.875541173294516,-0.9046603772522989,-0.9004837028730738,-0.8926813220561056,-0.8964363081403391,-0.9092348498275858,-0.9212624167442222,-0.9247488308311952,-0.9123377631073815,-0.8135933575695065,0.7519405735932253,0.9665500596678889,0.9637046850113276,0.9371428748985409,0.8292986536484468,0.39668146543277044,-0.11944961754809366,-0.19562688330594027,0.025013858472490144,0.4054721018614152,0.7020852662094774,0.8296039708511996,0.8631821879594517,0.8539522188966181,0.8299137182781373,0.8149569963402405,0.824401379770261,0.8475717089679851,0.8484031297999113,0.7986469813836667,0.679306528957089,0.4725582870008872,0.1892756577291743,-0.11457157325009497,-0.39892371048964115,-0.6191770157373805,-0.7309426687964291,-0.7716506416914048,-0.8036744383380606,-0.8463982988359653,-0.8918258370050124,-0.9221557517022699,-0.9278639689507299,-0.9160430773657341,-0.9020335816977807,-0.8976645612663949,-0.9063069686115229,-0.9128536425966413,-0.9066035541279774,-0.8932461499792472,-0.8727406500176961,-0.8189764304853792,-0.6883743136047374,-0.2983324963796669,0.4469291579824744,0.7800436536178929,0.8678647602783843,0.9009924793337242,0.9197284484878816,0.9355813735758967,0.9504144096119219,0.9630582452610321,0.9705632847850753,0.9707260592428683,0.9641580705918354,0.9523261772093423,0.9373917004216286,0.920480329044438,0.8871781911312635,0.7885705631592645,0.6027456801648406,0.4037225570666873,0.2516487745094411,0.14019077268147778,0.031772576443874885,-0.12713591852694092,-0.3630226999232927,-0.5581827774456789,-0.6391932068191316,-0.6586099752427664,-0.6533089060613749,-0.6259491435465262,-0.5652480563344533,-0.45213220853261527,-0.3045245503006597,-0.16842008507938397,-0.08776594716248401,-0.07221519630241811,-0.11682967813672683,-0.19046224266158082,-0.26587071578230986,-0.32021054633588497,-0.35325822470137275,-0.371097988596959,-0.3757917932204766,-0.3613286266672686,-0.32868194629971326,-0.28590968246836007,-0.24900763285662644,-0.22169240181273348,-0.17387472684520824,-0.0752591561860206,0.09883675967348861,0.3415035640272427,0.5650562623573127,0.6982712059880191,0.7560011403874931,0.7650426893918946,0.7345034136233485,0.647043284127421,0.49033548785122233,0.29369952387792,0.14335244919839718,0.09413630261056677,0.08697027692087494,0.03703881429593623,-0.09947724840037345,-0.2600384776745057,-0.3598786368188514,-0.3942217877850176,-0.41152681382622425,-0.47646548967408225,-0.5909071740410964,-0.6976253365098304,-0.7689837318148183,-0.8130486690712293,-0.840384123984819,-0.8499689230179679,-0.8403804510741679,-0.8192988960399088,-0.8012920033111618,-0.7969570398702686,-0.8052262595953542,-0.8141659171149378,-0.8035512864592934,-0.7342177566487683,-0.4696778573239793,0.16157485856203177,0.6127397864368894,0.7683064520024155,0.8353746706885378,0.8818027513678209,0.9146848137420317,0.9201615865052952,0.8939050449225772,0.8320225419969429,0.7236288918454117,0.607513883488391,0.6040423841111104,0.7319634982970082,0.8664554909652337,0.9387998096406198,0.9673512341312193,0.9770712185783907,0.9800785057243486,0.9806246723091983,0.9790917753126689,0.9749577201174338,0.9680082794619244,0.9583022497183958,0.9467564204083271,0.9332471886979066,0.9140331521615275,0.8664846965278405,0.6768935685563231,-0.07399994794270803,-0.7365355697126239,-0.9046369739975189,-0.9553373430991645,-0.9694526440882623,-0.9648693888881396,-0.9510763925951308,-0.9378473402089246,-0.9301391203096263,-0.9255344023639486,-0.919739461368929,-0.9122626633994284,-0.9047868702142119,-0.8976211621043934,-0.8900643008795901,-0.8843914445160832,-0.883043712633313,-0.8861813330944122,-0.8919548120691041,-0.9008992531213215,-0.9112932846263717,-0.9210529908755147,-0.929800474541805,-0.9366454329458491,-0.9381783209366804,-0.931566263076359,-0.9177384885824735,-0.9063393124833063,-0.9032785002909294,-0.899524436650572,-0.8659679781354619,-0.5644385157491862,0.8137963678354042,0.9480639018344144,0.9567882420967003,0.9540435650621968,0.9495712031329883,0.9459129670609665,0.944451536712682,0.9452223880599421,0.947633426851606,0.9508347048573226,0.9530259749869285,0.9533146158803976,0.9513901199377528,0.9437367054887614,0.9087718454710075,0.7446441359276319,0.2257060058779814,-0.28882789702800366,-0.5293982508922572,-0.6523171673041621,-0.7368056660119505,-0.8080409422329649,-0.8594517680591405,-0.8903850184252444,-0.9080461462781316,-0.9170183874718362,-0.9141542585250687,-0.8981608959378579,-0.8773205841520303,-0.8583567294098343,-0.8430408291915209,-0.8322543936001034,-0.8271246003830778,-0.8269962692057008,-0.8294050768383473,-0.8290216624634681,-0.8230191360470567,-0.8066426473509193,-0.7845628356817134,-0.7639502675736195,-0.7432080390088338,-0.7102557164772956,-0.6479302498094179,-0.5453597139422085,-0.41884462219734414,-0.3165373391143376,-0.25377308633658163,-0.2205686681096205,-0.19167807961159977,-0.15051495481092184,-0.09965152980275059,-0.055400082522059704,-0.028212352905601142,-0.013460507495234078,-0.003958694065483302,0.006043768714846225,0.03399667399500771,0.09554799249348277,0.19038470634779203,0.28905235765888687,0.350379223957194,0.37346046867021876,0.38534143769098506,0.4015903080219178,0.41951825041105006,0.42349300176505567,0.4070953703156926,0.39103506194014914,0.40188289077695466,0.453587825324151,0.5325673549761133,0.61115720698762,0.6683760365622666,0.6919792073000437,0.6781010596803274,0.6285710903414158,0.5529982090724472,0.47493479492407337,0.41791288058597953,0.4084024801652926,0.47068840064173434,0.588088516776898,0.6865848220491435,0.7368444071700642,0.7590035365114495,0.7671753133429973,0.7722391908094587,0.7570019506178324,0.6694411568705758,0.48535294635044096,0.28694496713790396,0.15888564439458658,0.11716404311803737,0.1427799050536715,0.2105500959985931,0.27585863778965114,0.31620956982015985,0.3245830958230818,0.27070939424202,0.13223438060841644,-0.0569733057837732,-0.2161337833774376,-0.32285263265357145,-0.404645888580117,-0.4395428965277166,-0.22658453537186513,0.1357667851541553,0.31505868063839276,0.3698818134784679,0.359315897389653,0.3935312922682284,0.5272421790265958,0.7256699146533965,0.8347037834073135,0.829370879650042,0.7809520343635513,0.7265340030230324,0.6803371027943095,0.6516536242096059,0.6437094408254848,0.6627814009159045,0.7037413551824794,0.7450116596095981,0.7703083058482965,0.7787964013113526,0.7769282333600159,0.7730884818669997,0.7733255492285016,0.7745380332568753,0.7336918651516214,-0.018458048834399717,-0.7938321384356154,-0.8830969989767767,-0.915399294625611,-0.9342541455953863,-0.9453399050840102,-0.9504517964083589,-0.9506525738668827,-0.9468099749653802,-0.9356124830660324,-0.9146306008174895,-0.8867735015047352,-0.8586093065623823,-0.8345046437021109,-0.8190638562751709,-0.8129066515359366,-0.8120543693497075,-0.8018590238250154,-0.7498834322808388,-0.5100876866432447,0.4529138422116892,0.8814626696385363,0.9226179570411545,0.9222142913750775,0.9177524255838672,0.9190269711557634,0.927458537472495,0.9399203792239981,0.9526812624744109,0.9637424481903931,0.9717447099150746,0.976699512395679,0.9791310151654272,0.9792606823682861,0.9765612919166239,0.9695307957620213,0.9531387254224615,0.9105147297487096,0.7850018677467056,0.4303355416359225,-0.15395037764082786,-0.5658228568489937,-0.7297775430240613,-0.777248235690642,-0.7956106206988416,-0.811671378730298,-0.8272259863065254,-0.8401323553047298,-0.8520535560147738,-0.8619244815066425,-0.8685597983043788,-0.8713226140421878,-0.873938598207319,-0.8806422315091714,-0.8932453712598042,-0.911346401466022,-0.9310506928254082,-0.9494346303998444,-0.9644950145494218,-0.9732379910715904,-0.975357786332987,-0.9736502234822008,-0.9698379215642753,-0.9656014121254135,-0.9612681461121605,-0.9580307083820356,-0.9579834473617537,-0.9610088105717884,-0.9647953199059094,-0.9677237269630329,-0.9686289363906494,-0.9661441476688497,-0.959063875208808,-0.9453146689785898,-0.9234932894249904,-0.8969521313284363,-0.8727215506254178,-0.8523788659276894,-0.8303993839328604,-0.7963248864175895,-0.7478066587473665,-0.7061415055466178,-0.6962896224401461,-0.7098905492798079,-0.7294021913591228,-0.75063064940707,-0.774326924891233,-0.7937302000123726,-0.7862691460610085,-0.6837226591279286,-0.30670936282999617,0.29978563521769636,0.6206517812049459,0.6821617279149117,0.5915097318017584,0.3919899613229256,0.22021942453392898,0.14685392074274362,0.10797904783969536,0.05235260630218368,0.007999513052715573,0.004830548972734276,0.11736559133974071,0.337286363918902,0.21999426083621573,0.010916808833163113,-0.15630637857887847,-0.26781535726439837,-0.31667940321717036,-0.3185347941277178,-0.25887204779537765,-0.08701564574723805,0.26894096525831407,0.6412678517730175,0.7532736362349242,0.7588938373306915,0.7526408619459197,0.7495340569771082,0.741853839978396,0.7315428993477967,0.7248457686966437,0.7240358397736409,0.7256514991629471,0.7252308453693581,0.723542018811752,0.7244318226775308,0.7341933557225231,0.7568546364988896,0.7876301027228726,0.8166695103592169,0.8377574123841003,0.8534507067740185,0.8667862501434945,0.8760608332574107,0.8802051927819617,0.8794175901752885,0.8753517940865694,0.8713916691952736,0.8732340839746492,0.8870603111556005,0.9099403106161453,0.925267828607691,0.9119539587597097,0.863494047975707,0.7961160856215798,0.7274672667690627,0.6656910129542534,0.5890899392344289,0.47336220530119383,0.293687269530116,0.06551439896102364,-0.1464910324981681,-0.3088996588834286,-0.41113874243141096,-0.43994802628330965,-0.42275606097051827,-0.4120233626418213,-0.44503888567178596,-0.5325105377550946,-0.648175983052139,-0.7180649432940566,-0.7231126085746279,-0.6907313316247254,-0.6379914834174267,-0.5683842393014175,-0.5024574477372055,-0.46246207430578173,-0.46002851829147867,-0.4797444103023926,-0.49280984080743023,-0.48768959874879697,-0.45278884407096404,-0.37542040641460567,-0.23685753239646976,-0.03770069969886512,0.14794639449454355,0.261324268156588,0.30810082232290015,0.2892149123853798,0.18013953530898233,-0.04933925369474605,-0.3347297623601283,-0.5098337837372465,-0.5791771187223098,-0.6098279719730783,-0.6537668185449468,-0.7142260769916593,-0.7616777502501343,-0.7624171278559989,-0.6465175998157743,-0.11954566695847788,0.5896686330041115,0.8101578876739097,0.8661606138437992,0.8811321848133796,0.8822251676469705,0.8708719287237456,0.8366077552739569,0.7538287833128414,0.5981955763206935,0.37089547282176205,0.09887396076539647,-0.16596546258942188,-0.34754874922811935,-0.47189399020413,-0.5899730524786977,-0.690983560041552,-0.7704223251870255,-0.8281585227513686,-0.8709301248630853,-0.9028185649608355,-0.9254849840304916,-0.9418117547511056,-0.9529682149637914,-0.9593758581925281,-0.9600451484180583,-0.9491206045927868,-0.8927604084472718,-0.7082251092167146,-0.4280759066918274,-0.2677176957648968,-0.2410580724636569,-0.2764306675784583,-0.3363371820840797,-0.41504805043481013,-0.4985012815561367,-0.5542994153095641,-0.5605461661266669,-0.5252237394780728,-0.49740943472214033,-0.49107116546267704,-0.46143078277973243,-0.3300342803925187,0.06373410319286137,0.6521980096907829,0.8801141732767175,0.9295945601518392,0.936932758893318,0.9225826032956028,0.8900990520568361,0.8482811866565256,0.8057950371767384,0.756928142848219,0.6775996588317826,0.5264250803860547,0.32611388542944214,0.18970592259839442,0.16179610523875362,0.18765401124248265,0.2070648574184488,0.1838642284997551,0.10335819863151581,-0.04697807348236884,-0.25025061060053627,-0.4422436916085641,-0.5531891383784969,-0.564034646859218,-0.5146230195524673,-0.533144305646213,-0.6583711378985406,-0.7910721180616203,-0.8677241451613974,-0.904141659414901,-0.9187478008198474,-0.920595423433066,-0.9129416882220588,-0.896264495812903,-0.8718320825205937,-0.8471430134880161,-0.8280641595687056,-0.8035339387313681,-0.7539050967047624,-0.677627436286416,-0.5719931820810459,-0.40859624284093055,-0.1048808505802201,0.4818831362662027,0.7137736360078367,0.6847827793146927,0.6501636176350546,0.6311849764429626,0.6262235109464506,0.6348644922480357,0.6519835120741508,0.6691588831223645,0.6723737242922012,0.6526584540919939,0.6182664510891606,0.5728073073593375,0.5036750226661793,0.4019603917102544,0.2582512224646353,0.0971122576983845,-0.0833118425421646,-0.2838520681857183,-0.4945568594077514,-0.6739401711129506,-0.7853183470236773,-0.8083453210505668,-0.7535725756207138,-0.6910494963116498,-0.6544401444908996,-0.640362302559497,-0.6334881691584281,-0.6298276292548934,-0.6265374113222366,-0.618199419346799,-0.5982861452207939,-0.5663690049165047,-0.5220330320786646,-0.47396925377185894,-0.4341567585931583,-0.4096415050699411,-0.3928501758224914,-0.3608721221519602,-0.2709615467670388,-0.061426308817937376,0.28211338328503727,0.6177347739378782,0.8155804268137407,0.9192569952503056,0.9741828707917979,0.992537615648415,0.986474863062984,0.9690560990648551,0.9479698843910167,0.9283279625386589,0.9143551845851879,0.9030188905316106,0.8864443882917555,0.8501785203759832,0.7651166050616994,0.5873656452655748,0.32054714928554445,0.09798764283199438,0.02028192985912083,0.0755929773132456,0.2113053297593024,0.3771795716418377,0.5573552322267478,0.7293362037656645,0.8403999819689347,0.8915500710581415,0.9174543521887967,0.9321974056989368,0.9430458519261138,0.9526072927653443,0.9620458715285367,0.9694835887603496,0.974597281997102,0.9765559918767903,0.9750088847204786,0.971352530509564,0.9655393224813622,0.9552862834625352,0.9326511614448376,0.8861322121532484,0.7997191127829657,0.6390257028575225,0.37305447626207605,0.004901911684730582,-0.409397636938531,-0.7314874201348429,-0.8726006494656237,-0.9147347616467796,-0.9282403805521626,-0.9349560305366463,-0.938647366185659,-0.9372142428572883,-0.9273481628259046,-0.9112453543119049,-0.8988879329603877,-0.8990743521637776,-0.9076671543418292,-0.9061922321103194,-0.876094871395778,-0.8231928047573914,-0.7696030751392807,-0.724300984397064,-0.6768231137612224,-0.6336777137459846,-0.6140642776396568,-0.6144806032302065,-0.603875506471789,-0.42606268689166243,0.24835415820813636,0.692031890531839,0.8274178239741552,0.8754451979568506,0.8873921609380553,0.8741706795410089,0.8428007945933907,0.7982645092256806,0.7468688608441535,0.6942391333701602,0.6394145031135215,0.5816892223448538,0.5125212665444383,0.4211740497061149,0.2969947018077876,0.11488214651800197,-0.18733519434052637,-0.529715183416061,-0.5930904640322218,-0.5493276955797842,-0.5062962641325741,-0.47357628754310205,-0.4615626383721794,-0.4177306079895274,-0.3342682716930271,-0.35634787698544873,-0.44338928811799566,-0.5340979586445744,-0.5973921205305177,-0.6371994296685799,-0.6646252916935049,-0.6915340727725358,-0.7196284531174405,-0.7522701863038195,-0.7866416505716034,-0.8194071026141639,-0.8462932636716075,-0.869037468360673,-0.8926070614867504,-0.9177771088739989,-0.9379532467787447,-0.9509524246636479,-0.9595260413569697,-0.9632318524936367,-0.9301763183937624,-0.8004233269066651,-0.6393333535030952,-0.5180030735929237,-0.4134344941654852,-0.28184035945563457,-0.13722074630457803,-0.06864246489500575,-0.18207571264758543,-0.458548885118698,-0.6671892016496216,-0.7105084600031915,-0.6417869205250987,-0.47409699996776683,-0.2176481092474487,0.05437226808869512,0.25165548905053675,0.3392870498011595,0.308360563633956,0.13176839505188773,-0.18015957458545045,-0.4872285879709443,-0.6657966910091981,-0.7329656559406159,-0.7049121393765742,-0.506391820115211,0.05036833563791185,0.5604175793526904,0.737716311870302,0.7822257563270322,0.7807978118524215,0.7556537417458709,0.6843521831255928,0.4864814382872668,0.1383078024355711,-0.09086475028321712,-0.10626678907515434,0.04430331082557445,0.2907872308019675,0.5232344657457892,0.6748606362722845,0.7466037565409442,0.7526034899104462,0.6961192310450606,0.5716271816559225,0.4067822267965559,0.2647248725428159,0.1841541421449565,0.15773049924507568,0.20595190837102104,0.30921209803069316,0.41961736150595363,0.509316914517726,0.586928130095148,0.6595252567264066,0.7298441016621524,0.7830082664934399,0.803559624944058,0.7941034340933038,0.7676766238899334,0.7101036300873314,0.5832784808243245,0.48467713418364405,0.5161529758347903,0.6197903925984002,0.7165829574573821,0.7711238627050723,0.795509281583388,0.8047956513369758,0.7999439977735364,0.7804027428889596,0.7531548566751205,0.7273642990126991,0.7087487069341794,0.7008485103535839,0.7064200604498578,0.7229875679313535,0.7467646964035489,0.7754996960052349,0.8055072134448591,0.8336361469719309,0.8578569831129815,0.8760988508589023,0.8865083296202738,0.8883955837405616,0.8829612119614797,0.8697039950482661,0.8463806406159224,0.8107050211861108,0.7610484838104499,0.6927568781375983,0.5940593481843741,0.44483431576949617,0.17973288280079341,-0.2746049225972028,-0.6474609606329796,-0.8103895137529326,-0.8788274097207907,-0.9117105089050627,-0.9278086259619697,-0.9315939259911691,-0.9161116609855507,-0.8592521678783662,-0.70238313021693,-0.41393243981490685,-0.20769428462043749,-0.21970093670601848,-0.34268912266763407,-0.4632819076294176,-0.5383372128877921,-0.5477020275735407,-0.4932655669178458,-0.3912245367750327,-0.29305669214831936,-0.24435881047389735,-0.25632178628873803,-0.3295507896167654,-0.4442643240372296,-0.5698512453043801,-0.6872953003910764,-0.7848251421895743,-0.8584091649784827,-0.883765932530795,-0.8393884816813961,-0.7825919527200543,-0.77215398758423,-0.8017385481762477,-0.8477764725817988,-0.8748653735620407,-0.8532953205292026,-0.78791154173576,-0.7010463916422567,-0.60931597053701,-0.5206327774759307,-0.4568158401006384,-0.42950586937562746,-0.43860015892154713,-0.4645392976542534,-0.4805278777406739,-0.5091704341311649,-0.5616254084495595,-0.6238638056867158,-0.6778970056678262,-0.7183441643948357,-0.7535047930946895,-0.7888678380544454,-0.8184425858599064,-0.824510693929147,-0.7850789665161135,-0.6966197093323127,-0.5915190491911538,-0.5342529234763913,-0.5465236730372472,-0.5934146266888292,-0.6321749945188027,-0.6535446891134196,-0.6672031543517976,-0.6891633861239951,-0.7293215161602692,-0.7755073674828841,-0.8081610450024935,-0.8221852678840367,-0.8354207498875335,-0.8631039886406795,-0.9031889983167087,-0.9297420777679316,-0.8582455119315623,-0.5984294827337275,-0.2309492130016851,0.11949512295656368,0.35872520003419134,0.471471902570783,0.5192940980417089,0.539878899009729,0.541422117539598,0.5401419115805715,0.5629544776059409,0.616249423687127,0.6779882985600758,0.7213509641981901,0.7389006470684172,0.7428225275148245,0.7441309755501477,0.7479643218952668,0.7619775537271315,0.7916890999821462,0.8349392405600843,0.8745435878647295,0.8933370747832551,0.8914074463387437,0.8779781730179318,0.8481078799368628,0.7805687203099024,0.6367028170909803,0.3908756605951191,0.141830362964405,-0.002866144134716488,-0.055975997578882816,-0.058915812425851394,-0.043532350189335475,-0.025234482488306374,-0.014128023924629337,-0.00958346471603821,0.013893255049507428,0.08333184882505895,0.19922923103361292,0.33753042647061593,0.4556352840983123,0.5210889400171993,0.5356685076119896,0.5097072630990226,0.4392964224195391,0.2755772485673468,-0.08104608108397289,-0.45846661750818857,-0.47007166701015063,-0.21386240659167188,0.13866057900689455,0.40897632363095876,0.543938074047047,0.5655488884842169,0.5385157818036933,0.5137835656980937,0.5058878452027479,0.5173923634531484,0.5309871502717569,0.5276874470179606,0.4888461653663051,0.4052361749291727,0.2632888184356568,0.0317851565494799,-0.3490213534664033,-0.7601870597585684,-0.8634812770253711,-0.8236234990779958,-0.7988088633358321,-0.8068528585581446,-0.830752120534446,-0.8496142296415362,-0.8503203107651004,-0.8294250417835007,-0.7878863442480953,-0.7124005445802394,-0.5331477642905742,-0.16244720161028378,0.2297121600345724,0.4297579312357599,0.4381426573101415,0.3336388325880299,0.16882950112005735,0.001548409933385929,-0.10868077539043718,-0.10250123108515677,0.26668057641946397,0.732971409329421,0.7620332480446667,0.7595326004639795,0.766498729069081,0.7780149713092317,0.7867398441008844,0.784510678460507,0.752358667568271,0.6544434015693485,0.4926414750234305,0.31389335352088155,0.13794678204942262,-0.06416799320890905,-0.3359656239649772,-0.5725429816082788,-0.6851074029500674,-0.7024258949196107,-0.6440714445176411,-0.5115370681325686,-0.3472438704716593,-0.1896067986454252,-0.03204488495849593,0.15908332571344616,0.3918866022093904,0.6110562694579208,0.7608085272986539,0.8493855168724491,0.902277412418114,0.9328414438891517,0.9445264514824239,0.9297700029236736,0.8997576466839843,0.8930448416998216,0.9090195311272734,0.9289662292388482,0.9466708734349515,0.9602215712404606,0.9662937878324105,0.9622633483364184,0.9370362355380872,0.8260774689081414,0.25491130260683054,-0.5455963151510557,-0.7700624233824966,-0.8235592224041612,-0.8241996171107882,-0.7867148640849393,-0.6963855923230547,-0.542474538392728,-0.36217514491956276,-0.22045988245518086,-0.15338028209019525,-0.1745401463681815,-0.3035168525024358,-0.5380348603270266,-0.7589405128328925,-0.8621776362558319,-0.8869374769608426,-0.8861343433652131,-0.8712631550410334,-0.842359136064825,-0.80257630978715,-0.7657848373108957,-0.7443731765430156,-0.7393613995816893,-0.743645071361303,-0.7465223203474345,-0.7490187184096136,-0.7570196316343073,-0.7696707742908278,-0.7809155913590583,-0.7839478818789354,-0.7791605467191112,-0.773162879986533,-0.7795559861285914,-0.8114182106555404,-0.8574395691847687,-0.8928947277442565,-0.9049789262966416,-0.8909029643598789,-0.8530675493111451,-0.7908536960851033,-0.6980790754018843,-0.5640656721748323,-0.35629561902850526,-0.07197668425616507,0.20524462003870914,0.4048263833521288,0.5303092160131267,0.6204758754721604,0.6932414544538349,0.7523629052217756,0.8005494651887,0.8420566859833285,0.8774526126919217,0.9061003472270742,0.9285016536352798,0.9459001192141483,0.9574276046072329,0.9579610707694712,0.9348125761205174,0.8413905461175942,0.5107431621378932,-0.09678919905255075,-0.40028987786869724,-0.4205008025360912,-0.31043672256327925,-0.14807228174295253,-0.0888461917818591,-0.19408482290415893,-0.36612341614780036,-0.5107205210142097,-0.6139394391501085,-0.683245068204044,-0.7289283252032462,-0.7559806780081669,-0.7677569626956423,-0.7666913814697413,-0.7569408150055524,-0.6589757845909764,-0.24119885788732015,0.17576746302578916,0.3805830218718803,0.4901977219995176,0.5531442712734422,0.5790751938336814,0.5773489954341459,0.5468132595392927,0.4801280895197883,0.3654282535947423,0.18848433916940835,-0.0505598086990227,-0.2989753030275988,-0.5222526407999148,-0.7167232552971335,-0.8601474794383038,-0.9221933679845217,-0.9235524471407632,-0.9152357473109919,-0.9114057878955271,-0.9053873070615197,-0.8817169508381795,-0.8168441811777065,-0.6935341907044503,-0.5594949478055646,-0.4950465798421093,-0.4867812028261455,-0.450555812386055,-0.2939006129785717,-0.01742773843236802,0.24054337758621164,0.4218991160838079,0.5290663408818376,0.5509413923206451,0.4582324184506459,0.23168640529081866,-0.0632734452342427,-0.29781734563674545,-0.4424624986549178,-0.5352163631963842,-0.6143663354463971,-0.6936985407861604,-0.7692876947476672,-0.8326757191819188,-0.882396745301485,-0.9179913301569252,-0.938798156785684,-0.9414201658533147,-0.9139723315561791,-0.8137955914556,-0.5012453140152463,0.11999503728792556,0.5664603148488095,0.7356853333268941,0.7939001802781772,0.8104742626343884,0.8159939089269701,0.8246374997786851,0.8404581783375158,0.8590564895646707,0.8740515239825781,0.8818715500935138,0.8826918416883949,0.8793434717339386,0.8758021553710241,0.8778296529014158,0.8885755152415427,0.9066692757945463,0.9289160311398595,0.9523250228113049,0.9726337634649596,0.9840761224998594,0.9691289291560505,0.8535272779760041,0.4972567717276458,0.0992238794200025,-0.08942482870680458,-0.11643183186728899,-0.0506573690356518,0.07019116774529117,0.21340026695895875,0.3351528476561293,0.3996020606000075,0.36596279393027176,0.14221151334394433,-0.3083170105172713,-0.6211691683137356,-0.7265265554397194,-0.7016408638684215,-0.4551458358196398,-0.11369879701479849,0.009472542199389368,-0.05457047610602354,-0.21465003525052526,-0.3823306173312308,-0.5179403430555135,-0.6236509015281201,-0.7031020669388099,-0.7595844887144807,-0.7915867660801076,-0.8094409375174685,-0.8216280032854595,-0.8317917617203946,-0.841330171059328,-0.8507173053870911,-0.8574193366105856,-0.8540317190364038,-0.8422396227455167,-0.8380165177928063,-0.8452191954373007,-0.8536609497737564,-0.8525171400819817,-0.845047690908534,-0.8402049068727653,-0.8420018404415166,-0.8497483157222844,-0.8618267824458157,-0.8757530439772164,-0.8881773313016248,-0.8980302994735014,-0.9067191314351868,-0.9142937848018893,-0.919940270261736,-0.9238263945613692,-0.9255420540269631,-0.9231532764881799,-0.9158953830874511,-0.9033653507632554,-0.8825287779153723,-0.8553959106098334,-0.8257551546325568,-0.8013604017739082,-0.7940617153461682,-0.8061547955543249,-0.820191769219045,-0.8269649094640283,-0.8232710410378119,-0.8069419065506396,-0.7759294075598876,-0.7264830628463442,-0.6285426383568006,-0.47077009728752117,-0.31348671918309956,-0.21989355207454847,-0.19124556798227166,-0.19976321121054955,-0.19819127808684148,-0.10203786423160259,0.13990834735604712,0.4366233378951956,0.6845650683471082,0.8310560765692526,0.8945191309180677,0.9072116099060881,0.8941876549884116,0.8740463572134751,0.8587349773720178,0.8541320115174518,0.8552464140493059,0.8552080242583522,0.8517536603299171,0.8494278463530285,0.848936533600432,0.85045247167149,0.8512703801078675,0.8493747566815288,0.8468320473094039,0.8455974261193361,0.8457647565510914,0.8442511488297312,0.8287754759134651,0.7405582615681235,-0.21336288720791116,-0.9635569745244622,-0.8771995175023992,0.5592108797664329,0.8904504352345811,0.92415828035582,0.9224519132855769,0.903912537111414,0.8679924900500504,0.8001457998442029,0.6990068070743093,0.6048832738845932,0.561941075047583,0.5689711430833958,0.5937700696023227,0.5955622361519016,0.5194495544233242,0.28859195413686584,-0.10686705103833982,-0.4757568434970224,-0.6986706944226337,-0.8195790691059858,-0.8887965915851325,-0.9250670815247692,-0.9377319979103027,-0.9332103434899265,-0.9187624374697014,-0.9011179596642943,-0.8825467588263441,-0.8553830274863307,-0.7967529306381856,-0.6308871585078246,-0.2507017897549509,0.19177282130852333,0.46854724363514144,0.6259756598583102,0.7288863706474744,0.8062154707003051,0.8624270146697429,0.8997677543693818,0.9237380057138872,0.9399455499485112,0.9506978694237279,0.9576837324111491,0.9612559985270429,0.9618983198820746,0.9594443097446366,0.9538597232857772,0.9452472789431651,0.9341140490413768,0.921430135751851,0.907771473410278,0.8916683799856607,0.8685488377858394,0.8225723097534039,0.7095580658688162,0.41743008312470814,-0.10592195462382623,-0.5268591389785762,-0.7226801492008326,-0.8108989413410258,-0.8559838893243352,-0.8845182126347196,-0.9064485501458021,-0.9234737352006346,-0.934843946583929,-0.9410048797306395,-0.9449475679735032,-0.950032486529047,-0.9543622297476906,-0.9498986995024734,-0.9302238711056742,-0.8959759373559943,-0.8563949927878511,-0.8243500932686847,-0.8074214310162113,-0.801761326680042,-0.80005407828737,-0.7986394151427013,-0.79629928144176,-0.7909525451104167,-0.7817005777705206,-0.7724273535081683,-0.7684496656774695,-0.7738367489358521,-0.7884254455115506,-0.8102800650371,-0.8316158326156651,-0.8389372723104087,-0.8340848151811541,-0.829321069176311,-0.8203792310483281,-0.8034282341562247,-0.7855481386285674,-0.7742103282788985,-0.7683060597839592,-0.7659274412033029,-0.7740853451144688,-0.7871108202153837,-0.7860376299168438,-0.757683834878918,-0.7162247012592481,-0.6909371890979041,-0.681725327138424,-0.6821870282518634,-0.6855996581833035,-0.6993868623992011,-0.7332306021420539,-0.8095951497365106,-0.9051065119861349,-0.9091861890875016,-0.8535570910560362,-0.8215078969349017,-0.8017095951461218,-0.7827198045657158,-0.7634344688371526,-0.7482733884429719,-0.7447153138030795,-0.7535662699573553,-0.7650067006185468,-0.7724048136343038,-0.782028948163505,-0.7961722919195636,-0.8066176633840602,-0.8068554375116957,-0.7989640102401098,-0.7865516897250167,-0.7842257422109051,-0.8108198250477596,-0.8555768476771183,-0.8918187021387644,-0.9127039305563595,-0.9150656086406532,-0.8795842268747625,-0.6377910446983799,0.31422208497907034,0.7595891762790203,0.8622684415850673,0.9030880602416085,0.9301460336472324,0.9502659936742122,0.9629688961969664,0.968709976703366,0.9695648899254423,0.9669275823912966,0.9615039425662615,0.9547467276093567,0.9474999808977664,0.9410291230913607,0.9369729647298272,0.9371309264023061,0.9411515304660988,0.9464369777259042,0.9521408159444696,0.9576783387365058,0.9617382771757608,0.9641013920150582,0.9633699237650577,0.9575970771355391,0.9447476614636201,0.923222412486467,0.883021976855492,0.8002794662334705,0.6390072358505904,0.392342544629921,0.13818114892208014,-0.06721705334854276,-0.2247680475765014,-0.3400044418129492,-0.42512029692173764,-0.49978223799084065,-0.5890282490004684,-0.6926774357621357,-0.7759773242594543,-0.8090627325662005,-0.8059790075592855,-0.7909378900551696,-0.7864827386456417,-0.8159027787064019,-0.8713771503701371,-0.9128911512980441,-0.9260332902103504,-0.9167488795086083,-0.8943610370469977,-0.8712493415280989,-0.857557319002469,-0.8544644481677904,-0.8590071334165386,-0.869357107181649,-0.8840696070013085,-0.8992711496787651,-0.907045602577134,-0.8958352718758722,-0.8471362374947434,-0.7276295399427665,-0.48597234635642605,-0.10252301110590252,0.31000932924704544,0.5573025579357415,0.6438340251044432,0.6618418469517064,0.6536271888648573,0.6358545994778859,0.6269900543927156,0.6429518450394153,0.6745857032687774,0.7022226771000526,0.7146119724840341,0.7103195974297954,0.6951909307443135,0.6795107532525914,0.670035597169892,0.6599356246652544,0.6326595828715087,0.560498213364112,0.4014067062693906,0.1582474180294283,-0.05785717893139771,-0.16532612345813835,-0.16734868349842477,-0.09590884698127201,-0.004977745666775836,0.024311327954941047,-0.09028381875520931,-0.35026681119857844,-0.5661400531110975,-0.6741311646019329,-0.7016346718354974,-0.6485038154552566,-0.46167059116241355,-0.05381567549529392,0.4037760489645945,0.6339770139293024,0.6817490744112955,0.619888932037343,0.4889895370600448,0.3477746126986811,0.23639315791281917,0.15698912188233546,0.10061123292351527,0.052055969444860746,-0.0034711971254839935,-0.07314938973485088,-0.14724959365662474,-0.19265172058352034,-0.1530152747194096,0.0602012270437789,0.36462629838515465,0.5565818113481255,0.6712914111736681,0.7493235217416494,0.8038666841989561,0.8440582715169944,0.8749225502448954,0.8971747657688003,0.9082148176411721,0.9069127850948736,0.8901179861231148,0.8371514851740413,0.6245745785504007,0.11250272477786356,-0.20085364139172826,-0.2526224283016633,-0.1791333655915317,-0.041471538895304756,0.08072137873940827,0.07762714210672512,-0.1444203336098394,-0.5402294084750087,-0.8109454312615684,-0.9095486615020614,-0.9305946466680384,-0.918126752377199,-0.8883790217273453,-0.850238188528167,-0.8179052382435626,-0.801397597323948,-0.8058341507511797,-0.83059805281083,-0.8672490501034261,-0.9002214470062383,-0.9171027083014134,-0.9150217034715661,-0.90219147316428,-0.8902059433983947,-0.8822256411881112,-0.8792758806954867,-0.8785995976402913,-0.8746097124610757,-0.8610635439640377,-0.8378549043803069,-0.8071685637590478,-0.7665062103362844,-0.7164788857489759,-0.673398629619476,-0.6555302453855266,-0.674007787561298,-0.7264032273397913,-0.7966928161028816,-0.8618170006009775,-0.892757814946518,-0.8508796571709699,-0.7223321983268364,-0.595984929231067,-0.5506643614484562,-0.5675876058686824,-0.5969917412007848,-0.6213673821315863,-0.6401719768074383,-0.6548123538204693,-0.669595026190516,-0.6932441545196703,-0.7188167109762997,-0.7231429876246741,-0.638875536525943,-0.3560254872429785,0.0009103697169270532,0.23371448506192227,0.36914240643079455,0.45642155619015823,0.5239454492239419,0.5818103599228978,0.6438659972286208,0.7106677163561099,0.7775085811150049,0.8371750687163402,0.8836626960985449,0.9188579281060303,0.941983682411917,0.9523539984045093,0.9547741847653815,0.9544824036721817,0.9525227814843041,0.950255525081138,0.9487764565746617,0.9485804803873886,0.9463069683896224,0.9358877865909191,0.9137086818322444,0.8812193201645517,0.8433478588386758,0.8046438476713651,0.7640591213364247,0.7070827521375965,0.6003534159017055,0.4705988109131966,0.41463757491070885,0.49995362389559533,0.6805715205029736,0.7479029992732638,0.6582407870979435,0.5203509070304048,0.38096734408959815,0.26213513522564397,0.19625403688001597,0.21280851493814862,0.3250056131321348,0.4842394421534119,0.5445055792328841,0.2567149166469922,-0.5752437845678626,-0.8596292992150233,-0.9044649277704343,-0.8891541544136256,-0.8261177264673566,-0.6948433145926542,-0.4863571961064652,-0.2448118134707914,-0.03688128298092702,0.10622801167853536,0.18840898749411703,0.231340043493505,0.2647215944823348,0.31142467398680956,0.3641650655120048,0.43715651082933804,0.561636621995192,0.7084714490657157,0.7821132006064749,0.8065301051780768,0.8236296860728773,0.8430765512221824,0.8560941313068157,0.8544406253887903,0.8210003954762664,0.7353816847429274,0.6116370034982704,0.4839775195867711,0.3037367096089587,-0.10571787351271865,-0.6253244122693429,-0.8077296213683237,-0.8573928752478878,-0.8772179813153587,-0.8832637113259534,-0.8807129787158903,-0.878205295561637,-0.8839324363410567,-0.8993626615307679,-0.9135277187349029,-0.9154318432864051,-0.8994949363154294,-0.8708787485477956,-0.8479046838254821,-0.8479864420567469,-0.8776693467218076,-0.9167751857328794,-0.9352019203196292,-0.9183540534856405,-0.8825090614569121,-0.850656035203552,-0.83368344965459,-0.8254749924446363,-0.8110651298390059,-0.7825617755758187,-0.7453524817479158,-0.7216711950676138,-0.7229858374863098,-0.7475058126369081,-0.7838867777121767,-0.8122779278419145,-0.8203344728117918,-0.797997561680658,-0.7342491395179279,-0.661573023855672,-0.7108821377361512,-0.8003679574726318,-0.8406324196334561,-0.8270202046877322,-0.7150443188687138,-0.30454075898158134,0.3459459189667573,0.6485412767133142,0.7464224226186298,0.77516901690811,0.7828517255427223,0.7901552549868252,0.8044122676561056,0.825599792409866,0.8512606637541438,0.8717010081457868,0.8793480737918457,0.8717185077355037,0.8541910100059892,0.8295348587614867,0.7996920646896312,0.765199885158766,0.7203405599440119,0.6733157710919736,0.6509797075210444,0.679758688917428,0.771266638083943,0.8896541736588994,0.9318006309253712,0.8742134261501268,0.7726285852478555,0.6496914670715414,0.5144971882099033,0.3689004651349325,0.23766365870708583,0.12277391475245585,0.008103584005071962,-0.1190814944825615,-0.24310197931192432,-0.3596862665341507,-0.4628916261543507,-0.5438762183878421,-0.5937665410615048,-0.6077808469014983,-0.592560964534629,-0.5645864571026499,-0.5394787603093248,-0.5232723961194894,-0.5150951009992412,-0.5053246896994245,-0.48769965445550884,-0.46343613546651535,-0.4320787476866334,-0.3827201925926845,-0.29811336611682004,-0.12067490628972316,0.11929350742936208,0.30370709688831576,0.41675574092316753,0.47604628509616864,0.48030903736315134,0.4403618674523422,0.3852384076205043,0.34240567714617126,0.3238468819429205,0.3365876453632624,0.37942401975466894,0.438999957354902,0.4968597140766564,0.5411216073154718,0.5753985672323899,0.6099074490667117,0.6577497857869687,0.7162855551370007,0.7648122180548796,0.792567111323366,0.7984840179336009,0.7890653601414641,0.7680866143691816,0.7295379143283964,0.6700413489202478,0.5873902561127677,0.47588101887882095,0.3194318544395488,0.0935944622820942,-0.1564752350447402,-0.3094901623280503,-0.37795512700176526,-0.43049247067507257,-0.494085055064544,-0.5564408661736989,-0.6052651264417929,-0.633134648722667,-0.6484160374716487,-0.6560684474541241,-0.6533818364573462,-0.6383051192887483,-0.6155610807489998,-0.5948669043188918,-0.5749176841023164,-0.5409611699266654,-0.47066378886973675,-0.2891807491994377,0.1374512503507518,0.6323098143883633,0.8462899939283665,0.9085256245513353,0.9240936604459012,0.9257459383373216,0.9260252601134312,0.9251606722633486,0.9232330176319886,0.9217425778919732,0.9254939709287823,0.930978249298379,0.9249680628990467,0.8926095516238614,0.83102255630613,0.7655864898140512,0.7254964402768337,0.7085819664304672,0.6925472225716144,0.6430037445101823,0.5249894006049239,0.351599470863074,0.1990134084963942,0.13305259372158101,0.150804148805984,0.21177470842125237,0.26523339625225006,0.27601513203387773,0.2241581547479857,0.08058293149973536,-0.16715126980650807,-0.4364449326002472,-0.6169463813791825,-0.7122442457422453,-0.7645515662860563,-0.8043542241479057,-0.8385926788432487,-0.8701945666361639,-0.8955105115949047,-0.9128238115137837,-0.9267644452598008,-0.9405378046641247,-0.951376875562905,-0.9596765001662556,-0.9643935103015158,-0.9641121201508456,-0.9569663719331871,-0.9442334497468987,-0.9290136939294837,-0.9132796951616824,-0.897412704424946,-0.8826056572813477,-0.8711458507269888,-0.8636883674576853,-0.8560832468193948,-0.8363861733133436,-0.7971562112588685,-0.7419136464114365,-0.671378991548664,-0.5639731583060303,-0.33801421118125213,0.1391998871330597,0.5540401308038023,0.7096489038911777,0.7668477843459099,0.7932676519356346,0.8173296222790077,0.8483520501767728,0.8765803498732234,0.8728572811320199,0.7895747231688601,0.5890237841988019,0.36674397428782357,0.2519922306062885,0.22061028433722324,0.20534562607872459,0.15252328559710718,0.009719538525194363,-0.19773294204665215,-0.30789947178701754,-0.3436843550229313,-0.36467326239298165,-0.38840123183912306,-0.4183625356172853,-0.4572561109407229,-0.5129949675657616,-0.5952993943928716,-0.7054963848542481,-0.8151681861843417,-0.8933190152925585,-0.9357135836434388,-0.9470913763481347,-0.936987253285185,-0.9159849405333871,-0.8853445165502787,-0.8392561013253915,-0.7709898069220585,-0.6775295952060849,-0.5377056310361595,-0.1957986539925374,0.4336513817229405,0.7590774080296377,0.8638003301699637,0.9098211153698195,0.9331319074832133,0.9413863845252154,0.9378240920071262,0.9199014665365408,0.8813768947976773,0.8208372917444203,0.7778918977408319,0.7966239477193244,0.8475332532362017,0.8905552201410443,0.9176415781186593,0.933226615132823,0.9416791973757286,0.9450144604382681,0.9443516193111827,0.9409059206857568,0.9347754465702385,0.9250731387014427,0.9103592624148942,0.888184202619161,0.8570153598574651,0.8161630223076136,0.7648127262054117,0.6831093555861056,0.3726895824852573,-0.3843654573497006,-0.6187543870653116,-0.7033062519958939,-0.7683731443837526,-0.8240206247500628,-0.8598933797262966,-0.8662972081456971,-0.8513227919230836,-0.8334578360286192,-0.8152216280855272,-0.7895686636055645,-0.7542364072872499,-0.710289264946134,-0.6685181938109592,-0.6474843408093172,-0.6306669679236724,-0.584483928176696,-0.45638275344956525,-0.15227985556340692,0.24211847812109044,0.4704123897938663,0.587419187855999,0.6785882693128993,0.7705156489442937,0.8573308394573491,0.880003771149234,0.7303139843438686,0.29547446261805443,-0.2815639315484528,-0.6383736699285342,-0.7976029381898472,-0.8759192645420091,-0.919726585562219,-0.9387386931652062,-0.9370634613312292,-0.9168400369858026,-0.8910560334408495,-0.8834855516122873,-0.9004767722319826,-0.9242757651551178,-0.9428886933252667,-0.9533056583598464,-0.9547858662792563,-0.9482682588045981,-0.939726291666356,-0.9421786380747884,-0.9581674630512401,-0.9733735572687318,-0.9772837786219012,-0.9707374898336072,-0.9545340337840382,-0.9245183907472659,-0.8440636986858182,-0.4408856496424901,0.4882883880944539,0.776371885146647,0.8546210509214619,0.8947665654679392,0.9175230084993646,0.9255538696200591,0.9217729766664334,0.9085864943641588,0.8886135162481208,0.8665323258214582,0.857080725181378,0.8733599533856828,0.9052980960749215,0.9346965050451136,0.9506726314736852,0.9520050013297012,0.943422266606988,0.9307166314842606,0.9160260275948497,0.8992324257760436,0.882981911243874,0.8678968964132706,0.8517658259947822,0.8380117582167772,0.8329877917828381,0.8368634108269575,0.84341165682187,0.846576825554298,0.8427274768955332,0.8337672514791211,0.8230805191771514,0.8124642032729922,0.804303839672376,0.7993807664794925,0.7874433500057885,0.6219577358072748,-0.23511605315184025,-0.5716760866212744,-0.6569333065338052,-0.6960588607910185,-0.7269231734079984,-0.7576821339225496,-0.7856298052739061,-0.8085300945625277,-0.8274263736987005,-0.8425590824918713,-0.853392712570884,-0.8575280961971983,-0.8553681426328287,-0.8529164238008959,-0.8552698623509224,-0.8588507114441903,-0.8618859568962963,-0.8663843113172877,-0.8737107315969935,-0.8835852241614154,-0.8936297046041166,-0.8966815103433535,-0.8890338329642893,-0.8685548791563515,-0.8309149067786292,-0.7618059357283363,-0.6211786377742129,-0.33645361474057567,0.09665988557296327,0.45908301161499987,0.6305186949504316,0.6810161428643936,0.6656877675080863,0.6025196869232456,0.5012119899877532,0.39913484261633736,0.3580001058767897,0.4330297619675605,0.620842233041445,0.7677247797668157,0.7967783829120587,0.775060522862789,0.7437988498286588,0.7099867216564593,0.6749495819386692,0.6500106863467592,0.6408493144093691,0.6434150553967173,0.6531705856440685,0.663459837042991,0.6651822043922045,0.6498954009466318,0.6064156351610342,0.5214019440488534,0.3650469870108668,0.11834949315395533,-0.1607044790644872,-0.40098551552454886,-0.6060672363845861,-0.7872297781904849,-0.912229662900604,-0.9326666885647178,-0.8310395179458865,-0.7018081548013244,-0.6270716122482314,-0.6138007744886008,-0.6490707749032265,-0.7250230572061902,-0.8211925575706774,-0.9057212240875535,-0.9613606994683989,-0.9756101588926788,-0.9415993308331578,-0.8727767535580007,-0.7837932600101479,-0.6885917112972688,-0.623493409372105,-0.6211101051308218,-0.6739004133309752,-0.7370210054818351,-0.7572910172889531,-0.7519614135680456,-0.7524046425359622,-0.749362113512603,-0.7262219764489439,-0.6862218461666818,-0.6473155461511808,-0.6206975316803258,-0.5860005088186162,-0.483792003919056,-0.22153876078123882,0.18126793632844235,0.5171109844215317,0.7139796047415614,0.8064780822770465,0.8434992605250008,0.8564360060693947,0.8596168942490774,0.8587253461506581,0.8589792363065933,0.8637384740473535,0.8693445989452647,0.8725019911905202,0.876459913228394,0.8845951141991409,0.8984214520451882,0.9151903734598523,0.929744279628368,0.9396760699186002,0.9446711292126746,0.9442528999812195,0.9380748622945109,0.9277242457375554,0.9126246961299243,0.8925379945095793,0.8682313022958741,0.8390236626672288,0.8026266248762918,0.7502514173119387,0.6354796395189389,0.4276204492101732,0.3110948544256571,0.3217527801515453,0.34572314472293797,0.3146920902632398,0.2417015494701077,0.14452520196846114,-0.028843313933056006,-0.2941253010850166,-0.5682418140311909,-0.7289909405444125,-0.7959637582285645,-0.8210021886178964,-0.8267780024635949,-0.8152853641588426,-0.7924884069928343,-0.7628424171649357,-0.7359434740792616,-0.7203700029055797,-0.7239944959713182,-0.7404414840877487,-0.7599502315038997,-0.7751420825022625,-0.7806228248008544,-0.777801651827427,-0.7713700127688964,-0.7679943037584075,-0.7768067262770002,-0.7939501817449897,-0.8008496699053393,-0.766304769887675,-0.6660250610085409,-0.46659656192980975,-0.14789661608023305,0.15950394883877497,0.3300156988819719,0.4187199166525055,0.4807684794241988,0.52503180250882,0.5487376238749538,0.5451394545314825,0.5226545552768948,0.507096229335446,0.5507148639231655,0.6504638407720158,0.7388258357163778,0.786095865873356,0.79470623981046,0.7644578913379958,0.6585239520561782,0.3813359079255363,0.027031750666356796,-0.15548056262592355,-0.2115588366577451,-0.23378994835301262,-0.29856318133596754,-0.4451871418348884,-0.632348352782263,-0.7736150833750539,-0.84205804026901,-0.8649176763527228,-0.8611326726731906,-0.8283518764205268,-0.7353949041035153,-0.48188483053095266,0.004543276380260434,0.37863059788462267,0.5326939875733868,0.5959944595843537,0.6168872775565714,0.580685564091064,0.29929276962369367,-0.3313550640008006,-0.5949337838504922,-0.6719476429865621,-0.691711377982186,-0.6757387647710139,-0.6237306401244832,-0.5369643797640732,-0.44920554280757236,-0.4028585539198082,-0.40701452166829694,-0.4324809853679146,-0.4615457501173075,-0.5024161555146336,-0.5451766228062827,-0.5752029573248064,-0.5814376663681076,-0.5447599270746949,-0.41965816509981496,-0.0975832784561465,0.36296429685922493,0.647334102323378,0.7658266685590039,0.8181948390096443,0.8432804022918171,0.8556288648416901,0.8681891479558664,0.8924041734594794,0.9301413783833582,0.9693544121101314,0.97042548183482,0.847799795385303,0.5882059407862703,0.365841769745354,0.2616597981323721,0.2536396882161205,0.318734181001599,0.4361093683852355,0.5477572673575236,0.46255851557519956,0.13221680794275426,-0.10801345982616758,-0.2177829163666561,-0.2855877724337788,-0.3721882231535827,-0.48733170360391337,-0.6040764688223766,-0.6832956027151248,-0.6987479806258021,-0.6370765794148134,-0.44379144799795023,-0.11416296196909327,0.19556037149997074,0.34512041434109364,0.29070985400196253,0.056757572249341186,-0.16101877769399,-0.319614779178207,-0.4421808263793077,-0.5375643102598493,-0.611128997454124,-0.6776210603282332,-0.7489770487089473,-0.8305849916879038,-0.8805363216733194,-0.8645542742625294,-0.8129326634309092,-0.7311467267026158,-0.6508804908146031,-0.6194728579580946,-0.6366512614452636,-0.6623732124358718,-0.6496470349801163,-0.5745041273701265,-0.4653815055292879,-0.3932598865278287,-0.43404553246752653,-0.6123286766662823,-0.8079694914109228,-0.9092233473488295,-0.9495908455032306,-0.9611685550062526,-0.9365927663553418,-0.7864100289647131,-0.29021172253367844,0.2559704936770309,0.5150356899490615,0.6254613065433795,0.6743709262695505,0.693650601131491,0.6935080505747807,0.679169550619269,0.6445013779091975,0.5694521530393534,0.3964233567673621,0.07248972326507001,-0.2396693804555652,-0.357624427776018,-0.34001081800400557,-0.2714382910877719,-0.20032881363749105,-0.1446839399926963,-0.08493337490142037,0.011162816992065104,0.1911666930737832,0.4840932480406511,0.781868681980107,0.9207558565782485,0.959741578865154,0.9709682841851968,0.974046099398341,0.9709854584339661,0.9601834298058519,0.9451447460771586,0.9344802025899756,0.9287976405997717,0.917516326186834,0.8897695613090654,0.8366797180682715,0.7325064150887522,0.48769818650688007,-0.0786246163086662,-0.6240011425768263,-0.8142569011415861,-0.870843762648848,-0.8878523992976409,-0.8825503091631174,-0.8546871765619821,-0.7936390293950953,-0.6903974088318598,-0.5520414559268643,-0.4151447096002634,-0.30442264666920815,-0.17157023967989324,0.06919102347744344,0.4068965257980353,0.6788338692052664,0.8389809696527658,0.9289465641331722,0.9735931191251226,0.9881155566333019,0.9837171080075984,0.9703517639210133,0.9538378133036299,0.9294383417157154,0.8810689791431057,0.770723353803385,0.5215490596691428,0.10081252025659085,-0.29421635588014355,-0.5466730256622624,-0.6982400140713111,-0.7784740476693951,-0.8049350189908007,-0.7975534927437078,-0.7834492135900517,-0.7813357243627086,-0.8056139558346982,-0.8642918622137907,-0.9302641851694083,-0.9660166966930807,-0.9777113252997733,-0.9794751819462673,-0.9757974197489648,-0.9654431467640189,-0.9426757091243022,-0.8888810844852971,-0.7587425573653053,-0.48927232194995185,-0.140046016212154,0.19876370611819486,0.5319246627727624,0.7721704149092626,0.8865327874827599,0.9257825208443681,0.9295556770614787,0.917099667256866,0.8929129547442225,0.8520353380594433,0.7825420152153423,0.6483531494998117,0.4008020139063641,0.08529894745361496,-0.14585451288669882,-0.2510670098561141,-0.26863300987493594,-0.22675509020541473,-0.13775472674818368,-0.008921678002210127,0.14471552509388388,0.29909534369294116,0.434952518915929,0.543906418495752,0.6262345529790253,0.6820764866716774,0.7137000972983296,0.722956296976467,0.7066116816614751,0.6581199142637073,0.5784701273940216,0.49575409516954055,0.45810835367804825,0.48350650167242076,0.5271292905346489,0.5573471822790578,0.5560269147513502,0.5136536908056941,0.4298452191051251,0.3213404371729982,0.1967328896725114,0.011577714199858221,-0.29102188802684625,-0.5977337498544979,-0.7772425810414053,-0.8573308735424419,-0.8911309713784479,-0.9053279443519109,-0.9142556767266841,-0.9172096789905327,-0.9038596365603607,-0.8620442922939626,-0.7836706738466402,-0.670846443630997,-0.5297022834832654,-0.3646883818740089,-0.17835097877232645,0.007562448889502117,0.1229272559150515,0.09183837140282895,-0.0906782162818471,-0.31944247479095617,-0.476226847978091,-0.5511406661705875,-0.5636014085534385,-0.5032181331819638,-0.3344552070271282,0.014987099348191087,0.47649516991140173,0.7957729073316279,0.9221005479331363,0.9507095089421156,0.9353058701646988,0.9001714452860268,0.8552736112920887,0.8144737536807202,0.7880572388103625,0.7727992504266809,0.7534043861585452,0.7058955754937902,0.5903988371716505,0.34438837267428485,-0.05104571861107514,-0.42005478702919574,-0.6180149350747643,-0.6767614655906776,-0.6217150773167095,-0.45838784406836086,-0.25893605976356104,-0.13757358085655966,-0.07710433832562501,0.0286441896080361,0.2608635427344858,0.5637648587571235,0.7708948784762216,0.8650558920352528,0.8577070977554317,0.6427800825571812,0.19446694941321596,-0.15128635052777822,-0.306833373688933,-0.34096421109248315,-0.29634199874426415,-0.21319747589674193,-0.1345932505294028,-0.08669226279439249,-0.07130603427680805,-0.08120567148282042,-0.12487399886108858,-0.21418890453639425,-0.341295268878306,-0.47536331736118514,-0.5919870092490243,-0.6816287873108274,-0.7490335509249242,-0.8010815514696703,-0.8413110346716293,-0.8710149898827844,-0.8924330252654588,-0.9071903571708994,-0.9146865064165547,-0.9090476245613249,-0.8716014484196856,-0.7788540178132063,-0.6102138464301723,-0.3895084096868009,-0.15986956828572055,0.08413573226469037,0.31300735845718597,0.48971060068852434,0.6089266858551476,0.6885849381875736,0.7372623471806937,0.7578600438807688,0.7573292317103743,0.7510771120135935,0.7575421623079408,0.7853261594087806,0.8262475830413416,0.8656973160334025,0.8950379732352776,0.9152482969409084,0.9300980013186098,0.9391326841341444,0.9411025578547476,0.9342508168493661,0.9182178632209715,0.8956748229602071,0.8670860320514302,0.8292378169671769,0.7774693752472291,0.7085852948425109,0.6265848852085613,0.5436682284228881,0.4713862907876485,0.4067561558699104,0.32598187930883626,0.19520395028599766,-0.028107217273436076,-0.40570610731633033,-0.783155328116823,-0.9448487208398922,-0.9709614264879624,-0.9596531404773799,-0.9429340778782661,-0.9312970238264726,-0.9249696497077459,-0.9212210588022564,-0.9188725511155241,-0.9158514805438711,-0.9116372116125485,-0.9065468623310109,-0.8998863763617158,-0.8876793231878981,-0.8629923020078014,-0.8276456297985172,-0.7867591675170064,-0.7442702888011528,-0.7061452374070646,-0.6832086351461653,-0.679021902963419,-0.6930688491676993,-0.7168504423417618,-0.7341744632068009,-0.7237602167702016,-0.6484758364227087,-0.3692112196748482,0.14622066578233028,0.36689402849183395,0.2925542096509877,0.05297231199851177,-0.21077665005028293,-0.2971764929789517,-0.27368688650651374,-0.2090721150849107,-0.10922866418620197,0.05453787558977381,0.20641136668714852,0.23130431611309757,0.18634703611090017,0.14218720526007084,0.11327881612066776,0.0892471793107881,0.03047448454421667,-0.0987814697472603,-0.2790488122209549,-0.46987236334305693,-0.6372325823000988,-0.7604176926524902,-0.839373854600572,-0.8883205338609711,-0.9159503421612375,-0.9264700973621128,-0.9129282154819071,-0.8536961474846843,-0.7372394628273077,-0.6203214435414554,-0.603779259451,-0.6786943013653314,-0.7679018088991229,-0.8272221462599861,-0.8485055689586593,-0.8385769128411539,-0.8057713314981523,-0.7617681065026004,-0.7072964249104193,-0.6221208313772384,-0.46751443718894176,-0.22496101916589686,0.010227052070291662,0.1461607894412194,0.2234137944874576,0.30198650685587275,0.43553997052185495,0.6333161069390433,0.8051410850534191,0.8971451786103573,0.9316662189837321,0.9406683265859489,0.9426838417607238,0.9422986479208562,0.9409032162587229,0.9399906415671107,0.9391625626974999,0.9399986616897227,0.9425297578232698,0.9427363716866012,0.938136504949752,0.928523748664848,0.9172529889398675,0.9073118590475587,0.8994179294128005,0.8932752018297648,0.8871133856477273,0.8796929250662648,0.8691636814112992,0.8548145651197684,0.8383692121687101,0.8229311024769089,0.8070101895980882,0.7834055251959194,0.7449989425550423,0.6844716743037287,0.5971349286080266,0.4853679167972663,0.34190591253678143,0.15921481978412685,-0.033598161734674614,-0.19480219315443076,-0.32646057594337186,-0.44990484598481195,-0.5731142582378115,-0.7078117302403129,-0.822955559199969,-0.8261782897465815,-0.7987616418298318,-0.7947479630520524,-0.7996891181015156,-0.8039805616922707,-0.8068529983945399,-0.8116080605263093,-0.819722988484316,-0.8297239793106954,-0.8381089683840772,-0.8424051722754478,-0.8396918024379088,-0.8272415350762762,-0.8041785119836099,-0.7713817379130459,-0.7326640026061959,-0.6971129935387814,-0.6730107180558101,-0.6688920195343612,-0.6867562779374371,-0.7223617467744574,-0.7585425271226074,-0.7853325584120303,-0.8028312094245883,-0.818518655554697,-0.8399739603837263,-0.8609535414437497,-0.863391901312021,-0.8391511498795723,-0.8007984101923301,-0.7706308154321323,-0.7577364174724954,-0.758544765269773,-0.7671708281895943,-0.7845304682968773,-0.8107221838399605,-0.8391910370193396,-0.8580396674177255,-0.8610697379187376,-0.8481859606400723,-0.8205486879392532,-0.7789022267294743,-0.7002131591042625,-0.5443953404590915,-0.2546929439114266,0.2048423588692497,0.6487505807472421,0.8858394507707457,0.9711161694050652,0.9833990245345393,0.9672145782991747,0.9459105572694708,0.9299127205922099,0.9224330252110149,0.9206531665821905,0.9162388141680494,0.8994254519361222,0.8664525201602498,0.8209188847348878,0.7598636631802375,0.6675637927200828,0.5318093351076022,0.3726695661343983,0.21603272002537946,0.07624796608397871,-0.047258107940851724,-0.17143315430901668,-0.3204416426836815,-0.48776179012114096,-0.5990174520660567,-0.6157888709630965,-0.5678251672712856,-0.5215439890603795,-0.5313289499217936,-0.6038194882199578,-0.7080478390888992,-0.7923579394794785,-0.8209075094729779,-0.7902471598891739,-0.7309005536176876,-0.6878480547489727,-0.6882289467590212,-0.7219605104887236,-0.7493607988963995,-0.7499441098995949,-0.7494595270483689,-0.7599587296922167,-0.7787517171240529,-0.7937138572056747,-0.7834510235349926,-0.681426903112327,-0.3503717151870801,0.10750139714163541,0.44405649958993004,0.6580436811959987,0.78606759866364,0.8550529684114596,0.891556765791853,0.908702000496937,0.9127993781101366,0.9092687596679172,0.9025896062852138,0.8959058119624193,0.8920256917271284,0.892925284175359,0.9007594401497813,0.9132824441192955,0.9260888851215966,0.9373917301666442,0.9464840711064811,0.9525486128565542,0.9542987461286871,0.9505160558322766,0.9370877288321954,0.8784876658911458,-0.09172464471939637,-0.9223237506084382,-0.9568286661552894,-0.9615891219217134,-0.9633274920226373,-0.9660961214148092,-0.9703179175304836,-0.9739988798765133,-0.9704740443947365,-0.9494509417189605,-0.9115263485945021,-0.8737625988654174,-0.8500408153250573,-0.8377730370485679,-0.8266559901997711,-0.8004507795090757,-0.7441610472650415,-0.6396545054169467,-0.4709839812749984,-0.2436814669183203,-0.0032176468984157834,0.21778778164136375,0.4321748122245364,0.6294377894232567,0.7665635456261807,0.8270746793119885,0.844136659361104,0.8547235241767319,0.8687028616186034,0.8882481678335579,0.9096643962063484,0.9262989451650854,0.9365861724629375,0.9416303517831541,0.9426113519927268,0.9417120967250556,0.9401860272626352,0.9330213885192996,0.8877420938654466,0.7009748266552855,0.2713910532936211,-0.20030188073579888,-0.5268114266249753,-0.7132269737187271,-0.8185223793159873,-0.8845187241955864,-0.9293905992679334,-0.9557087683488564,-0.962060616075059,-0.9525121831052652,-0.9274639077013573,-0.8867401310493139,-0.8445605386646383,-0.8188143349176978,-0.809117515939235,-0.8105779832465507,-0.8149844470886378,-0.8153290733589238,-0.8084226119617609,-0.7925391405115048,-0.7694216611289112,-0.7466810192113733,-0.7344959450288971,-0.7365213664383831,-0.7394590826108914,-0.7264172256114447,-0.6887382990393353,-0.6230804336656509,-0.5102714489188682,-0.32486038453988075,-0.11380176597753912,0.001464135351354886,-0.0075854425079709825,-0.08657060480694528,-0.19029024550788243,-0.30525574452054277,-0.38569307332843145,-0.35827001840701594,-0.2390275835914324,-0.11512549665331058,-0.03563886308626227,-0.015921633507393788,-0.06714314994594145,-0.20380433186108343,-0.43868474554702674,-0.600604383869837,-0.5982563255260075,-0.5781325525639299,-0.5925398119284161,-0.6421600509787991,-0.7097842338204988,-0.7599590696637043,-0.7378785845685041,-0.6013208871112207,-0.42331246852367943,-0.33873147345112287,-0.3981958107367895,-0.5592669542670221,-0.7073586895250229,-0.7821628766226153,-0.8043770912007555,-0.7946761999212318,-0.77837458763152,-0.777198592713097,-0.8045626015473892,-0.836557772826756,-0.8462701740755982,-0.8299512760956824,-0.772919771967628,-0.5107952537176,0.2907151128858936,0.7172986247669054,0.827804929698874,0.8670358711140211,0.8877886139176269,0.9037162563589651,0.9187409938057604,0.9337760938352292,0.9469188222315357,0.9577131561367725,0.9664881655485787,0.9726763293321841,0.9762283909742743,0.9771229654128588,0.9756726726108719,0.9717618395559351,0.9655848348445545,0.9574978852020979,0.9481795614135202,0.9366447343639197,0.9218417719353775,0.9016305563595641,0.8694015347211655,0.8121920573415353,0.7046075190763125,0.4978092703196562,0.044644885979851015,-0.6449905962597542,-0.9119910695165413,-0.9506474713661593,-0.9607850130092734,-0.9741702168066271,-0.9850216160778332,-0.9882569415803464,-0.9748238063728157,-0.9309369985413604,-0.8613454235892204,-0.7974638037916946,-0.7624964370904127,-0.752197469822246,-0.7488344272407901,-0.7414069201832583,-0.7265118724187452,-0.7137697371729118,-0.7084895322214741,-0.7026294045274251,-0.6873567264279267,-0.6648628156489645,-0.6361064168039426,-0.6024188719076303,-0.5654790000393691,-0.536455126382545,-0.5244399463160286,-0.5400489433797091,-0.5792182717494416,-0.5576231857659912,-0.4547452093664491,-0.3262712924900093,-0.1712419202730571,0.02537864805467814,0.20965603705920935,0.28863176624209613,0.247094767913998,0.11955599006334178,-0.059863946341568816,-0.2652197058044444,-0.46614652196310186,-0.6138614456687576,-0.6733895609135852,-0.6382577383275008,-0.4929316638016768,-0.26231487809477877,-0.04148031872072825,0.11719457896201091,0.2156882429615413,0.25076909702078465,0.2167180625433455,0.09336157131782984,-0.12412444934437354,-0.34736830801189394,-0.491567751599706,-0.5711572737038364,-0.6191925513882401,-0.6464112313963052,-0.6557178258176796,-0.6237747932073979,-0.5568580259807987,-0.507287616501939,-0.4910968041940519,-0.4907517553166438,-0.4942845855467617,-0.49763518318356537,-0.5051961684388386,-0.5143159094445038,-0.5092935765284906,-0.4418814297518054,-0.240546521302803,0.027301571355834504,0.2528150183807734,0.4528390958421703,0.6388211863425648,0.7708824061181176,0.8396841434714397,0.8685181471696343,0.8823166273311748,0.8925837802777331,0.901595192549593,0.9109071575658235,0.9205259051554566,0.928270415967621,0.9289515282010467,0.9059264393766353,0.8165909388555784,0.6109813825847027,0.34034878027524373,0.1208469897619999,-0.024738121590834633,-0.1195907426208168,-0.17370806058326327,-0.18477367122697297,-0.14671513671474093,-0.06631406416103561,0.030528529680590576,0.10737641063192312,0.14344767498232316,0.13552730750295847,0.08801440800613865,0.011972208074091344,-0.06480547556310005,-0.11365747555677275,-0.13715553073753192,-0.16637376588763447,-0.2124308561694426,-0.2621343639253963,-0.2922849711482353,-0.26534778124392533,-0.14370274737038077,0.06343894897861506,0.25294247545481147,0.36892577047411884,0.43351773357570644,0.466546559512417,0.46975334364327936,0.36343421610433985,-0.16513194861499836,-0.4695773574907064,-0.5239195240977409,-0.525620385035207,-0.5135655053258733,-0.5023513582236822,-0.5038464245898302,-0.5231893247591234,-0.5550407828105346,-0.5837758498947336,-0.5972427259084714,-0.5986350662683702,-0.6002796075801614,-0.6216737944425326,-0.6637223990282192,-0.7022873797967677,-0.7255217043696942,-0.7477826189077537,-0.7726838667683988,-0.7947059250994203,-0.8061954712252649,-0.8039421670432283,-0.7870527965387384,-0.7567768383292001,-0.7144743062361897,-0.6649633059625228,-0.6182966447984436,-0.5753456950606307,-0.5193555325996,-0.42795748558602725,-0.318782593482913,-0.33672368022611565,-0.5839091243170138,-0.8133104193473374,-0.9064884663869931,-0.9391615189165292,-0.9500060363420315,-0.9453453553228566,-0.8740080459088957,-0.10927308059679793,0.6657591627423957,0.7895567164411211,0.8084520524937806,0.788492427370598,0.7336398455627339,0.6307857319472439,0.45344868107921105,0.21544389151288784,0.001626582937773307,-0.12292129990597044,-0.1798857982134604,-0.21266717641777005,-0.2362944320077583,-0.24246525221776724,-0.23513162160872902,-0.23032844825020105,-0.24211781579015934,-0.27680471458639017,-0.3166150299565659,-0.34740150146094323,-0.3637343489352599,-0.33557425248800926,-0.2211065970139071,0.0047660548971388324,0.2630796636617928,0.4686733089805605,0.6234991706592533,0.7456643465758122,0.8391324861412235,0.9010865439108519,0.937614869496413,0.9607877980039846,0.9748338379408152,0.981594156461224,0.9834612670572105,0.9831582089726681,0.9825151783645117,0.9806723558390501,0.9774424122727119,0.9737596906710972,0.9707138003406787,0.9689812252707177,0.9672806855852046,0.9621878656014021,0.94806585950107,0.920464910114822,0.881954537468853,0.8409640835324325,0.8056538159369406,0.7755340206469752,0.7449767799026256,0.7093391446294035,0.6648133101102758,0.6046112919435641,0.5067800483403301,0.3199236061700353,-0.020274195340955124,-0.39756090022649265,-0.6240475627570987,-0.7404459125574776,-0.8150732533316458,-0.873321052808641,-0.9153645598920539,-0.9384799702523449,-0.9452618010573325,-0.9438627964043953,-0.9379576029431542,-0.9269065938621449,-0.9124221230054305,-0.8963527871434006,-0.8764314465077676,-0.8509245960119152,-0.8258461023151933,-0.8006759450951578,-0.776884042068373,-0.7693354481066857,-0.785362145751248,-0.8211372326461852,-0.8643872583304109,-0.9015092142867193,-0.92599933891646,-0.9359584686692767,-0.9307683980629043,-0.9090198706548607,-0.8647339473430445,-0.79535813535837,-0.723106937019066,-0.6535169124000842,-0.5714820781908589,-0.4483721430372095,-0.30582813456499164,-0.20395125649302565,-0.18247072333086042,-0.2355139842992694,-0.3433210691118832,-0.476961591048416,-0.6193426376936073,-0.7496910218769287,-0.8362559819534225,-0.858695661258011,-0.822130850273323,-0.7330862951502977,-0.5921964020478838,-0.41804588853417274,-0.25022309741367194,-0.14564460599281628,-0.13347504577035493,-0.21120166173052624,-0.3433806804598901,-0.48208147896313913,-0.6085400330330134,-0.6940227986225441,-0.7230403715348773,-0.7080779340868603,-0.6870729250952907,-0.6872421321253089,-0.6799537843296521,-0.5085577034696149,-0.07589489807263007,0.317403533867448,0.5265762746217686,0.6223767110094351,0.663406763075349,0.700772173058334,0.7672532928140837,0.8604264489103146,0.9318327721431953,0.9483340755116628,0.9356174465302072,0.9207893557482223,0.9013033497501163,0.8384974032214005,0.6586391038389873,0.3441077777073282,0.04214402822960741,-0.1566376696066506,-0.3077205269042465,-0.4504316946367234,-0.560428834662673,-0.6081350551150688,-0.6104087223208112,-0.5925133886585052,-0.5640877733904545,-0.5329814378555947,-0.4777290461359478,-0.3596889960325278,-0.22218196217720507,-0.15634793394715962,-0.1737512204610317,-0.25139445766524215,-0.3611772845910239,-0.4819385101624485,-0.5838331969657821,-0.6484710299977158,-0.6926836073342768,-0.7424281235194407,-0.8006531736263062,-0.8478681600209621,-0.8792377235743782,-0.8963092377070302,-0.9006820275757602,-0.8897374888631466,-0.8615096057095735,-0.8202463381068892,-0.7723903000793374,-0.7065035134575076,-0.5508731095769189,-0.06685988812700638,0.46188465388491556,0.6440674632891816,0.6902792229418891,0.7131655077945106,0.7506506709366364,0.7979220146399091,0.8386508252002425,0.8634742338241653,0.8725618114755854,0.8612414644503978,0.8240930332239248,0.7544011269865739,0.6692076857853869,0.6118163602012157,0.6123584186895278,0.6441452742104296,0.6410772040422777,0.5603114608944434,0.4430318474624531,0.3405935001166869,0.2734681065893607,0.2607198037943526,0.32359295730372123,0.4711958492871065,0.6449455733021581,0.7780150123339263,0.8533512967031341,0.8840388571726286,0.8832414771789344,0.8577478073181549,0.8140582868626672,0.7586793602164408,0.6920776183608526,0.6054456207080389,0.48364232380278394,0.33229951864262364,0.202907945886385,0.12951851555662688,0.11473385988619633,0.1611453245701624,0.2708944466150127,0.39633096903929044,0.49779015327989373,0.5865992495598863,0.6721296054867184,0.7512147985064302,0.8165728478100482,0.8628461112783344,0.8835776771755336,0.8601153935659106,0.7354331718967874,0.3260707310707488,-0.39995824033627325,-0.7905209773996575,-0.9122688620706854,-0.9537489577032942,-0.9688070716910797,-0.9726812505413716,-0.969584724021939,-0.9600335779974122,-0.9451082305333671,-0.9341381795379136,-0.9372660062708904,-0.9429575989818134,-0.9424222340175802,-0.9320483800468765,-0.905078187050624,-0.8411339040395462,-0.6616406531525182,-0.16371385709776973,0.48128409699916075,0.7857836488892148,0.9025103860696453,0.9533727397465371,0.9705874805997511,0.9566424374228383,0.9187535257830508,0.8802029605229641,0.8558586709909607,0.842256920674188,0.8337344556336378,0.8269212190276344,0.8210845655770653,0.8144224448027043,0.803144967119726,0.7871951448145561,0.7688523327766401,0.741168874694132,0.6808154429423229,0.5323306528538628,0.2371986822041573,-0.1352700883927753,-0.4319478405957284,-0.6380443985643514,-0.7745802649660338,-0.8522990268045617,-0.8857153187241908,-0.8882508900633433,-0.8744982298229002,-0.8598765800738382,-0.8513865626315005,-0.8517179809939576,-0.8550511797339894,-0.85138900120098,-0.8317356422254312,-0.7971911824842013,-0.7606966565571417,-0.736519636759384,-0.7339607682994483,-0.7528665921217532,-0.7807483817874752,-0.802894194115438,-0.8210212936395677,-0.838163734176575,-0.8524929784171558,-0.8609219125960399,-0.8517490062509501,-0.8151742810079144,-0.776412809110908,-0.775974970911184,-0.8212544948118482,-0.8634824053784104,-0.8665056444581044,-0.8355969899385078,-0.7877113663346611,-0.7340803038146806,-0.6796268673443333,-0.6291830519688136,-0.5886374505377661,-0.5625300835178337,-0.5501178925707985,-0.5439315829365611,-0.5323042754880427,-0.5057010717942875,-0.45918308599501084,-0.37833435147344546,-0.23415336461082403,-0.044246707845887766,0.129273767443426,0.2564557857161571,0.35315709845017795,0.4399833453105014,0.538318979615807,0.6508268559349335,0.7414505301813494,0.7647468123254563,0.7360492514591703,0.6924077834276947,0.6577329303518095,0.6321127760657498,0.5950743561038473,0.5124978750380123,0.4178005882431839,0.3542030552134753,0.33044179630258314,0.34619345557855136,0.38798274344425626,0.4433935348453048,0.5018807832724531,0.5652632649613842,0.6405919242506706,0.7164224567886327,0.7783666862847232,0.8213881337442991,0.8494200716560022,0.865723506316877,0.868831295139917,0.8616784313835093,0.8493894485145905,0.8353021587706618,0.822417079584433,0.8085962305220517,0.7939432698799483,0.7758073918938787,0.7486802503053834,0.7058100474786992,0.6448316491160392,0.5675915948854554,0.4677626936492256,0.3312292162036876,0.15258113105496024,-0.03715708004047544,-0.21095390019670918,-0.35060162114756016,-0.4602726395970169,-0.5417395910456186,-0.5994255548187637,-0.6407717402805944,-0.6803301200049899,-0.73491599051038,-0.8004533947517268,-0.8619753308518847,-0.9065521005755242,-0.932697498094289,-0.9454413128332163,-0.9514836010114245,-0.9538872631623605,-0.9542337083143414,-0.9531448482347777,-0.9525112714362363,-0.9540140487558787,-0.9565222269274891,-0.9548607035584523,-0.939909523196583,-0.904721554242139,-0.8504402330056828,-0.7781468348446704,-0.6924653479877197,-0.5974337606343477,-0.49262226655055763,-0.3759016153399675,-0.26087435843377843,-0.19208492737526162,-0.19092861017678206,-0.2108578938976773,-0.20476657680961516,-0.13904075262783674,0.07212718751441594,0.5441041119250464,0.8533272499717153,0.8994471274997783,0.9059139421484644,0.9115240343582512,0.9172920583468958,0.9221057677509977,0.9225337302052209,0.9154822557463919,0.8931403304139252,0.8239707143815694,0.6675633176511756,0.460370349944022,0.2656528372624093,0.08303170798012874,-0.13489511592409256,-0.4305414719541238,-0.7003625182694673,-0.8485039029589785,-0.9053996636417181,-0.920107212406901,-0.9232844404008873,-0.9270876245250692,-0.9339896472694337,-0.9391066150461088,-0.9318290424122313,-0.8989768294458246,-0.8207617869585468,-0.65030198748503,-0.2921443417578795,0.2518333126691047,0.6362378357065444,0.803557063016573,0.8629533329106196,0.8690922596096213,0.8385604699193471,0.7823538583261707,0.7467109021060515,0.7817431767381541,0.8499662759119909,0.895548540141848,0.915870230067131,0.9251356501822814,0.9324309957156011,0.9408801495139373,0.9507411888726353,0.960345840517918,0.9666381731098381,0.967803014962115,0.9621752359531373,0.9463361349010545,0.9062459250268855,0.7463091316239399,0.08299279106390656,-0.5079099929069217,-0.6793964214581975,-0.7229898734138721,-0.7245075835019755,-0.7093757440439491,-0.6930092618149096,-0.678309780824621,-0.6704089391922209,-0.6824017439609369,-0.7169366921032483,-0.7645621132655035,-0.817646957355664,-0.8629266238430156,-0.8893641594681811,-0.9031625565595803,-0.9168635483770965,-0.9360712594548201,-0.953634524228449,-0.9634154056154846,-0.964912398710952,-0.960503245214148,-0.9540670307544364,-0.9484474266806654,-0.9440209200040254,-0.9326793458176654,-0.8987851268110715,-0.8395580808408217,-0.7830002450354415,-0.7596720185628336,-0.7805607819700416,-0.8173524485009132,-0.8191948709010566,-0.760529537310621,-0.6806063623317881,-0.6047241610332259,-0.5244871904193406,-0.41439081606861344,-0.2711772095625861,-0.12273251492244354,0.025206384850555527,0.19831316444708835,0.4114483142229451,0.6198084654147922,0.7668146211077974,0.8385327305939251,0.8492500570546597,0.8245502511106677,0.8005795907054266,0.7962578177796403,0.8080453571002086,0.8199600219123786,0.8320071667256335,0.8543754891388997,0.8919831249457447,0.9314260106632678,0.954369886114405,0.9515771796645749,0.9196423075139379,0.8692807989105509,0.8149051197057448,0.7609431928365796,0.6718759692887527,0.3954309645232125,-0.19985689353895733,-0.5777777701428082,-0.6770964066307605,-0.6724412569534408,-0.6195265405920803,-0.559293175127338,-0.5270481240952659,-0.5381946397115436,-0.5616913559419763,-0.5656622069927233,-0.5498979221100514,-0.5194277721349511,-0.46907669199609386,-0.4036593251605192,-0.33001623318217754,-0.2482831919483232,-0.1699629145293785,-0.10522187221503236,-0.02605127195560004,0.1410692083284561,0.3866625550561129,0.627372896564011,0.7913453963504136,0.8506834432041698,0.8191610672091738,0.7183500063659735,0.5687963377595675,0.3894704294604337,0.2241229080909238,0.11399235724514378,0.08525387965788785,0.16959577516227653,0.37662862991557106,0.6241561517614557,0.7854471263884255,0.8444261586348347,0.8601925432540982,0.8773921876822234,0.905167133952056,0.9293955566076652,0.9305923660821582,0.9008700065453022,0.8239097955664003,0.6894637363984444,0.5242085176306674,0.3734797395524939,0.2548783689522946,0.1612376523909953,0.09323137542350841,0.05710310844050387,0.048600641027865724,0.04596154805151516,0.025798494472969,-0.021164343007933455,-0.0983294937551632,-0.21482528921667296
