-0.6512286472000871,-0.7544149046827593,-0.8140517784390302,-0.8527250684088677,-0.8792376851670527,-0.896849395127742,-0.9082468532007585,-0.9168469652222145,-0.9265387813779212,-0.9372772584007025,-0.9327880712854223,-0.8809696420846391,-0.7553975679693592,-0.5683420470149292,-0.38061076389189297,-0.28551590610312433,-0.39219210141118055,-0.49820982707593636,-0.5409237379425961,-0.5619580761580008,-0.5391467013415482,-0.4505129479397983,-0.30283749292163764,-0.15438687755543884,-0.05071647973899448,0.003272866942684093,0.029648020268410704,0.07441999484049083,0.1818282131647466,0.3534494470091681,0.5408895871299683,0.685524023697585,0.7519969690123538,0.7449245448300899,0.6861291307409745,0.6215211396076271,0.5909282171025201,0.5923745035157613,0.6125482156493657,0.6453364454872103,0.6915780906133099,0.7444192620140405,0.7903696929553318,0.8165730729315872,0.8212585932012001,0.8197739455513596,0.8306879728934761,0.8625605203108819,0.9035800847626657,0.9318762300172018,0.9408336541477047,0.9376099056963059,0.9256095274111805,0.9027807277002662,0.86623107813012,0.8016220612923083,0.6579032989798562,0.35951870050297935,0.15369659654179746,0.19140305844025934,0.29581543405334126,0.3597468388978759,0.35966198389210563,0.313085924185759,0.23942271141620483,0.13428871800037934,-0.013297867596241889,-0.1855270523881635,-0.330599794408709,-0.3699576762736536,-0.26564841261299754,-0.06347568541960738,0.14946909410726295,0.33861379186910184,0.5145025471814343,0.670831560588907,0.752256145090689,0.7511508109918551,0.7207045757311136,0.6934556970339651,0.6802338123368753,0.6806090498307442,0.6864095475735281,0.6393730070424475,0.4550990282646638,0.2288151265314385,0.03860612829653975,-0.13841399005016308,-0.298564932726846,-0.4227965855188322,-0.5092540022717027,-0.5812940714406204,-0.688868839990294,-0.8433013450015758,-0.5635876332906988,-0.2974666460658356,-0.1989841720386443,-0.160221875173018,-0.14564854648335876,-0.14640417696239602,-0.16490364963445917,-0.2103307856886796,-0.30411488868647685,-0.4764445331973903,-0.6380444096514758,-0.7125986477450239,-0.7795205699171311,-0.8338508244795005,-0.8678394455309625,-0.8839642930359891,-0.8834736179719428,-0.8644605295721528,-0.8198634624865689,-0.7379053971460795,-0.6132213723730479,-0.4727225058370144,-0.36187695588631996,-0.2973737656809505,-0.25818600449568874,-0.21725768769513068,-0.15779917351031847,-0.07783003122339405,0.00514306139156106,0.0666564134085039,0.09393475368744567,0.09169898232023493,0.07577208166879189,0.06267968050933183,0.06539121778975494,0.09376921349542354,0.15288416246096445,0.23314207687212093,0.2721164484037836,0.21035790362858978,0.07614626164290315,-0.10132634005391479,-0.2770452549734136,-0.4005238690505592,-0.4503792721972182,-0.421790544710964,-0.3102751614190516,-0.13309336912493477,0.03473643024672133,0.13136716085272176,0.16425050450289727,0.16311092005201963,0.15101557341595426,0.14079588818979577,0.1370957803983027,0.13999562950774885,0.14857923827114383,0.16178103235783756,0.1781737550473835,0.19493915829099007,0.20886442720374054,0.21784669547434843,0.221500411056085,0.22398750073598284,0.22953093169229324,0.2385041491044163,0.25218150638518316,0.2706383520581478,0.29226138554928827,0.31624341564495,0.33702567405017547,0.34551960175085267,0.3343853485407578,0.30716223868770126,0.27532502326271063,0.24877994148593616,0.22577868194817746,0.196640812116994,0.16102051206000137,0.13708039074447004,0.14513124218743553,0.18698886199766193,0.24930792161724577,0.3202681345421322,0.39448138057117454,0.4719456351983749,0.5492387358866486,0.6160221625708416,0.6700772534194819,0.713269780466976,0.7475524126290639,0.772530768628181,0.7872107477367563,0.7913021389466712,0.7875383444767643,0.7802940075841522,0.764699279166972,0.7109980993127863,0.5516507137476396,0.19533390679258736,-0.22248014710940517,-0.46698683467230784,-0.5798014338964765,-0.6357933326509866,-0.672631423445857,-0.710991517863432,-0.7583287583867854,-0.8121352851334032,-0.8642154233399136,-0.9035447798894073,-0.9177266646007649,-0.8888993517281195,-0.7984114969711318,-0.6605014643936183,-0.5296940132810842,-0.44061236497675366,-0.38438915765843634,-0.33093724076831815,-0.24669068525261148,-0.09556557646286908,0.15099496977888952,0.45994047816189726,0.7180563196186844,0.8588163209814591,0.9110802568423714,0.9273636756059478,0.9365681946384691,0.9454919251358342,0.9523505639057518,0.9551119104144309,0.9537686604684207,0.9475380434028372,0.9347262253119657,0.9108837684176636,0.8715742937233673,0.8151905414413448,0.7341237312988675,0.6205734790371905,0.49923288238631713,0.39437395316835666,0.30045471602022694,0.1930592731054409,0.034618229530485045,-0.2255771632041732,-0.5475934559825807,-0.7594607234871765,-0.8429147068216671,-0.8608687546509606,-0.8375052528413653,-0.7658940108810066,-0.631162109155742,-0.46149532392360065,-0.3519334429236636,-0.3725780519569796,-0.5122230057246295,-0.6810719760632005,-0.7970218068452837,-0.858522903439786,-0.8891703287114794,-0.9021884531243015,-0.9010807206567459,-0.8759411037361577,-0.7716075561211699,-0.32392042423354,0.3960013211280886,0.6067588638874402,0.4764626992737405,-0.04902811294451772,-0.4967812942857852,-0.5805748734308178,-0.39767026458204047,0.03731916989471378,0.38593608662034584,0.5174444725985973,0.5408667470690148,0.5333043990867009,0.5462996236246971,0.5794349300912931,0.5964691598581893,0.5767917761641731,0.5237623816568853,0.44796746522295916,0.36593952143792635,0.2940564885444567,0.23166201801593342,0.15019755086298694,0.021227291062869164,-0.1578645712730155,-0.3770824983004283,-0.5964530824347029,-0.7666635447671009,-0.8700518455937742,-0.9195620743009616,-0.9297655851672768,-0.9181342772799156,-0.904799118028351,-0.9005423762077495,-0.9019957969166708,-0.8964979923792563,-0.863369886924611,-0.755530558740101,-0.4390145943903977,0.12757675953342137,0.4920309024150653,0.6140558751117218,0.647023681713902,0.6713971069863394,0.7190116751449885,0.7740255154513016,0.8075839882367103,0.8137548361473551,0.7980159832243612,0.7680707398720841,0.7324723432307023,0.7012142134313738,0.6836672997026427,0.6801235479930305,0.6822066984029294,0.6804744950031457,0.6715480019905249,0.6565684261216554,0.6345630300557595,0.5999192842685177,0.5440506640031504,0.46711410969771827,0.387109274754724,0.32724868870588814,0.29445477419096144,0.2690142793892792,0.22557011197122903,0.1508254946611007,0.0442653060825139,-0.08677551782515248,-0.2494973675824698,-0.32976509928361325,-0.22923216230122434,-0.15397634210331088,-0.11598559319007884,-0.09677193403754021,-0.08912684157643176,-0.09791454365541089,-0.11143330542650384,-0.1342410656661616,-0.17609230693103975,-0.2298315894164465,-0.2860534529709068,-0.3293276571586325,-0.34724588084220365,-0.33720523088449755,-0.3060144137031667,-0.2654317234730814,-0.2272766246245051,-0.1981935228796798,-0.17857519245260017,-0.16564704042298364,-0.1553678440174712,-0.14322813222783742,-0.12215896850485554,-0.07651747345747978,0.009125745978267808,0.07099309993255623,0.07149564209548055,0.04533241476554991,0.013227117429141177,-0.015069812723209184,-0.031623176777488826,-0.03515604463553719,-0.032599724472558315,-0.03345650404045632,-0.046572504375609974,-0.08335333876819247,-0.15432253813674793,-0.2540116305137316,-0.3526945986858227,-0.41766766503525493,-0.433650536446427,-0.4017076952604001,-0.32849938480343943,-0.22412629385087746,-0.10478559917449767,0.00954664800279966,0.10637668795914165,0.1857072937970785,0.2534231817609684,0.3158288800258661,0.37280469964909985,0.4166670115705415,0.4357127222637988,0.4156122549597615,0.3416168310940939,0.20793172465711052,0.03671877693976303,-0.1324799945182403,-0.27427183742731037,-0.39473742034570464,-0.5075337775403567,-0.6040278541333084,-0.6614659360008405,-0.6671779742284272,-0.6051131860414155,-0.4360384593500902,-0.12311823410718355,0.2312199842867613,0.46783880743724676,0.5829587666510472,0.6228537936303595,0.6091281311129303,0.5455073982373224,0.44812624483966784,0.3781469728154401,0.40613008933631617,0.5270135481184631,0.6749423925668719,0.7958738079797079,0.871751611079109,0.9058907753687058,0.9126182489461766,0.9080916528633532,0.9001682148128505,0.8927886567315878,0.8886760202218443,0.8864506000710113,0.8826543007108892,0.8725658200978641,0.8479625880466412,0.79085162889796,0.6704313236816152,0.45685956389122284,0.17424852601631763,-0.10500024468989021,-0.3167741015875479,-0.44280727162650224,-0.5006464809205309,-0.5227896897582567,-0.5422392527960382,-0.5727191506527184,-0.6001206968530827,-0.586369667102099,-0.4572647967903668,-0.09188607780368116,0.40053851667372903,0.6885913161937981,0.815351199540928,0.8821337535719126,0.9168206185463936,0.9182176315979568,0.8829118259908324,0.8125807058484493,0.7216382703108467,0.6374966813882884,0.5896039922493627,0.5914172045668795,0.6153722488995013,0.5511447631104923,0.3556538966937627,0.16275226477462307,0.03446520873580884,-0.03995871783007844,-0.08187856635441289,-0.11113583944954696,-0.14355858543055067,-0.19032790902770627,-0.25491220074939536,-0.3293909639989881,-0.3928467709368772,-0.42515816775037873,-0.4202127687192812,-0.38565364618945663,-0.33398099639181406,-0.2742214995144043,-0.2112630848745769,-0.14743985019961064,-0.08615558874198055,-0.028698450891930984,0.026998056502556607,0.08356012004813414,0.14695476468665214,0.2241162379783074,0.3184228369203669,0.426016492137526,0.5358603769424016,0.6358456852247448,0.706067060158101,0.7170426288014343,0.6469924406195032,0.4698004941857013,0.1274668223554803,-0.30975850381317727,-0.5984996167019663,-0.7234412765298669,-0.7628607941405238,-0.755501827001137,-0.7202616068852058,-0.6756272716186306,-0.6287660142492792,-0.5593492217735291,-0.4304347454266977,-0.22705801291101757,-0.023849220476722586,0.04788093585442279,-0.07418845278039266,-0.35553321282873324,-0.629702530193028,-0.7654676932207616,-0.7773237629163494,-0.6728150695926678,-0.4409297589487217,-0.18467631282922195,-0.012996773758392451,0.0788217462940591,0.1238306486970625,0.14422240886438076,0.15172494847505746,0.14439752191281527,0.11142328428862779,0.045807085173307026,-0.044927497516419945,-0.13763052062211248,-0.20724064503082754,-0.24180164928980274,-0.24107138979942597,-0.21249518162668457,-0.1702428618522613,-0.13267144235367093,-0.11220635933637527,-0.10640648331555674,-0.10123579620043989,-0.08753118636980488,-0.07710105534974622,-0.0751916188195595,-0.07475736438598551,-0.06388872117788755,-0.026799677988492032,0.055036557582176335,0.1890007819125904,0.33286447007088704,0.4173158794020784,0.4073024959238833,0.2749861617082929,-0.01612054583668899,-0.36183709429043304,-0.5487858650556338,-0.4918963600052581,-0.02915685796288832,0.5288484945078918,0.7443097407420666,0.8205610876656998,0.8377374859886703,0.8045378335069474,0.7278006121543797,0.6216144411353438,0.5116929208191168,0.42040065828138606,0.35630278645662405,0.31254592894216016,0.27820666010786405,0.23640792822746567,0.17317367681658186,0.08713254305881082,-0.013555542560123635,-0.12173691458900011,-0.2286087574844346,-0.32688285253634186,-0.4159226493433759,-0.4609680803172397,-0.21199417008358337,0.0744772284235089,0.20932386690313168,0.28501938594670284,0.3349692773180137,0.37140273401588675,0.41220553584856096,0.481373801105096,0.5898999703674984,0.7090795878837284,0.7924919331906269,0.8296672020235347,0.8321433626457756,0.8057098087547236,0.749922035200263,0.6786142323648321,0.6560210826840505,0.7308170490807459,0.8152604358542278,0.8515779833481512,0.85844123615028,0.8443289867110934,0.7936984857517156,0.6263245992324254,0.11373945628618222,-0.47991064541837575,-0.7153710870383917,-0.8032022155114144,-0.8506383662981108,-0.8843911192692143,-0.907562392352571,-0.9189582376953974,-0.9182260795847552,-0.9025583866636456,-0.8648564261844687,-0.7922179669546191,-0.6572952299427428,-0.4156920723866942,-0.0707213758354442,0.23984211621317866,0.38267975905911333,0.353368612891493,0.187852488475927,-0.03849391413279183,-0.21736148355920554,-0.282577518249266,-0.21053915875031465,0.009371547768890912,0.300384544226496,0.5161720453994589,0.627735699180625,0.6798409785224305,0.7006966986369195,0.6912809504697589,0.6477467093456896,0.5984346507087004,0.5759029710934513,0.5751915838625541,0.5644139830745207,0.5169514343448376,0.4212130219024373,0.2890119475850807,0.15370072845413363,0.03920007069439521,-0.054245432728596006,-0.1412472880027393,-0.2368103174129886,-0.34482247246711467,-0.4515274924530249,-0.5191977677019017,-0.5017565478964597,-0.36495277710858404,-0.09186481865512823,0.2252073379408907,0.4420150883898607,0.571399186033884,0.6694179010527115,0.5062033295148546,0.19931964578475997,0.08768099612190948,0.04891754773838138,0.02553078017772361,-0.0009256724337248138,-0.03301995024624139,-0.06783945807098005,-0.09774641369177878,-0.113392455121553,-0.10521181384892649,-0.05914287586666555,0.04518939138766665,0.2168847590624656,0.4169534605507731,0.5745093156697064,0.6605502620568688,0.6877540473129041,0.6515331160226628,0.4704981433974678,-0.06348848358197388,-0.6480386768821788,-0.8613833945518528,-0.9274793124644841,-0.9509330481824453,-0.9582377041680245,-0.9560066076218853,-0.9440683758002187,-0.9156385531141915,-0.8475682744512508,-0.6686066078406655,-0.27549263815736524,0.1113391812295843,0.23761105836196145,0.17053644462910025,0.021221975357684643,-0.09959275556339174,-0.11146401393846506,0.08371795610012592,0.4889163648337639,0.7211987688001075,0.7920763554766427,0.824651329591649,0.851760187439258,0.860010813690452,0.7718605992763335,0.5607803150025664,0.3695258798273568,0.25731533279886093,0.2030459319738419,0.18880244901399587,0.2125574082522844,0.2905883464403339,0.47962055421906874,0.7091234531582541,0.5202573959205236,0.39285837680541114,0.3568939524825706,0.37475360365800175,0.44203222234332235,0.5638988244648692,0.6916013512820367,0.71242149894714,0.5007163416136244,0.2504460244252947,0.15593171240429626,0.13240002630264228,0.14292558313744594,0.1806293027118179,0.25082586653683303,0.3698578401200185,0.5617415136803644,0.7773282913425934,0.823048430513626,0.7481148128201939,0.6966126434166644,0.6934771020068022,0.7130795611179912,0.6782296361737076,0.2547882432649518,-0.6415279782885036,-0.8461492302855604,-0.8790184345579904,-0.8671915205488578,-0.8158830081316075,-0.6962566204628153,-0.4951616844728871,-0.31673110544690136,-0.25744484025671566,-0.29582106592205465,-0.3734253828073809,-0.44983012007559686,-0.5039570684948905,-0.5232082613890698,-0.4937124637939482,-0.40395400863873804,-0.26673487940690593,-0.12288476394450325,-0.020099454262380526,0.006559843059441664,-0.034512412982619235,-0.10460986970238668,-0.16053381695253746,-0.1725241280660948,-0.12549660712160396,-0.01842724009740662,0.126027868147875,0.27106317138752395,0.38967669604072597,0.470997344723145,0.5192656990541251,0.5459513043131612,0.5618511768940255,0.571821298772921,0.57875357935099,0.5914567783830933,0.6258606726424482,0.6799385576779631,0.7327160526199434,0.7634569376253176,0.770701376656604,0.7551934571320487,0.7113011037553557,0.623413219015782,0.4421365069002531,0.11790275008591498,-0.18790756904662084,-0.16276749007520322,0.4474893514685697,0.8589158036920411,0.9347791028788925,0.9402453039337435,0.8985739972039631,0.7892949547968874,0.6205660884630119,0.44725728911207824,0.3130578716389035,0.20610540276990016,0.07345243530196578,-0.1460956215525453,-0.41759562569762176,-0.6132114587418532,-0.7167649188237306,-0.7703661345851954,-0.7930860204081847,-0.7853992048920487,-0.7301234091439633,-0.5656942653155945,-0.24947584709961423,0.021873149190699877,0.12923220357197587,0.12801073398121512,0.06757419956357508,-0.03522389145681304,-0.18387873637437546,-0.38746678242409666,-0.6092161381633097,-0.7516632589424772,-0.8027313810727592,-0.8139063893841315,-0.814158715050079,-0.8046062463516064,-0.7814596492087739,-0.7450525333684312,-0.7002106837549867,-0.6575951155812538,-0.6260957134837105,-0.5997099510306776,-0.543405734064811,-0.4470835543098984,-0.347804052373807,-0.2622548902549776,-0.18671556264856093,-0.11743337905587867,-0.05457331113518871,-0.0016350159164579485,0.036363277610542165,0.057983026925922124,0.06463252755730627,0.05953113102851905,0.044842640126180264,0.02379163932095814,-0.0004270555278590679,-0.026141919319848102,-0.05333482617323931,-0.07922488185157174,-0.10102930812967732,-0.11625178401017584,-0.1225885449381071,-0.11793077326261879,-0.10194963131349583,-0.08251921890692382,-0.06508052267999702,-0.04582426369938107,-0.0190138050810727,0.0035221707616221697,0.0034874533330798907,-0.016941004909822678,-0.04451008682988182,-0.06468874914690546,-0.06964752221414099,-0.06560611470770526,-0.06367607273900033,-0.06536347808561481,-0.06254430019870567,-0.044904352881293436,-0.0033630228696894964,0.059464353281410816,0.12967131618472727,0.1924823004399367,0.24196349787901109,0.2768504234948407,0.2985671680004618,0.3110733921858244,0.32455157310778593,0.34996839257457846,0.3910328797990696,0.4430802549876675,0.5039773573498377,0.5748360418295205,0.6556619440075014,0.746290828297888,0.8476679065475841,0.9186999187110654,0.5784999451641198,0.0439057640093243,-0.19545285001370377,-0.2933561029193537,-0.32650866944001133,-0.3251557626467281,-0.3082117095002838,-0.29265336429409167,-0.3011631403907936,-0.37114484296729666,-0.5365303633347122,-0.724701955256926,-0.8269791662234445,-0.8620584259072421,-0.864008764924378,-0.8434941946448086,-0.8015990730694652,-0.73049798418545,-0.6094084270288105,-0.42133264769665857,-0.20514078190131696,-0.028252366062795572,0.08988351474189543,0.16596524852772965,0.2262699360212046,0.3020866983556393,0.42995658229785383,0.635795943375178,0.8464581956619087,0.8986321670599737,0.8480200072495272,0.7983689436034972,0.7730268118383287,0.7689753996272142,0.7793397721882356,0.7981547991517116,0.8215778913551266,0.8457393605768612,0.8626401115983223,0.8565649519841132,0.8167206096186942,0.742624725209186,0.6322884898599856,0.481983764351634,0.3100833659705342,0.16060273916946707,0.06211656073994997,0.01748507548241725,0.018720163888118202,0.05228302056196228,0.0747683599286973,0.03980781947851446,-0.06280850284945834,-0.20923904369630875,-0.3821620416613035,-0.5595435800693244,-0.6946104277784111,-0.7688612545029647,-0.7954698282203282,-0.7856944474226008,-0.7383770484774713,-0.6414799894747614,-0.4817227172717218,-0.2714590438349192,-0.06262852505127377,0.10369799172679797,0.22717527840068583,0.32726924420841036,0.4165157603780707,0.5009882686425785,0.594883179554679,0.6888856398030393,0.7603774302143664,0.7901814020204058,0.7730299381163555,0.7197199405832171,0.6509999288824491,0.5852391852523927,0.5306435835170111,0.4851125860646309,0.4409935647405665,0.3911195191224255,0.3405722154763104,0.29029538092443974,0.2400966901520474,0.18425592922932904,0.11364805265594917,0.031895117734814515,-0.050258002286809336,-0.11773392486586257,-0.14518217118866433,-0.11450687412675421,-0.022490652958417113,0.11125887674229887,0.2046427343673527,0.10582625050250206,-0.34616757194662495,-0.8074128627975049,-0.9479527937116164,-0.9795963752837338,-0.9851662501906606,-0.9804650374398736,-0.9642877888384617,-0.9187693156225702,-0.7568601173421122,-0.14065151495186803,0.5611818083922313,0.7672968014800059,0.8121307080343719,0.8075985479512633,0.7771732148108934,0.7334465670530809,0.6876408449467419,0.646521056595007,0.6125827206003605,0.5913523192137407,0.5826545415892869,0.5701937299899023,0.5246543774525596,0.4555562503108234,0.4105450717837539,0.4067836117072055,0.4472621140550547,0.5260249374636999,0.6234953450022981,0.7211061247449575,0.8125388234416744,0.8717263644673798,0.85320946450913,0.7646837774276908,0.6278468596415492,0.4065977699946328,0.14326287468906668,0.024007615245209134,0.08694265873822664,0.24164316451988604,0.39277353914849494,0.49271098060830126,0.5423954258584026,0.5629366849402949,0.5783087961733115,0.6005884354312719,0.6280072896943695,0.6357640682427157,0.5725373887037786,0.27509836096174295,-0.4597248494966536,-0.8224620613937543,-0.8982875963912725,-0.9174116018014826,-0.9211326148674601,-0.9167528018886576,-0.904637703971351,-0.8808796908526464,-0.8359243092986194,-0.7554170096536689,-0.6363308389105665,-0.5107023289260462,-0.4208731577424726,-0.37669018964695805,-0.35803343632617857,-0.3359316917768575,-0.2775651909895365,-0.1616461230697545,-0.0357484368890271,0.04073415227060854,0.0751137995341835,0.08827742390669895,0.09546976839673316,0.11955180021624279,0.21714528420268744,0.5394190689767319,0.9338497193079891,0.886369872023245,0.8371121309412849,0.819716994396662,0.8060801091826804,0.7790970073861535,0.7285563064781961,0.6486207798442678,0.5392028667978924,0.3965419614785147,0.19461359553531157,-0.09491403957327639,-0.401790814081302,-0.6116034299827569,-0.7176140202064653,-0.7577723602633413,-0.750694478483341,-0.6842218738709185,-0.5097890190357258,-0.23503373810706832,-0.010066868849179917,0.13083582163183488,0.24905087950003796,0.3833344185506236,0.5192290892844618,0.6121247941314358,0.6365338934873588,0.5827790359428291,0.4146017981717903,0.14530472062345162,-0.03909752413210313,-0.08791915940278167,-0.07275297081941558,-0.03954588256052883,-0.007052899555351924,0.021267224181041516,0.04894292989593325,0.08373750338664991,0.14288071445167358,0.2757530451895285,0.5381241835636085,0.4796635369975756,0.356573613657821,0.3048712262240402,0.2934656097839701,0.3078796366820472,0.3389265083656276,0.3749339178662926,0.39952199778445163,0.39211033446662935,0.34625980945337426,0.2772960862304716,0.20841588787113388,0.1510130626102807,0.10391657822585304,0.05873367835127935,0.0090959163603634,-0.048553510660968434,-0.11093427661131158,-0.17503800082511545,-0.2399309548637926,-0.29949821332977233,-0.3404701147402608,-0.3513273941203754,-0.32672827630936274,-0.27108726462202243,-0.19399827134236736,-0.11163194241736331,-0.04360904627348361,-0.001487633231729433,0.016617746602190644,0.020668894376433742,0.024826913443787003,0.03305768053012098,0.04559303066643953,0.05360382238547786,0.04897914358025535,0.028939519855899626,-0.0010413063620985637,-0.03043103605269925,-0.05047278202285661,-0.05615017565530994,-0.04371651983586244,-0.004668748974879325,0.060223969328194626,0.13174991194768504,0.18440909903514294,0.2067022608212914,0.20934475640113254,0.21474582749701035,0.2509655011399037,0.3252528681522022,0.41805688843290373,0.4906813472723519,0.5111848058916292,0.4525943660620506,0.30165085889986337,0.08828570764770748,-0.13314322993648992,-0.35556808168886467,-0.5899099524824158,-0.7744060918666203,-0.8691506455738273,-0.9011802699755891,-0.893779955990863,-0.8493115537960517,-0.7698714564004576,-0.6775099459634268,-0.6012329930867519,-0.5440944435601599,-0.4819470904882666,-0.3921566805130322,-0.2688041650255455,-0.119661391099046,0.05631123745701171,0.2543661008386601,0.44808019961026485,0.5992471809422809,0.6908860291802159,0.7306978334070764,0.7269784871313335,0.6812856070398682,0.5911630922636628,0.45979259631721886,0.28486853167195336,0.05207672906574447,-0.2192328070724967,-0.45451112351140494,-0.606757736842575,-0.6761824195113505,-0.6689585686636985,-0.5648670267908389,-0.3344954052135249,-0.07910274445844831,0.04636617423784716,0.047270643575125816,-0.0023132329195049103,-0.058218198120616634,-0.11524134895587886,-0.19271475584970163,-0.2987453368068123,-0.39592383985215757,-0.4326020274466238,-0.3778115441781285,-0.21997525248425703,0.010798131482836853,0.2259843323203407,0.3504458530953419,0.3607776637804214,0.23598165655836065,-0.027075069848819265,-0.32487221427382895,-0.5500703453019019,-0.7036995237523916,-0.8110564397849441,-0.8791731645234752,-0.9065857427158451,-0.9063323578990659,-0.8920488266211445,-0.8666975421507214,-0.8325458205407948,-0.7987482571335158,-0.7666659013806775,-0.712698827758687,-0.5896090914435194,-0.350628341036146,-0.04898897303312094,0.17958437573826913,0.2928606134980267,0.31277652057322586,0.26485091134578276,0.18510588153021473,0.12145849777709838,0.11475643899731304,0.18063869779678177,0.3027782040960312,0.4394889999513425,0.554345957309501,0.6354723197633046,0.6893092977635739,0.7284444827904176,0.7688018807597374,0.8216532352844776,0.8796215105161707,0.9258372973158375,0.9496289028622519,0.9515105279284825,0.9129561726715514,0.6091921665845301,-0.4404680527962699,-0.7550038035151065,-0.7772703109031098,-0.6458159300846688,-0.24428184424939403,0.17212598339952903,0.32375997629069536,0.3184535511117569,0.23703512909746705,0.12928344634792163,0.037709452990212694,-0.01367477609537443,-0.02414556264044749,-0.0038231086529300034,0.037252202723620946,0.0874266420028189,0.10302531818352179,0.02008997398107854,-0.09680000955470279,-0.18013708241344992,-0.09697540123142152,0.08162475820666532,0.1386738483694097,0.09396554216375326,-0.01722915546312331,-0.14798968990429603,-0.24890391986101268,-0.3020818022939153,-0.3118532486091777,-0.28790507223767264,-0.23466913773580764,-0.14859660735341043,-0.018654985015338566,0.1543970293533024,0.3125765313481802,0.3746715341446246,0.3653170413294433,0.34952133523739926,0.3466297483059921,0.34828961037326384,0.3526913182262681,0.36826866791320245,0.4041753473018574,0.45567046112245146,0.4950910095115906,0.4892634915042054,0.41594609824656054,0.27965951882157786,0.12776589213324843,0.023853799752130655,-0.004602107885031895,0.02889377509745666,0.09257496549336897,0.15665932952376382,0.20301907234555178,0.22710366501453477,0.2308124593051801,0.2142919652032025,0.17235682698585997,0.08177653137105025,-0.10614741017393624,-0.44053807965330066,-0.7478951922975983,-0.809918265898211,-0.7495099311132266,-0.6558081711169943,-0.5792751484459548,-0.5918647202840563,-0.7146350257451595,-0.8435069914372966,-0.914419298516619,-0.9444568887527582,-0.9523746649093556,-0.939984791103568,-0.8825695881786748,-0.6904841074404027,-0.2738782466868998,0.12757394751249193,0.3414797930666962,0.4529356323151725,0.5336441548261698,0.6080721197308826,0.6611603182639071,0.6660171361597312,0.601398026809896,0.46121531028749835,0.2965453749907374,0.16856875166973723,0.09196721961565779,0.04999000010131287,0.016160168881310458,-0.041691315957537105,-0.13373705893565555,-0.23775058291968754,-0.3308402835329985,-0.40715363557959383,-0.399728420237837,-0.178771037098373,-0.01687766830181948,0.03106805701617137,0.011207172364031215,-0.055630018948359485,-0.16127474457183244,-0.32051437611271455,-0.3449060284912672,0.3850730653017335,0.606415401836619,0.7486551692549579,0.8377385823938286,0.8847436421308668,0.9008250664096483,0.8888970200326969,0.836853588636665,0.7122621553922541,0.4970286124169973,0.2750227282440189,0.1288757593210769,0.019261065405796356,-0.12660159240313032,-0.3157402584969202,-0.493013166781005,-0.6197566728676955,-0.6961467895534608,-0.7243536969118016,-0.6968720969000767,-0.6167748609738063,-0.5082459037389734,-0.3983450219760878,-0.3041674415251993,-0.23543389548497534,-0.20066993804281547,-0.23214673806645061,-0.43664474630324374,-0.9025807241266809,-0.776320023599728,-0.5689168433257276,-0.44387616016608317,-0.35210328128639967,-0.2757624284820019,-0.20800382726554809,-0.14547895964918459,-0.08773375025264851,-0.03765241654672524,-0.002351548627759288,0.008884283711092941,-0.010824302998221116,-0.04339279867551945,-0.052494472676428705,-0.029063280111739902,0.011047801582805786,0.056430465776739415,0.10490598363058422,0.16319255132338423,0.2566376407588481,0.4348007656351872,0.595247801296307,0.6385055429980071,0.6612212236537879,0.6739514610686973,0.6736177698858878,0.6663645054558178,0.6579353363525916,0.6483452060655654,0.6350195673357095,0.6118647666342982,0.5728964857114907,0.5254216925550861,0.4871759896632421,0.4709345976195359,0.4770248738374943,0.4959152811427865,0.510743564071036,0.4958525381213783,0.4198296450410508,0.2762656804278639,0.10943287880510218,-0.021150143458186728,-0.0860740989289213,-0.09676246722923017,-0.07581576143323793,-0.042366105731999816,-0.0026936450237244752,0.050830658388872095,0.13836624456697008,0.2770601910288946,0.4614915310773041,0.6430896658758936,0.7606800985644013,0.7990386287965057,0.7837075575008848,0.7451423969321733,0.7006853893026416,0.6551204205181419,0.6070336785752989,0.5569584395673712,0.4929612943907886,0.3817268595092357,0.17291937536067115,-0.15106904730406148,-0.4669343631564295,-0.6469045305924697,-0.7123757933578015,-0.7117227527107881,-0.6703529165754925,-0.6132213375810026,-0.5697459468841921,-0.5705971188903989,-0.629469278100125,-0.7325667029134609,-0.8332534747702294,-0.8963060356349696,-0.9299644222510132,-0.947605193729948,-0.9571334934807356,-0.9616562338386464,-0.9618182595350515,-0.9563228187797435,-0.939203254907019,-0.8952167614745582,-0.7839683475799649,-0.5189085908592432,-0.0826771793205221,0.2836934014624996,0.4803475528161436,0.5751534658130294,0.6079543932772339,0.5859435355023782,0.5033976069141903,0.3755127956717089,0.27377632110778816,0.284332507970719,0.4328804973116463,0.6406319418848373,0.7931756113975259,0.867565988420563,0.8824337496714182,0.8457814123191265,0.7624967662924127,0.6664630568010707,0.6076054179422432,0.6010909968761282,0.6295724461941252,0.6789512058084227,0.7427200817946749,0.8165572106194393,0.8852365477824643,0.9245346897844445,0.9289525998356328,0.9093443282196987,0.8718962486226259,0.8146356233732698,0.7251978068581334,0.5634288721239072,0.24383617105662822,-0.2526043451029236,-0.6382298346448403,-0.8056687828368579,-0.8677820134499751,-0.8858840596706896,-0.8771599386323102,-0.8375447991639348,-0.7443305348408183,-0.5596390496124097,-0.3142928086572929,-0.11697869597680219,0.011476596392368268,0.11004069995359556,0.20150400913871325,0.29085473652966454,0.37037613098269384,0.4306222419511891,0.46588537727019746,0.4774669085165172,0.4626829740303214,0.4178480381717551,0.35092421802549906,0.2868523656865704,0.24582912559259024,0.2343944868161125,0.25594835211932215,0.30775111918009546,0.29664202245989263,0.20095451114204055,0.14314163560262796,0.11897953221979694,0.11234965613405512,0.11634836212112326,0.12340258797520828,0.12229228292376126,0.1119815421402185,0.10541154445388626,0.1241752291757515,0.1888028166508659,0.30115861121688997,0.404875798769848,0.4077708247188472,0.2849744962822951,0.06340975198473114,-0.1939577857211564,-0.39641778039676556,-0.5185705107526888,-0.5836311450483076,-0.6113350713117949,-0.6004599931265175,-0.49206219324841344,-0.082004189639215,0.34281279384544955,0.455833805301506,0.458120757301382,0.4171462675142002,0.32090443602693997,0.12861589313884642,-0.15394079186332674,-0.41065096966892184,-0.5542339110074778,-0.5959633101939187,-0.5636441005763738,-0.4752496413110719,-0.35099958340615317,-0.21539516840126852,-0.08639955653403118,0.028427144105597872,0.12772842947329022,0.2216129243417821,0.3262369992931375,0.4616097067667986,0.6310228838370777,0.718912421089838,0.5376850422058584,0.2893436340287343,0.14378182967121803,0.09340680319921639,0.1052939312248506,0.16013595604727482,0.24493165548984822,0.34348024703852764,0.4361767013660439,0.5204896712044785,0.5932420999590702,0.5452238763185636,0.3976687320070065,0.3070528307828034,0.2727648266303782,0.2618348211315,0.24320078203052523,0.1890387666467113,0.08845077127937448,-0.03565155787669405,-0.12854705656537535,-0.14214846049694482,-0.06925776586843113,0.06471168309876164,0.21032134340212838,0.3270302608254646,0.400784007284621,0.4383186142691446,0.4539734206386037,0.45694646477684414,0.4547371316097448,0.451412835066147,0.4479178561501325,0.4399654067292454,0.4173254155524179,0.3645692652080026,0.2585783131556812,0.06065335409144066,-0.2307362066930907,-0.506610577998773,-0.6796092159780546,-0.7688559958232966,-0.8052356664861668,-0.7872418404853527,-0.6965479278972339,-0.5810682085384947,-0.5547979045853939,-0.645296185175689,-0.7669704581145238,-0.8537903386160273,-0.9030459750808816,-0.9286865537648091,-0.9405910291793607,-0.9445483411828489,-0.9446435040043195,-0.9431129605996457,-0.939308570192752,-0.9298374882623874,-0.9058917298575326,-0.8379727317918363,-0.5872594108583102,0.19095945377592521,0.7125049156787167,0.8345385672154461,0.8454645569437189,0.7932088385472725,0.6569914523080204,0.3442259435516041,-0.24383295303977542,-0.6853303000898983,-0.8377026014211922,-0.8752929141710981,-0.849853693343758,-0.7261106073523454,-0.4023320392046263,0.0488350580694088,0.3591948400364828,0.5158226058001263,0.595895304571248,0.6352957216237444,0.6504286978106766,0.6570619671123619,0.674293668852878,0.7120019357582851,0.7675943679746378,0.8281191738079998,0.8804477060431193,0.916746628776406,0.9366706453537625,0.9450757137341527,0.9471020464248197,0.9473083381218689,0.9486399285588468,0.9508657643009478,0.9478591572000385,0.9329288631032472,0.9089741107618439,0.8861651484480612,0.8675002669072319,0.84775022511906,0.8129032336000274,0.7405695519004117,0.6054184926938194,0.4137034038921921,0.21270510587770294,0.03955872967284238,-0.10648068151803508,-0.23851939871748232,-0.36752270554421823,-0.48983757324091715,-0.5916412416307796,-0.6765599411971221,-0.7433379385402846,-0.7234490390108496,-0.5884019581378421,-0.4148556368927347,-0.2309622799241408,-0.04606623820180098,0.11316518057784948,0.22471463090595356,0.27148521032594364,0.2168726579641324,-0.015107113234135923,-0.45116398072393404,-0.7236947242205367,-0.7093264204491857,-0.6150894088082688,-0.5318143872601357,-0.49754970702999324,-0.5318149417374718,-0.6242191342499107,-0.6922579278934303,-0.6705415419168254,-0.6145450169582856,-0.5694339976923875,-0.5398275239886101,-0.5208773422913446,-0.5185132587266044,-0.5457188931529467,-0.5968300550139193,-0.6475560459288415,-0.6671188802075263,-0.6434920156184337,-0.5855922133669302,-0.47856775043839506,-0.26982316745377194,-0.09753911456064275,-0.03085878852290293,-0.005285901162508629,0.012617685199826303,0.03791326286709042,0.0820907383299834,0.15289509892295436,0.2550230584128827,0.3881115148785629,0.541033814209056,0.683007218670521,0.748798986903778,0.6900554426255286,0.5308288741843629,0.3659515490429818,0.2817088870955419,0.2774615646070527,0.3081056721624887,0.3325481166338759,0.33566187860031643,0.31876596560479337,0.288037040174855,0.25027961484692307,0.20834865636292688,0.16048666843006515,0.09812079945189087,0.000988071988922507,-0.180595913245559,-0.5397013609878973,-0.7927514906542183,-0.731469117351532,-0.6790076474382837,-0.655764151264639,-0.6349557196939344,-0.5995744908091384,-0.5411844524227417,-0.4541407099697219,-0.3344388774500988,-0.1709378756125908,0.04854326903250781,0.2556350274498138,0.35209464895562304,0.37168345777354495,0.3547452939712196,0.31008160980589383,0.24566682945946786,0.19133090490808566,0.18688864926630042,0.25083974426857464,0.3604216546308965,0.4658426118896343,0.5249046886408639,0.5157921578970263,0.4012778677163721,0.10083953585969647,-0.35146628996366586,-0.6539538713582002,-0.7714334976433975,-0.8068958120091639,-0.8063725682654508,-0.7825361624179765,-0.7293773895058022,-0.6206396093550512,-0.41280728459692634,-0.11061067323872974,0.15004575895641223,0.28094303177761526,0.3107475326616039,0.2848716831204931,0.2419039232413509,0.21587118898568275,0.22684407085631625,0.279296913422203,0.362792485597593,0.46243327161960396,0.5700389474921458,0.6743730861955548,0.7599486639963426,0.8176808511209447,0.8551205589088638,0.8830415503122437,0.894619839608144,0.8812151252023122,0.8552928990792285,0.831818637311872,0.8160779486745302,0.807355936022052,0.7990781659985942,0.7757574898296938,0.7128901385570706,0.5872767773945864,0.3999776488736023,0.1753828711664983,-0.06821856917629665,-0.31327430668626294,-0.5264380282777136,-0.6732588459304522,-0.7525832632724533,-0.7882210402121244,-0.8040716900372912,-0.815177126967073,-0.8250610264125285,-0.8250356896230707,-0.7928670045315674,-0.6756934627181524,-0.36189579096498814,0.12708187101392868,0.474144917142772,0.6333743592743283,0.6854195965203491,0.6437000046022638,0.4709964840643543,0.1930163944288783,-0.029535049055520124,-0.14708745639778556,-0.20798255727535145,-0.2515439852757829,-0.29267276619737576,-0.33040574320311916,-0.3644699367899312,-0.39334208120218866,-0.41586943813136484,-0.4363174687612564,-0.45571202704614355,-0.4769669236498329,-0.5014657702638439,-0.5220237850554199,-0.529958266635447,-0.5193938416769557,-0.4899938062574373,-0.46185497599289965,-0.4494218766601021,-0.44916664114641863,-0.43992181452578594,-0.39531422440267916,-0.28848057700460955,-0.14911724624954856,-0.0300755633264439,0.047815470676247876,0.09150582125277171,0.11293011488523186,0.11869615128413867,0.11157952604370366,0.09561243165822325,0.08075732119786941,0.07674546793968416,0.08515391365290603,0.10753844485250708,0.1488746232185514,0.1909198244801953,0.2176308936874405,0.23256432743546152,0.24541547687163862,0.2568862994033337,0.2625857276818445,0.25032920977806766,0.2146682761507812,0.1533941958306205,0.06783758558813273,-0.030470685535504336,-0.12200442839192785,-0.1942633732436813,-0.24515381993830807,-0.27646314153341867,-0.286209585172579,-0.26258583875651387,-0.19659380249276803,-0.09879231606782393,-0.00303629642136794,0.056084730623491896,0.06332097712415784,0.03966476810689051,0.009755524205748323,-0.013974522668278406,-0.027287484364262392,-0.03357191806388106,-0.03414433284006224,-0.027873743379246897,-0.013946242976174215,0.0030195518348338952,0.021397333088515515,0.041055425035661244,0.06608159113193485,0.10452542646185617,0.1592295178878717,0.21068261773302968,0.24141105943066493,0.258255998498217,0.26759183592365543,0.238468918043859,0.03403227451917146,-0.2578975051130018,-0.41006064276223114,-0.47000699591293693,-0.4694516315079853,-0.41694220218839845,-0.31454681988172933,-0.17401017448448228,-0.02914446985342924,0.07746537256650293,0.12338910686898402,0.1137320756486032,0.07007677486965566,0.017910996701261207,-0.012822582448083257,0.010685392043082461,0.10340192247434793,0.21362947821041775,0.24758900397703734,0.17064974536672398,-0.023761965095709457,-0.2958635335429072,-0.4352975599665758,-0.43505859064124175,-0.3841522424068923,-0.327855753490595,-0.2864687702555638,-0.24170020058954697,-0.13468322602570534,-0.003784495800446724,0.1062693612231219,0.20638780332486548,0.303053101935414,0.39569199167536834,0.4874885071811149,0.5810834771676163,0.6650867512926093,0.706186657036347,0.6239843713899337,0.027762901643524154,-0.7517653243898635,-0.8981637383022797,-0.9166279415162475,-0.8897792030136467,-0.7943735775848738,-0.5347064901651561,-0.043967279861802426,0.3681523338231747,0.5420102080679914,0.5780520456292628,0.5435622577345349,0.46983357680863275,0.3851431076627224,0.32209934884922947,0.29535068175890433,0.28649173466977756,0.2721907218163379,0.24710107509509774,0.21646978275795145,0.184922252949568,0.15478604533573945,0.13676072931080724,0.15503738109348103,0.2215642079304325,0.3184617268414713,0.4189785478425276,0.5086684737993665,0.5773581869498585,0.6115199050656339,0.5930277515535639,0.5254647056032455,0.4296152387836491,0.326543841899494,0.23050510811673683,0.1545729223972457,0.10184245043714131,0.060736080860701085,0.024463015381958227,-0.007315604697459697,-0.013936098167667279,0.0427255761607378,0.18946349881118796,0.30308649385811204,0.33468048093880154,0.3380325078322487,0.3409528384353602,0.34771783449369986,0.3466871333561172,0.31610602713170016,0.22899289333304657,0.05913610021154884,-0.19087754417526778,-0.44113608489426853,-0.6112161273758384,-0.7014049832619619,-0.7418088342619468,-0.7562866014201536,-0.7611530738651386,-0.7649141822281399,-0.7482725154254197,-0.5401099480372947,-0.11609356460250247,0.04982434117148385,0.02983067298393566,-0.08177610279689598,-0.24777831556059587,-0.44741512957821905,-0.6358786097452791,-0.7646724113054288,-0.8288179481925176,-0.8460938451276024,-0.8241278026537032,-0.7477633761077134,-0.5671183856132008,-0.2367747981236272,0.12338694902686063,0.3496652665767973,0.4562272066968196,0.4958626692215754,0.49528218127673157,0.4649720764897441,0.4170567613614428,0.3561248490444483,0.2713494962135112,0.13093648505931288,-0.06543975697395085,-0.2556934203519765,-0.4336485304812675,-0.6025825481739487,-0.7301418108975488,-0.8039883843943044,-0.8336390902408329,-0.8170238383697607,-0.7028590528809218,-0.40052409919084475,0.027464054979553072,0.39017126883761943,0.6416286202646504,0.8033585017247871,0.8985476098662073,0.9479659383400746,0.9670800757300912,0.9508307973006631,0.837042263258242,0.45599181764796043,-0.024377265026375702,-0.2404508270715268,-0.2572998636280994,-0.15073314495879572,0.03570212106083536,0.23518262158790723,0.3855394638850799,0.47887168247050776,0.535233202578328,0.5748572572700515,0.6054316373406505,0.624041760149922,0.6224667057733514,0.6002409061572064,0.5664577354349584,0.5336588058297109,0.5103536051044303,0.49285714536853437,0.4365138497228803,0.21883760514502112,0.011810055696682899,-0.05389268069842292,-0.01994281808525846,0.06321400117031788,0.1595598875294252,0.26983861730766523,0.4156974709997949,0.5769574298312217,0.6960767767791662,0.7526890245937133,0.7354633454621073,0.5632982820156391,-0.04538092402859089,-0.6714270409465684,-0.8561943613338371,-0.9057690664550889,-0.9164956302532673,-0.9039037515993138,-0.8533446305211994,-0.6889226167563104,-0.2522679400622219,0.21083531261535451,0.38904637237120776,0.40601210093485396,0.3488098890911169,0.23567701465846985,0.037909317472273996,-0.28668643872304045,-0.6502071855564149,-0.6785180902407791,-0.4953358077720681,-0.335344415791209,-0.22360857489388997,-0.14394198052204987,-0.08002755228173747,-0.007998240069974318,0.1188820109203751,0.3642068917434725,0.589657649308353,0.6627090711782178,0.6455468749223755,0.521101800557742,0.3795502157547984,0.28045317268348047,0.21723065338095343,0.1646435653537352,0.10315016662211011,0.024612084676349854,-0.05749879665140253,-0.11823302365522993,-0.15698555840689082,-0.18139698404530163,-0.1938563381846393,-0.20018436874068338,-0.21213121953093494,-0.235756762613519,-0.26305907814105717,-0.27741176119208183,-0.2630653323411249,-0.20737358571855832,-0.11066973867890145,0.01165370826393619,0.13727642271193213,0.2503892738020468,0.35268945438564603,0.4553490325107085,0.5616164630997629,0.6641190907997481,0.7463345869942127,0.7672509673410417,0.5681177343922169,-0.3198539482904435,-0.7419963083605748,-0.8014226202855638,-0.7636265131370027,-0.6475658247438648,-0.44866560083642576,-0.21135837806164978,-0.009329374406841227,0.128880749994343,0.21601626133319785,0.27596265052795727,0.3313451880543667,0.3892654028634946,0.4129434301953544,0.3191734017807393,0.12337624155423316,-0.08857820413770792,-0.2742314806520471,-0.41405925301281193,-0.5056010853100316,-0.5463628952038686,-0.5222047054635712,-0.4086706288492912,-0.18250863547142007,0.12752211482760442,0.39491007403406225,0.5522051286875806,0.6296079668570468,0.6693343892032803,0.6921823303426832,0.7009857632562971,0.691700278983624,0.6570330062192371,0.5865474056099611,0.4673346664044184,0.30542546252989733,0.14611870607023889,0.05664379073838021,0.09864673275554407,0.2985500738940213,0.5059343690303629,0.6121233806601792,0.6570196110954344,0.6781363053645736,0.6901636897622621,0.700027790038702,0.7092633323216218,0.7156240381758514,0.7067575024559819,0.6614721707732464,0.5426131683616886,0.28258786288137444,-0.11305091360325026,-0.3879672221157077,-0.3978640518829031,-0.22409452076793002,-0.051349031656105965,0.026516702367119806,0.020199143530541433,-0.03682322393034029,-0.11520142562844705,-0.20029724748164568,-0.28349407047083663,-0.3593539608334651,-0.42862244966841423,-0.4953944932715281,-0.5898916862314976,-0.7691340867103108,-0.974491323561944,-0.9430135435371183,-0.8453487144926919,-0.7886922311465505,-0.7575281501745796,-0.735310244498814,-0.7112711190410771,-0.6751862925210859,-0.6076488817701565,-0.4587757910666358,-0.11896578209262133,0.29065043888773306,0.44577990092215175,0.41935497345765216,0.28710004077609286,0.056622289501963796,-0.22170337700634138,-0.44360711445381534,-0.5839466291109139,-0.6573483594912983,-0.641082657446088,-0.5044847879020725,-0.280959236309083,-0.04031944342749843,0.16194269678168913,0.3112822149452954,0.4172026401928734,0.49138496227224987,0.5394991473240803,0.562601323938231,0.5640536736896165,0.5526522762156381,0.5473856031855209,0.5653387226547373,0.6000449931992391,0.6253903477910708,0.6132967973497082,0.5348818328545575,0.3339299234383175,-0.04313304601003722,-0.4398428212693579,-0.6653440025229839,-0.7592408453832183,-0.7904301273547409,-0.7946432518372266,-0.7892077495706726,-0.7929727905912691,-0.8215402622409309,-0.8586421910608111,-0.8780052498021435,-0.8645148252221767,-0.7879032500421812,-0.517310712315028,0.10344465876086333,0.5622232632115627,0.7302928183894105,0.7894184461055187,0.80361152176557,0.7884360876887051,0.7470624965536009,0.6813534730307512,0.6076589403212456,0.5672236637455644,0.5883328279863036,0.6515089458040425,0.7226500254950027,0.7788346478197682,0.7946652246276855,0.6987867112931218,0.47187585579297797,0.2606187360578573,0.13575657470866373,0.08562638355774069,0.08822874504521697,0.12152631766434573,0.16344831581661118,0.19834091445211555,0.21939657917469452,0.228604787308335,0.23166778544898686,0.228376136810737,0.215791486972718,0.1990190602725891,0.18910191666754372,0.189822220167597,0.19690542948525214,0.2010561382554158,0.1980145990067299,0.18002645739647402,0.13948888257437458,0.0716551902805601,-0.03233901289543717,-0.16917266458396069,-0.3180511683942262,-0.427837339534819,-0.4470277457042208,-0.38211269640657936,-0.26002873179887576,-0.10334004923168126,0.06035773612776046,0.18540956514051546,0.2315604836687687,0.18647040319110078,0.05881724462413102,-0.11178182303443977,-0.2692914482973786,-0.37253903938369615,-0.40371737793247836,-0.3582810523675202,-0.24129783989040243,-0.07896429260169392,0.08310986306366318,0.20372508487444077,0.24933821708291887,0.17610280966747094,-0.04920656230868508,-0.36444513186264826,-0.6277909739452746,-0.783614968708365,-0.8553809433455947,-0.873002034282969,-0.8572750037730782,-0.8151582409846255,-0.7339964901604545,-0.5809458713181738,-0.3062822567618264,0.058984253328703405,0.34306630543075545,0.47878149988298924,0.5249634128263572,0.5426924923237192,0.5634606571376124,0.5937889330000985,0.6143715287423823,0.6039643128922436,0.5488172131319592,0.4353825149882024,0.2447484909250128,-0.03155880555141949,-0.3456961057826081,-0.5989527112152843,-0.7386888376532059,-0.7676663610697188,-0.7293359753991091,-0.6396172312172224,-0.49311019762279584,-0.3013212848124371,-0.1277115282913112,-0.037189648050290416,-0.056846428519326156,-0.18361061231419493,-0.3803094076227585,-0.5261452873572796,-0.5536676624855946,-0.46995399063921994,-0.2919320454472717,-0.06420975656601459,0.1322109332551985,0.26674949136449416,0.3505904518421997,0.403326485702668,0.44523809064295106,0.4919626885207964,0.5490118572038523,0.6066861293928669,0.6476136584627711,0.6390182996637189,0.5426486663700705,0.3917833993633691,0.2704040156625512,0.21229161423755372,0.20565399319037853,0.2281523189427488,0.25885818844186825,0.2793056558409686,0.27658147856851084,0.2403882383214731,0.16397855037749373,0.05385048180863563,-0.07438625427270142,-0.2420840016087765,-0.48629953106561097,-0.7295261159352322,-0.8575518526555304,-0.8985622201382819,-0.8976526447731081,-0.8595727308281871,-0.761928402002095,-0.6082565124960668,-0.48028864857929093,-0.4230655702079384,-0.3990112296996713,-0.359381750922583,-0.2586330834654958,-0.017357401401807946,0.4584021064603213,0.8047856846706363,0.7517692935449279,0.4704102993455753,-0.01119827401426222,-0.4227773233176574,-0.605824349979174,-0.6338266852075187,-0.5527253997246676,-0.37311731231801154,-0.13105591986252207,0.0991159067047776,0.2559626565613485,0.3354629696741108,0.3615770837782658,0.35815584734864564,0.34590718216051847,0.3355289141488578,0.3267835792140189,0.3167960476171941,0.3024991740941684,0.2857694743626841,0.27083380757948794,0.2592582001788131,0.2482995985666822,0.23271279143308068,0.20904919795723653,0.1771671589951597,0.13930481576479697,0.09392399315316179,0.036963648871896924,-0.02266330606788391,-0.056992475744689304,-0.042968134736182655,0.014297695566784889,0.08989454097576739,0.16011465779429812,0.21768288107567665,0.25860756525383,0.27525734758411813,0.2674637263630024,0.246287241728663,0.2274554946469792,0.216038097410955,0.21104139684298548,0.2055358870095344,0.18748730281108097,0.1297404981077111,-0.01960978342310325,-0.28227077276302864,-0.5021591219386051,-0.563550791142106,-0.5483397928784162,-0.5051855498185871,-0.43939458024292866,-0.3423301848044927,-0.22512448776571356,-0.11564825333060379,-0.031342566625188154,0.02452957028259282,0.05858822333232827,0.07679527823109092,0.0854492937364797,0.08841944751491408,0.08945529950535477,0.089442413605513,0.08476434665661603,0.06937425261740007,0.0394904944798258,-0.008072921222647592,-0.06606498281975796,-0.10322591402691221,-0.0849420331758759,-0.027669025540805137,0.020591731502720305,0.03996017790142175,0.031947492974698906,0.0022164814058512044,-0.029845825758486225,-0.0531370860244528,-0.06735960321366923,-0.06914538967067688,-0.0393637123802374,0.04026311353684122,0.17317432294730503,0.34125805925854236,0.5017929281336879,0.6100405458390276,0.6482099221999099,0.6063168077739615,0.46478906873520515,0.2387570931918614,0.024048271611602137,-0.08623722904257379,-0.07219874083630212,0.03301376281390303,0.16878077446601894,0.28616633648792467,0.3557925620302074,0.36749619543147716,0.3361552446617452,0.2880220929650897,0.2361211336340429,0.16888878302862992,0.06687689242698064,-0.07439663661723842,-0.21287552604170265,-0.3074071490050491,-0.3541019581466921,-0.3654987165626788,-0.3592158495516827,-0.35583760976724443,-0.373109262579402,-0.4173754932216432,-0.48464982964246844,-0.5791646953618729,-0.7262511187717179,-0.9316120012103695,-0.8292884429757746,-0.5123508479662149,-0.3562049514656748,-0.30035389289914444,-0.2967783522626533,-0.327673928943041,-0.3816865928035155,-0.43858021863246444,-0.4634256235998069,-0.4139776505161891,-0.25608312730190536,0.023627314410467663,0.3946586967411266,0.7195821809754835,0.7813077071268605,0.6848160643236596,0.5898531950511038,0.5263457010469582,0.4897180386930578,0.4777295943964762,0.5021728341784826,0.5363001816045136,0.4119369801955287,0.26861106071514035,0.1950027010753083,0.15961087361596854,0.14505487962626204,0.1426366466734967,0.14599566235476266,0.15029884708200303,0.15081316801335262,0.14376465392331367,0.13090651051940444,0.11852339647404765,0.10977997125941528,0.11081521785860378,0.14638464188831313,0.32972279130627197,0.7024043160877359,0.7590572778047813,0.7802739603307297,0.8089638034188648,0.827101704197889,0.8259591036913541,0.797088511981004,0.7218170684937603,0.5678642313156096,0.31461379078776275,0.019676742685896375,-0.2060146689752782,-0.3238708693622697,-0.35467096200413006,-0.3258795625860966,-0.26321329602122084,-0.1938856126669085,-0.14007202580739317,-0.11137685694298727,-0.10382847070039986,-0.10590925693080008,-0.10542263513754833,-0.10159334117929401,-0.10480521592221122,-0.13419313183117912,-0.20772243621799918,-0.31836223122816587,-0.4286203916591369,-0.4986510823683372,-0.5158085884308099,-0.47969886204583473,-0.38990118954933384,-0.2525298092926846,-0.10411398605065272,-0.00846515053438883,-0.03322599570111628,-0.25138161158373273,-0.6005533599484271,-0.8188321976001484,-0.897712624491267,-0.9245709868957792,-0.9358474616277519,-0.9422983270295122,-0.9457291740349955,-0.9453157495113969,-0.9390963186852925,-0.9218118496853133,-0.8782773652358253,-0.7559644583939991,-0.45205402034497455,-0.067657199441527,0.1348420416732572,0.17314277926176896,0.1337276032833861,0.07878872321958669,0.05557127905988091,0.07907640257018665,0.1392983829365087,0.21747662705961743,0.2897786149164527,0.34695953472562263,0.3925421359350163,0.4282400020684485,0.4547624441635855,0.47122490369627124,0.4817235351035804,0.49131891852315124,0.5081969573196099,0.5369988821126119,0.5695714148255546,0.5847178824202671,0.5829925708579512,0.5882057104402442,0.6155134684733906,0.6647722245274569,0.7155188359482847,0.7396111042569865,0.7338640033738442,0.7144627143275334,0.6903224111006678,0.6603675522992967,0.6197259160685445,0.572193357358607,0.5224163027707698,0.4809633204666283,0.4699804099481142,0.49288199029843066,0.5303459636889101,0.5544539080242683,0.5562849334515049,0.5558431809508426,0.5648768076710967,0.5925621908630614,0.6423926873873869,0.7024653412846705,0.7562450552617594,0.7953695422284234,0.8239419188513835,0.8487643038713087,0.8678671206848367,0.8829399323372336,0.8969450204697234,0.9093839513586814,0.9225339137078662,0.936020527291118,0.9445980269935802,0.933170815957272,0.8760938106185584,0.7359374919848528,0.47552822299814373,0.11136967662007029,-0.25131794000573443,-0.5151554875891393,-0.6651867745007888,-0.7376103459689606,-0.7623495828656351,-0.7512962822086288,-0.706381469439049,-0.6260642212117207,-0.5191589385798292,-0.4208953323059852,-0.37750532445146395,-0.39973668237423904,-0.45889040670527725,-0.5215002220250843,-0.5658453007137719,-0.5813118078098307,-0.5642450728870949,-0.5147243303662781,-0.4385828082406298,-0.36006070006823643,-0.3249165757476549,-0.3704722321760235,-0.4801722350995937,-0.5642465579279928,-0.5016566128448429,-0.2550654473751477,0.04037853010424361,0.2800454027584739,0.4618429267735459,0.596511903075934,0.6884924934878424,0.7497840697801054,0.7909920386779358,0.8206745783438919,0.8434079231948494,0.8589741773466192,0.8673444091221103,0.8700001157287292,0.8658482384362568,0.8449907877097468,0.7509167397506596,0.09824323514981907,-0.7986491866927581,-0.8972328577012052,-0.9037485798583625,-0.8925060116055872,-0.8720502420961297,-0.8476167857280629,-0.8269684853684196,-0.8170545102070617,-0.8224034241406613,-0.8426726399897951,-0.8723465127595281,-0.9041269616027625,-0.9304903047741558,-0.9472281705863664,-0.9548597932225087,-0.956380027927608,-0.9543318234356106,-0.9507209995584167,-0.9460628144911151,-0.9405903105531466,-0.9326763987436141,-0.9146687071656342,-0.8588374621259258,-0.6254502863327733,0.15155263569575544,0.6492379634072661,0.7707665122778304,0.8041024792730819,0.8206273250484191,0.8427843688055032,0.8724316795573573,0.9028055917802914,0.9250292670183599,0.9352901093757143,0.9326664977714084,0.917758365431954,0.8956671390832688,0.8747182929818552,0.8596076433692065,0.8434653079632072,0.8100951377517331,0.7579472441576083,0.7044917343046844,0.662800651469838,0.6325911440257328,0.6105978059656257,0.5906859000317553,0.5648748259317343,0.5266374197017127,0.4694838228466676,0.38567472248540496,0.2668298705455769,0.09198090517339418,-0.1796906802299981,-0.49328971478312567,-0.7069499593132905,-0.8119842899870573,-0.859406946236483,-0.8811012532146223,-0.8886694644501227,-0.880258296837533,-0.8424285959330017,-0.7385903243278735,-0.5007813389318783,-0.18006884118987831,0.031687218325956196,0.09699417330287138,0.06746867140898632,-0.00010376456776292583,-0.05448720063982903,-0.06167223488469973,-0.02157099397004395,0.04089272078803435,0.10266984748395483,0.15086270323787973,0.1808993275704955,0.18951626520528267,0.1777874036317303,0.14525974128931843,0.09314298375653388,0.01266946792022311,-0.09934995240888579,-0.21407779558783888,-0.27571005495304685,-0.21836454574593278,0.022843076110566015,0.37116544662608336,0.6073927072436144,0.7025447975195821,0.7032511471808862,0.6183927035131663,0.42504485111284146,0.12843913425005818,-0.19254883416181184,-0.4441147068291128,-0.6016771922718834,-0.689546075260767,-0.7300950943642956,-0.7303639370307928,-0.6830662629541715,-0.5781963502001293,-0.4258359842536612,-0.2575486663477636,-0.09810325214321167,0.054594560729094015,0.20189670043988045,0.3358708940255441,0.4475764719986981,0.5347052405931529,0.5908006844988404,0.6009407148697543,0.5619927489546649,0.48429775283150067,0.3999587952344055,0.33825289448548584,0.30621751513224676,0.29674986634129924,0.3107145621635744,0.3148712153497339,0.260111379138303,0.17808840341234133,0.11726665059170224,0.07868517038433039,0.049488583608173084,0.021199722102569624,-0.009468186610677396,-0.040652458181097896,-0.07576094997203212,-0.13159171576793532,-0.23385659291623684,-0.39586263618497086,-0.5797716989050415,-0.721869748901287,-0.8063390312356827,-0.850374580606336,-0.8694068878008061,-0.8708426566762696,-0.8568862483830446,-0.8281057366245196,-0.7816398669342006,-0.701395029791354,-0.5303558379757157,-0.12196537691511114,0.4691627381012229,0.790733832510579,0.9008041542989403,0.9405221385226838,0.9564375841912477,0.9600792228180126,0.9474164951689887,0.8865488368262332,0.5979679950671951,-0.208572547897621,-0.6518556200746177,-0.768331133579737,-0.77779367496011,-0.7022057227320335,-0.4670238420775009,-0.09412157095637741,0.04338376309947083,-0.11443957638438541,-0.40180658120382706,-0.6341512810875937,-0.7552234731886415,-0.7939858407464017,-0.7841191245332652,-0.7348008477022031,-0.6393286190432846,-0.4875083466250432,-0.28250552235058374,-0.05262523448425868,0.16883428640706763,0.3585741701666759,0.49546526531688756,0.5646078594946373,0.5779896872576061,0.5649984517201452,0.5504188039838891,0.5454270081735361,0.5469535081685756,0.5489702887660406,0.5460358884896177,0.5418151643495095,0.5420240091808192,0.5512606348921038,0.5715056579315545,0.6014848847051455,0.6276575411317002,0.630290700610008,0.5922493141897748,0.4966894501091842,0.3354283168032034,0.136515733360576,-0.04569248524140955,-0.1766617800663431,-0.2218509136737453,-0.19482128382542022,-0.17936827721871668,-0.18853409640882896,-0.22685845698073803,-0.30174104307087574,-0.4155004184418413,-0.538166032419742,-0.595711341425056,-0.5292271904478255,-0.377740362446262,-0.2187727151996536,-0.12659304770082974,-0.1688030857763036,-0.360598086734284,-0.595927443130054,-0.7477668382991851,-0.8155101124378635,-0.8351249620564954,-0.8237633767338101,-0.7863974790802815,-0.7201715820110662,-0.6188341283906248,-0.4774413912046679,-0.3153908454557422,-0.17594181242003276,-0.08117626071930696,-0.015892358970732306,0.04686226131567145,0.1195921698206779,0.1806105927836039,0.22879085778041774,0.2741461446851446,0.31560329156658884,0.3468627541052119,0.37008153933813137,0.40134903633591007,0.4551726261304871,0.5257580160383254,0.5692029279035112,0.4693602296803117,0.16430521294309253,-0.1336884035782632,-0.2948561063189773,-0.35068753839904043,-0.33494148303531224,-0.2597628575469016,-0.1405459166228877,-0.006774898887062327,0.1101799863204846,0.19200869023623676,0.238763460005893,0.26049786086222027,0.2691009379551824,0.26613387777177544,0.24554769490057857,0.20342778078910237,0.1458065743876888,0.08957327533142044,0.056928528037779105,0.07280417574424655,0.17535682585384552,0.41694520398716256,0.7273918798431069,0.850328101455714,0.870163664382386,0.8887077212408542,0.7858174607915336,0.3849908502584957,0.09111567141070892,-0.033867372462564035,-0.07975468366456463,-0.08814667807417412,-0.08248823922671036,-0.08242632771683572,-0.10544966159117021,-0.16050209235226456,-0.23940802681532727,-0.30920679816357105,-0.3173794718164575,-0.2633739971421937,-0.17547177454461182,-0.04458435534538957,0.09871240882382855,0.204263462207917,0.2476977718442778,0.22365740165278608,0.13105844911281722,-0.011501455462611556,-0.1633062392787378,-0.28290691653583,-0.3644363152612413,-0.43063611478422076,-0.49798695382909114,-0.5651434436279631,-0.6246612220968936,-0.6877198511638567,-0.7641132987926295,-0.8439140309310007,-0.9044625243015768,-0.9342551898208209,-0.9370917496521838,-0.9138182134420436,-0.8455269140219209,-0.6707216300527234,-0.34497794916316177,-0.02687737561673148,0.17070250908175766,0.29028035757248855,0.3782993913700237,0.4472707904599616,0.4858530097486219,0.487722996376188,0.47510437288706814,0.5121999879220237,0.38086051671290033,0.13329768238533282,0.09413501881686838,0.09403664101090915,0.10086903216350358,0.11004334763642029,0.12102636307595888,0.13675283666040766,0.16605729979116216,0.22765437429665317,0.35886106100133836,0.5576497240458144,0.6213435877619624,0.6002742462406239,0.6206328819383898,0.6648997544526747,0.6941586583966814,0.6922274174004079,0.6706209155680051,0.6477010741256705,0.6302268441097235,0.6176561105347801,0.6065599945873144,0.5926551525380026,0.5721314801488845,0.5399070900658433,0.4758111026995931,0.330009214524662,0.03508404137722487,-0.36394390034286134,-0.654202526836919,-0.7892843172216354,-0.8396170968500103,-0.8477462143794084,-0.8273211252228679,-0.7791554491160062,-0.6908404829119983,-0.5329805063696571,-0.2932575108244986,-0.025077468872982678,0.1843383891946812,0.31380643587018286,0.39873546866449966,0.4714991668740759,0.5482344468249989,0.6325314438365924,0.7141884899396204,0.7807356132277061,0.8247473686536403,0.8466637937113392,0.8494895307392831,0.829189900860431,0.7447684093383355,0.4126966841962511,-0.3203270848122655,-0.7052243445042035,-0.815942996817139,-0.8535242780850839,-0.8659807050290328,-0.8526545216805923,-0.7969448961693245,-0.7044712870215449,-0.5890497016143048,-0.4349564651890249,-0.16561745618819207,0.2964915336163332,0.6565160754772102,0.75054734365016,0.7435863760015383,0.704804115870967,0.6481097439788777,0.5741191474990417,0.4844381864787784,0.3896145589407731,0.3050146596370859,0.2389736376458566,0.19523139478129423,0.17466298935713784,0.16541637723369654,0.14452504573526484,0.09317869195976201,-0.010610925893523472,-0.16852284937945733,-0.3522332168198973,-0.5590764933624431,-0.7850022439524195,-0.9270991700060978,-0.975487959920374,-0.9875309536169524,-0.9864573404402472,-0.9736766503573685,-0.9332691985934574,-0.8033095133137783,-0.43748038418552987,0.02089046024779713,0.20319180247267316,0.13449216190087684,-0.08879149659779141,-0.32411061631806903,-0.48137498742848056,-0.5611202522597841,-0.5765921230439192,-0.5306063551803046,-0.40702282356776953,-0.1913901244539128,0.08559475739433547,0.33174939593850516,0.4877375035535304,0.5485235502296903,0.5431073397463005,0.5054185280257237,0.4587163576819564,0.414363005199351,0.38057047693056983,0.3640318545379881,0.37046389253697526,0.40077096422116276,0.45066403509785385,0.5086307298529243,0.5642946076080627,0.6046949652793973,0.623501873975156,0.6196597578001816,0.6000781467048615,0.5773017798378635,0.5579498845803645,0.5371634059095133,0.5113898128841704,0.47799181378530975,0.439031767688327,0.39811709369071463,0.3686929889264943,0.3600268473806445,0.36729444918019366,0.3590831692567691,0.30675957811074034,0.20037935475103097,0.04313622446743943,-0.1295860580873669,-0.25014320722679395,-0.25186664661348934,-0.10590349024484981,0.13488780413470972,0.3453478102167923,0.46210017683421056,0.5023237924319613,0.4978753491550866,0.4750493227581505,0.4511376347638129,0.433237798522581,0.4235960079366419,0.41859586418385414,0.41442927234944493,0.4050175936617249,0.3753382643976719,0.3037535446674323,0.19123435872634306,0.07647932235227319,-0.010282766807238459,-0.06963543070574735,-0.11168679897247925,-0.14852404877634326,-0.1873116660864867,-0.22447557930333287,-0.24561658996608984,-0.242322720843122,-0.22628280383008076,-0.2075163691109178,-0.2073930423186279,-0.25154106659131237,-0.34184755398616556,-0.45265894938848056,-0.5579530240836336,-0.645197683233258,-0.7035652518248239,-0.7295935884953897,-0.725502116695465,-0.7007720308955584,-0.6683655003396312,-0.64176105181033,-0.6249020924837563,-0.6108408443731768,-0.5903583526351709,-0.557958127434391,-0.5016067970063622,-0.43327140606671305,-0.4008652859914813,-0.4450889249356391,-0.5371570410208747,-0.5955718595771303,-0.574189014451148,-0.5009533928806424,-0.4329029648611808,-0.4120219351504904,-0.4425702691725834,-0.5002070915657343,-0.5585711425733317,-0.6034451051598209,-0.6324736802201089,-0.6508686323187561,-0.6651294253476385,-0.6769398181839638,-0.6731190581153816,-0.6234526462736056,-0.4991514243994652,-0.27925090023429683,0.03242557384117465,0.3444036671146179,0.5508835971952575,0.6574796981633365,0.7058334210713043,0.7220474075135571,0.7176353837206345,0.7006174364550432,0.6773640858215747,0.6493416708695303,0.6033634227511274,0.48623775063803215,0.15217268053732919,-0.393754992262373,-0.6763368895922929,-0.7315982807613983,-0.6815708602896245,-0.5338699264485823,-0.26442843872728206,0.07724908021055973,0.3639176128049303,0.5526107245500991,0.6756104750822212,0.764458836859887,0.8231324507297272,0.8336877809735587,0.7829358306231852,0.6719377130945828,0.5120049178903714,0.36674991156296055,0.3545547933650123,0.5385034797124476,0.7723921967019056,0.8715238980126199,0.7682950151560461,-0.7628067262441957,-0.9710277200825947,-0.9846156359218743,-0.9843324933654344,-0.9773657376746588,-0.9625798841951226,-0.9425164628769329,-0.9261475910391667,-0.9148291390850387,-0.8963419277737652,-0.8427196828019572,-0.6724493405185442,-0.1958731747930646,0.35487714760481465,0.5819288960604841,0.648529747146033,0.6693530034378655,0.6633465258526273,0.620987793013081,0.6185081010051791,0.7108061747147761,0.8363553171217182,0.9241041634578107,0.955406681474945,0.9473487637226361,0.9188552581948966,0.8802994900559855,0.8394564187585885,0.806360071972819,0.7900261585858456,0.7924736855709469,0.8006347720739442,0.7845146219592181,0.7059839265785014,0.5387844492839816,0.3264129201922453,0.15050758238159903,0.04559806571876084,0.004807835440272986,0.0014173240360364778,0.007128652261768296,0.005496715728081625,-0.011204337039368078,-0.03407460518524859,-0.0454921067864416,-0.032683240492302486,0.013680208299923325,0.09439092484535223,0.19564780315620497,0.2930925785674094,0.3749117629554078,0.44482064532171034,0.49960827374415434,0.530657208425515,0.5337849049316532,0.5117921222391512,0.47029934854580907,0.42569860031071255,0.410559237723974,0.43702253927670304,0.49395695115728994,0.5691002251957269,0.6511688724617538,0.7181951712337926,0.7591743540290318,0.7790789739532761,0.7882663070000796,0.7832051293583369,0.7422122619310574,0.6383359521317683,0.4645743535280113,0.24331921612186885,0.009967777123249285,-0.2179069215878097,-0.406156456812017,-0.5082748501913682,-0.5382924139758292,-0.5535049817474712,-0.5750448680317708,-0.6052769982791603,-0.6403847825659216,-0.6780541468367861,-0.7222027752450384,-0.778937342077652,-0.8496682168401761,-0.9243398900684882,-0.9652010774400503,-0.9276964570169837,-0.8366748826261668,-0.7496249054644506,-0.6892159017811192,-0.6569520995659337,-0.6398376018287856,-0.6310659653523005,-0.628801839061908,-0.6337817980328184,-0.6561055393109769,-0.7043052606940218,-0.7764655869782425,-0.8389862020510388,-0.8339464183803371,-0.7553766803634905,-0.6577417533806402,-0.5643147743867514,-0.4601557475933203,-0.32454881936505486,-0.17075298293170826,-0.03766000406678528,0.0492951083021318,0.08889642972858675,0.09765297491470838,0.08469132824354553,0.02431852377858158,-0.16452171873278718,-0.36519164766173834,-0.5040003686818187,-0.5877640679459807,-0.6230317509578505,-0.611366961317773,-0.5498347281037088,-0.43013466125774125,-0.2523481930064684,-0.042875996330250604,0.13992565235438756,0.26620587337625934,0.3431692200039363,0.37960948379975834,0.3787046977311069,0.3374076806913026,0.23678178590461407,0.021112034559857704,-0.17327897877857,-0.2060899643179442,-0.1810925671136171,-0.16880100272050155,-0.19991111491809102,-0.2820602020452316,-0.40997992183262016,-0.5503003843048941,-0.6595873947309604,-0.7270768069948438,-0.7641781364203283,-0.7714610330826785,-0.7368554928307706,-0.6565339430222156,-0.5380671400224539,-0.3789488799923046,-0.16628966343089507,0.052437117578670804,0.20537080896197674,0.26873602920699907,0.25461445027190593,0.20440768308152873,0.19855844597414826,0.3055993516369451,0.4790918219419695,0.5699507502831922,0.5692680207359351,0.5356366446872781,0.4973685653963097,0.4649119387808487,0.4414049858155154,0.4249495252788183,0.39112592945378116,0.25058110169758663,-0.13493954762403432,-0.5372701873279696,-0.6496233143511413,-0.45329137384345713,0.3645095568835249,0.800057306739595,0.8786979169508832,0.8932107908216673,0.8909888022369039,0.8844923974653375,0.8776763859272575,0.870286120358139,0.8647956972502284,0.8685513999396506,0.8856390437762452,0.907401017544624,0.9112408567465264,0.846676413985681,0.6412079601216816,0.31490373763570256,-0.0006137088963600167,-0.2306222629949105,-0.37957139490411806,-0.46622528575940303,-0.5099638311784509,-0.5109825622383334,-0.441127798008373,-0.2596610827437832,-0.044221583311733294,0.06339029938308813,0.07650395684538829,0.05602284571065083,0.03986045637608507,0.04068391548102163,0.05598236609412,0.07666129491204715,0.0970822254701807,0.11762370126600157,0.13781189176807437,0.15878768283765288,0.18325209509404672,0.20952570433604267,0.23874966996944746,0.26490024488520353,0.27746892781955773,0.26890461262733234,0.23867650968130102,0.19351529763929562,0.14746716299400425,0.10817781534924191,0.07213725441352584,0.023137823146284528,-0.06239357007300331,-0.2212407366637723,-0.4464177549099004,-0.64641968151392,-0.7172054164370232,-0.6880362636143386,-0.6499113877229731,-0.6346849520742571,-0.6435786677256452,-0.6707352286344584,-0.6968071923892869,-0.6896903769416328,-0.6379394069364973,-0.6011048945085973,-0.6335065897813905,-0.7201285941482014,-0.7216590709133835,-0.5525477237861989,-0.37772693117377276,-0.2597864829113455,-0.1826726926393204,-0.12238071616250112,-0.0592624197054667,0.019249071980536128,0.11240521157241962,0.20858021409163624,0.2986901484349589,0.38176718234259244,0.4520611042548838,0.5001244235735441,0.5203653874489791,0.5189021226990415,0.5219521031409232,0.5292926864648309,0.4449044177878831,0.27773440952009987,0.1205770792371563,-0.03029523126290933,-0.19262783413398696,-0.35235216844686357,-0.4597523305295967,-0.49776886672506127,-0.49234464575733106,-0.4715347798988084,-0.45446606634230025,-0.4688773102904868,-0.5319082325173836,-0.6221396774403262,-0.6984293813380559,-0.742896291096014,-0.7464413743217888,-0.6686024960887009,-0.3342932566318739,0.3540311726638072,0.7192225829772828,0.8252159357679812,0.847503660039538,0.8227369434469242,0.7486513518971271,0.6484354905993805,0.6400305911313684,0.7692771021343211,0.8858710450920539,0.9328542131201315,0.9388718206168526,0.9080883139544031,0.7442427137447819,-0.1322233516259549,-0.779038676246819,-0.8981463526330686,-0.9301116449944166,-0.9409545600889325,-0.9439091006917627,-0.9423954470934346,-0.9352773365493503,-0.9164328426254947,-0.8682435856554418,-0.772161353939314,-0.680606951052296,-0.6890128723198296,-0.7628615240693809,-0.7996820700896261,-0.7498080022901393,-0.6321904965179995,-0.5117509630521635,-0.4392124119047514,-0.3912807739095559,-0.30536352905635344,-0.12861690010848262,0.1422613558148707,0.4337234895726245,0.6646698844991222,0.8171312911346138,0.9078997077104212,0.9522090332724631,0.96454144869822,0.9627911107641076,0.9592522655121232,0.9580129200879569,0.9586393239497087,0.9595401222399446,0.9581772632390798,0.951770075813835,0.9378263610773724,0.9158090047860902,0.8875282668179446,0.8576719953282069,0.8316576596185344,0.813444885789349,0.7974897946606496,0.7704755279166312,0.7164178910254436,0.6397016835858087,0.5720620184125189,0.5261919731378559,0.504694774577981,0.5035861578260341,0.5202499075966117,0.5427095282732383,0.555046703452633,0.5324211157729447,0.4192617214487966,0.08705567235241969,-0.38481959227189283,-0.6042867580898147,-0.6657919052946666,-0.7136087948637242,-0.7856349631933183,-0.8563204648176742,-0.9026727402494695,-0.9262645363469573,-0.9326192269661495,-0.9199834734366349,-0.8688440207967052,-0.7023716346359737,-0.2844201567001469,0.15553784918841645,0.3583348913197556,0.41595148206547095,0.3958991120103337,0.3002512855784088,0.10877498557344406,-0.08279710635131826,-0.14954410727538106,-0.15430837235411876,-0.16247717005214868,-0.1947872049553931,-0.24012333395166682,-0.2614610681287236,-0.25095934787014706,-0.20105825698954446,-0.12040378662721686,-0.030209206964770464,0.04208010843526895,0.08344844205470196,0.06863929552877357,-0.018674549370705198,-0.16187029072581038,-0.2987078531354496,-0.3281858707181669,-0.30043407492745156,-0.2966370060865826,-0.3250995251282446,-0.37733737513221693,-0.4470783707699703,-0.5201020438861468,-0.5468073373899217,-0.43306827714822865,-0.20382347362367353,-0.0294110600511129,0.03995225118929988,0.00023887747843859443,-0.1584355729325731,-0.41554304809116205,-0.6574904812267465,-0.7948228899341808,-0.8476854774590089,-0.8519410234256672,-0.8349204506696165,-0.8221535841386008,-0.8295140056286002,-0.8502086957501663,-0.8551744055062781,-0.7256015449483477,0.3365417869701124,0.8463055408809415,0.9232543576765426,0.9459275749267336,0.9541037798236568,0.9574736045244757,0.9611931954928703,0.9635434440261265,0.9369281017914285,0.816518488681589,0.5970256369051372,0.37470182621188974,0.2035263668657981,0.07545240598022761,-0.025563346656849346,-0.10934366406635009,-0.1863017376741212,-0.26520293745172885,-0.3394852017554478,-0.3927326677930539,-0.40668083032144203,-0.35263573521517527,-0.18925501401052108,0.08812960902909503,0.35091390410375944,0.5113864979908974,0.5954442546898735,0.6413613727703074,0.665331177814369,0.6644323679704143,0.5949495002880443,0.3718569375452456,0.11108123589585081,0.0026356502658903052,0.01365337391573606,0.07195295853344372,0.12586997548573212,0.16811224180361733,0.20279415695163575,0.23762131908548467,0.25279288552970935,0.22325734452666965,0.0899261660838222,-0.2200904432884162,-0.5524231050550253,-0.6923934135269827,-0.7186713511062549,-0.7022674365960037,-0.6666923137790229,-0.6231421782217619,-0.5810693512116333,-0.5547495415742368,-0.560131979595147,-0.6032449018677571,-0.6617800049214764,-0.6928647445823974,-0.6591133375829407,-0.5793374243879315,-0.5484179906127381,-0.614462300813291,-0.7212611705411276,-0.8037669619764964,-0.8459884800291798,-0.8523396235864805,-0.8165643764301277,-0.7043688754402769,-0.4526813941169716,-0.08876886807107753,0.20679190589872598,0.3697483243211056,0.4447981775684756,0.46620263154152036,0.45808873744660933,0.449883325666574,0.4668095709853908,0.511426691129987,0.5663435981952265,0.611352702469022,0.6341807472550725,0.6343457704465114,0.6160793290621427,0.5862552440232787,0.5516488928842546,0.5173553232373179,0.48064980811831265,0.43077729487136834,0.35672763525028256,0.2492968654474923,0.11806197412037453,-0.009713373423137663,-0.10493940001512217,-0.16640690040828165,-0.20444524842830522,-0.22380949001042516,-0.22765839385390668,-0.21825547665092182,-0.20067054904839762,-0.20508461521988347,-0.27562863748686456,-0.42711518079692806,-0.6173189108047185,-0.782116634030195,-0.8821024789565853,-0.9131540293409689,-0.8886563316006371,-0.8202348008404613,-0.714315422018452,-0.5766843965204375,-0.4058891743601506,-0.1935390051115824,0.044262326791966095,0.2473924325126723,0.37529768464650526,0.4369650360563845,0.4565782896910951,0.44871285379746156,0.42384819179340216,0.40039918043973616,0.3906198778829003,0.3887694982877544,0.3768194895583993,0.3470501912696911,0.3195493330383389,0.3248542732761299,0.3853085594467506,0.5072155988762799,0.6691068677116121,0.814027349058645,0.8980475848062296,0.9231574229631744,0.8985693941279462,0.8342957878294364,0.762266942205293,0.722655298369418,0.7275856062811468,0.7588966476037748,0.791516229129365,0.8074179986673686,0.7954341700634339,0.744438151130406,0.6300991460678992,0.40868538727689346,0.09364344516082851,-0.17492729763196094,-0.31529491548681704,-0.33475234013688504,-0.24856544016779403,-0.05787774892834782,0.20450073236283908,0.468582187720073,0.6776078109511937,0.8157601974107822,0.8934898582043228,0.9259072296402887,0.9114895649467376,0.6521128475426483,-0.616960825976094,-0.8757030814258554,-0.9114308436491418,-0.9091707279217736,-0.886226097122914,-0.8399288478602717,-0.7640078019006488,-0.6569889612342041,-0.5258256423806493,-0.3745573360017701,-0.2060401493166834,-0.030782438000613553,0.12930853379750837,0.25870268354119946,0.35592857245820386,0.42897480469982663,0.48604150730918716,0.5322427122985863,0.566788556695756,0.5815257372812569,0.5648621184247338,0.4789004750878696,0.14487029124892203,-0.570362428764257,-0.7927215611226067,-0.8043687770977181,-0.770499613568067,-0.7031063216148273,-0.5991659743494192,-0.48372973230176936,-0.4113748507037592,-0.4159583084107507,-0.48728622163023827,-0.5925880161407924,-0.6957345367229953,-0.7733731823151159,-0.8213655192599082,-0.8488244109561951,-0.866962628433416,-0.8810911065610866,-0.8860382405383447,-0.8501588931600996,-0.6941505035874933,-0.3683103668668176,0.0007157637019593576,0.2815960914384826,0.4491869057619269,0.5242050590902102,0.551729986912485,0.5678673999493039,0.5927111571183391,0.6490429887667399,0.7642668508982297,0.9215447505440822,0.9139136223052706,0.7387383483678676,0.6193728059423821,0.5603689854076706,0.5282896311739143,0.504267777860063,0.4823304882883414,0.4610381390670459,0.44295248205247584,0.43540162331310067,0.4494819239164892,0.5045712772278356,0.5502053310117923,0.4494466925441687,0.32305605536981374,0.18706019808153906,0.024916660323345146,-0.13567325383707232,-0.25546739216093933,-0.3124328005772991,-0.2954911499755045,-0.1766440522104973,0.07558405642963734,0.41002058869010316,0.6563496198036873,0.7318671504672644,0.6629382541490422,0.5212568501587025,0.3851257718131684,0.28184622097399903,0.18684970035624282,0.041553701816186596,-0.2124188074318015,-0.5131981590305355,-0.702086794369721,-0.7817979220749345,-0.8125498278288417,-0.8217525566722862,-0.8220580688907329,-0.8194982919723117,-0.8164367524409477,-0.8139586767693925,-0.8085398463276656,-0.7924450141812125,-0.7532126863523949,-0.6627917440098817,-0.46415169943320744,-0.11758299433932279,0.23749186599488817,0.45947280940565316,0.5781484070345603,0.6288696978158211,0.5919571877260936,0.5226192040391893,0.4984123964415846,0.523100646044003,0.5793679809751894,0.6499923603570075,0.7184008939457549,0.772187647534162,0.806223415451593,0.8203494061310922,0.8175516666666424,0.8022609099075989,0.7800195090903544,0.7538208980636155,0.7204391313192327,0.6720784421104719,0.5974552361318615,0.4913871015158755,0.3580382940059671,0.22462040334142397,0.1293227087757826,0.09957036504211247,0.12858603541537483,0.1735221771101354,0.19979689009437362,0.20565549087889834,0.21262914234122476,0.2425429557059264,0.29225422410723084,0.3369822838883137,0.35960958784494734,0.35227266341284075,0.28967434486950844,0.13886646142818626,-0.12403726997587357,-0.41728816549894404,-0.6354946498876359,-0.7647436255369018,-0.8379551555787632,-0.8808039706326348,-0.9061251301192812,-0.9167700507624839,-0.907294791755629,-0.8591124401575168,-0.7370902106569459,-0.5447326471130878,-0.3927579344501526,-0.37469274732314756,-0.4848884553649652,-0.649806662730645,-0.7743035392981328,-0.8375582747124972,-0.8584393607396975,-0.8667865852922538,-0.8892021253751494,-0.9229273659736761,-0.9505178533243782,-0.9661112975052917,-0.9729824016124222,-0.9748484778629162,-0.9730798972538321,-0.9654350797377438,-0.9422792803566122,-0.8774178814056689,-0.7499695470035488,-0.6264928179653898,-0.5756909081859618,-0.5803566589874473,-0.6069325745392712,-0.6329195187311094,-0.642005338708776,-0.6177310721783154,-0.5225671348198219,-0.22852208252074155,0.42263628220109845,0.8222970576519802,0.9170367373832645,0.9404679574551349,0.9444463570835441,0.9410539322556069,0.9369274470240547,0.934392547295146,0.9303607851797296,0.9197996516150059,0.8953376259225138,0.8503090934784567,0.7871299175181459,0.7230645874907391,0.6638320896657752,0.5847505058484268,0.4409338175927337,0.19235658372720477,-0.10633620685135861
