0.6412350589685771,0.6289181004446186,0.6362690979893376,0.6584517066624307,0.6810347968904932,0.6921019642422572,0.6890568846461361,0.6792524185135933,0.6736706029977478,0.6700674296230951,0.64215380542042,0.5030212578836117,-0.10711394012373736,-0.8199858082493288,-0.9248571219412438,-0.9039945694228155,-0.793883402917982,-0.44091904542396343,0.126949876201331,0.43942594786897693,0.5216240120593728,0.491301800303895,0.39593995045393837,0.26383051902279475,0.09507724215893511,-0.09907044127349154,-0.25071514776858095,-0.26476373366802974,-0.1339136101842287,0.045932905291236156,0.2790198795998506,0.5328162293459516,0.6016993288287263,0.5598141971229557,0.3526258647359458,0.04176203105293172,-0.0992576538139018,-0.1455345373010927,-0.15587218330327698,-0.15331818840815387,-0.17842182208866614,-0.32882500477548904,-0.5935223549871651,-0.7745362202914338,-0.8526263332140331,-0.8802883556158688,-0.8756037900381819,-0.8212827191445208,-0.6467819677188692,-0.26406319235688086,0.17214868277334713,0.43989731388304254,0.5360408945820706,0.44122359486015866,0.14211548006968938,-0.09614080997771494,-0.1808447844631684,-0.18348553799637138,-0.15537686426071048,-0.11979130737631531,-0.0825742547967062,-0.04966630976376947,-0.03096552705561257,-0.030408917404876123,-0.048272367066508226,-0.07473706290978903,-0.0821954400230108,-0.008957688743745364,0.15843708427159287,0.3007482548075432,0.38443170598091664,0.4353245865375864,0.4662921422958033,0.4835848933095529,0.49930964051875787,0.5256621886757943,0.5594263156754722,0.5816121120189297,0.5608369810224904,0.45481178167632846,0.22711590278348603,-0.019114800302795037,-0.1422565319021203,-0.1345415787934963,-0.015366167572608272,0.17035340545990552,0.3414346520369142,0.45979444890605914,0.5294716886867596,0.5480739169484292,0.49533619293630243,0.34258514761068043,0.09713645631703387,-0.12808611186886715,-0.25463688848228855,-0.3123737691561259,-0.36364130205521,-0.4490833831264671,-0.5525158039695605,-0.6426627887798402,-0.7140006162057945,-0.7726646457003972,-0.8054907085246371,-0.8031884467814414,-0.7751963591422195,-0.7379611483444222,-0.6989948416490713,-0.6465325676548483,-0.5230015177289739,-0.012930489020732454,0.6922322649901791,0.8123635567433355,0.8029181252278171,0.6236041675164025,-0.09368643883033734,-0.5899833478221246,-0.7095638705229167,-0.7326470198882687,-0.7277205569976674,-0.7091735322506202,-0.6798891911011684,-0.6381060118781441,-0.59776010913636,-0.6057007909723124,-0.709717147782907,-0.8525803271736203,-0.9228116777218301,-0.8967947772982168,-0.7418353732075125,-0.3633027758487513,0.12387177698162237,0.4558219094578016,0.6287026162084928,0.7196591959916198,0.7775878626930041,0.8261264221498411,0.8693358989776192,0.9007564963985896,0.9184790402818154,0.9274380670942681,0.9309825048953918,0.9284962356664349,0.9179904328899724,0.9021573040361606,0.8914922095235462,0.8933401494971647,0.9057544201759735,0.9161423384007277,0.9118572921208964,0.8831762383035376,0.81368966110453,0.6738921999632999,0.45248981650093195,0.20418275623832888,0.030129178810360438,0.016631907347790704,0.23074015295301356,0.5511449671342343,0.7512881650916525,0.838658620940459,0.8796005060153489,0.8985016151138568,0.8952068516571243,0.8537417813978065,0.7679566002353454,0.6591179542223771,0.545821344328885,0.43018880942877263,0.3265987664066785,0.27033874883234094,0.2977337138457603,0.4196742743587307,0.5687440042053092,0.6474329061769051,0.637890688156489,0.5345605797816109,0.2403078627217088,-0.42340851356598297,-0.8631153392539651,-0.9522096303620562,-0.9648795965942331,-0.9630898849973221,-0.9533379014826608,-0.9321386002553586,-0.8962009956899064,-0.8521061686222554,-0.8129057721099012,-0.7701739489855001,-0.6826766550638177,-0.4246166190965964,0.3540851436989968,0.8539483352331423,0.9279499504491111,0.9279939878158389,0.9168669024956595,0.907314369281408,0.8931576696945677,0.5175173357190147,-0.853896287264009,-0.884488374140649,-0.8864012383580987,-0.8837192213307373,-0.8822794969726262,-0.8831289072908379,-0.8799519101238334,-0.8648575999185442,-0.8406635911123597,-0.8256217904636199,-0.819965901246577,-0.7939687372689769,-0.6568662880630158,-0.021289878900070097,0.6512748496875274,0.7894356919490981,0.7582251589567066,0.4587265392911638,-0.48797368135463587,-0.8676719825653314,-0.9228718114941588,-0.9000130376367923,-0.7614642213714822,-0.3304399150579214,0.2223451992178661,0.5251544908048532,0.6662216765356822,0.7414753153592503,0.7854246827725554,0.8104850511100881,0.820989586621704,0.8253950325895129,0.8318952653104376,0.8308057961576676,0.8099135940010471,0.7801861216763127,0.7538149701777047,0.7376737400570681,0.7361274212078377,0.7539369153885284,0.7926080206130958,0.8424174419680848,0.8835124226436596,0.9016353285413278,0.9065849931397418,0.9135169927641865,0.9245419209373348,0.9399507734850869,0.9551702108020993,0.9619041473314196,0.9427336423185029,0.8716529008186977,0.6600082869756788,0.02674514332907319,-0.6201650405584269,-0.7889747059617429,-0.8090289777871474,-0.7704450016377496,-0.6946230607605106,-0.6212644078497694,-0.6122682506407721,-0.6795278155627094,-0.7712672421366411,-0.8446355717183801,-0.8913964111744384,-0.9205257909936996,-0.9380217263184999,-0.9320626413474252,-0.8519580834125531,-0.5759937930037962,-0.08996675322900895,0.36718385177047796,0.7370613977897449,0.953756598300749,0.6281093033155494,0.18504543616943406,-0.1368713283719227,-0.3760622711624104,-0.554382507965234,-0.6702967039361377,-0.6806059793306388,-0.3517835472374817,0.42618745352666404,0.7531809520878854,0.823948725296939,0.7624185733686728,0.30561689232781203,-0.5613801402623383,-0.8023298372666705,-0.8441885422113885,-0.8317821243793376,-0.7750953990688173,-0.6220304347460838,-0.21043023248137632,0.39939957684090965,0.7133455514626134,0.8236671765902667,0.8659949398213536,0.8810552084495811,0.8822093402648195,0.8623497932408136,0.6800142431006365,-0.6076684545939423,-0.9347059764964469,-0.972996687764656,-0.9830002648228844,-0.9849809924170921,-0.9763898907200643,-0.9327976403455993,-0.7370270722484855,-0.10888840654512992,0.410524181878736,0.5603373572702061,0.5848282907021197,0.58747277105208,0.6061548482593095,0.6516821410403613,0.7324680561798517,0.830215115298203,0.881680508954057,0.8775744437872384,0.8624734731796376,0.8571531714444278,0.8609472595640666,0.8686025822719982,0.8745714342823857,0.8732020212313426,0.8589677099911535,0.8299791773769041,0.796106947137544,0.7695692223276019,0.7523296781344011,0.7377363767695704,0.7000820971208462,0.5969641890105445,0.4275583735123254,0.2566545937381494,0.1353704572926778,0.07076419993085227,0.06982933161394822,0.04094993834618474,-0.09685730787665663,-0.20778141915292267,-0.3023416529478105,-0.4093624319194022,-0.5350856058397802,-0.6529830202901242,-0.7264020142853023,-0.7573266489880243,-0.7615964381575603,-0.741666478978999,-0.6972576488266109,-0.6176890349469103,-0.49398917244892754,-0.3491384587214288,-0.22266892688330372,-0.12141765839535879,-0.038794994172210634,0.05462266547984192,0.21890781616318916,0.38816964422821,0.43912179084848235,0.4917649246073561,0.591144854147554,0.6626722770403398,0.5381610478654775,0.4665204896579111,0.44420042316460046,0.3168219883870888,-0.16149977186757727,-0.7418353598342234,-0.9076929207941243,-0.930746129014081,-0.9080364530733052,-0.8050323594460778,-0.36143726072438287,0.43375321912122017,0.6984362362879502,0.72463311997101,0.6567525635083674,0.526839976541383,0.3842785773468001,0.2976205715423631,0.272172887661153,0.2589924428302483,0.2298648314939661,0.17008716336105711,0.0773788297060248,-0.048539696204925965,-0.18619665517434153,-0.2963047230122142,-0.35372404097774646,-0.3517047221813592,-0.28416027566960783,-0.14087146114029825,0.08362372601144777,0.3824434167673751,0.6406140122132326,0.6931148842546238,0.6565574604062134,0.6273691485538195,0.6143987757454508,0.5998665009039553,0.5640721453390254,0.5014938223520861,0.42321635973157495,0.3559459019615129,0.2700447107238304,0.08324995421021072,-0.20235067507558632,-0.4556463420223559,-0.6182122062543196,-0.7162620236567869,-0.778760118177117,-0.8284178202733958,-0.8639073716593254,-0.8691838571400708,-0.8504625587563297,-0.824302954998253,-0.8033189153203825,-0.7962051120139776,-0.8060639717481389,-0.8249301339157702,-0.7999013472224386,-0.5384567187864593,-0.04133150975618213,0.14956478827145536,0.0564110074705272,-0.1528214796313279,-0.3825156594488692,-0.5597510674122494,-0.6548688087919903,-0.6583717389435431,-0.5100024033590349,0.041376760991534985,0.7183804166132549,0.8783893418338359,0.8981839039724189,0.89068055801992,0.8758418253530232,0.8636804261734806,0.8595332552040862,0.8616661554287122,0.8638120651200422,0.8544186942414664,0.8206513071928582,0.762117782482792,0.6912777160216947,0.6188551102983396,0.5571497973738224,0.5466823249451614,0.6454502289813489,0.7873041954307476,0.8860833008152933,0.9322131710053099,0.947614347545797,0.9481662363945139,0.9390390290985865,0.9178691323318449,0.8796972324614839,0.8262827308736735,0.7686442312862691,0.7220538360775535,0.6945659742954767,0.6845505843751227,0.6839341024590144,0.6823435098154274,0.6690978828939439,0.6411788969362762,0.601904083679473,0.548947099002334,0.48586207108037227,0.4075729182000733,0.2704314072432838,0.1739522632374987,0.20701747030409418,0.2987013083297269,0.38372969210605595,0.4261962294741622,0.4070268203888444,0.30955392732868203,0.088435989716528,-0.3320601771412771,-0.7538254479008953,-0.9125582987200026,-0.9490780049739787,-0.956050988985658,-0.9522917109002189,-0.9324780880866269,-0.870688831933424,-0.6907307433534172,-0.2714614145756749,0.256457620427363,0.6106822222141818,0.7968840085133793,0.8771414772530948,0.8673592186111105,0.7466996037820884,0.5463459831733131,0.3830476576391841,0.31220840940771644,0.3016210254728386,0.32193880425744864,0.3501884518831562,0.3845408561172026,0.4237519600186122,0.4485910229009305,0.41603279844219526,0.3070921225016587,0.1723577019885828,0.09823303619315733,0.0679795894698459,0.038987977235101556,-0.017427723402700615,-0.1235890421175914,-0.29478045786499435,-0.4985709260291228,-0.6070411227381451,-0.6272991414822253,-0.6366310255641028,-0.6504112371912613,-0.6545743517991691,-0.6202688385078449,-0.4674509350049102,0.04722187561693647,0.6066866234927023,0.7778251354847956,0.8195899886760285,0.8096600161092103,0.7760585521935809,0.8198462344420417,0.9123683339522282,0.9465007216526418,0.9424253830523942,0.9362937242608538,0.9445895497764317,0.9657662709887974,0.9790427801454149,0.9723514919939703,0.958351331125591,0.9518057686624085,0.9547936082371044,0.9651124197970764,0.9776697585551346,0.9867994306968217,0.9901320542865151,0.9884709244286694,0.9782384122561566,-0.42766449065911616,-0.9904319657908095,-0.9934295911493061,-0.9937538577861679,-0.993844730766755,-0.9936849259051025,-0.9919687710232069,-0.9831289552631265,-0.9468166644277136,-0.8351160496477245,-0.6976366367222449,-0.7744276859614759,-0.8916610473683032,-0.9318888645296115,-0.9495966097769772,-0.9611283791974029,-0.9695133553403397,-0.9563244021954977,-0.5055967313753261,0.6792728594686624,0.8737719610499503,0.9229586064880079,0.9338179978899527,0.90081871242984,0.7411724561003503,0.3921025817199419,0.29467605842277456,0.4415410077571433,0.6013486479540905,0.7257879431029356,0.8228975312477076,0.8956079182581794,0.9301978670438311,0.9242128713716535,0.9056840096966124,0.9063724443069068,0.9312232112622262,0.9610898137513654,0.9720805873317128,0.9549273388664641,0.9153462669551979,0.8712314811179462,0.8381485857540627,0.8209010749058842,0.8183032985213649,0.8289171003229444,0.8577953541226627,-0.09224062248336051,-0.7327228033561172,-0.7709788695627597,-0.7715407371742654,-0.744999944377742,-0.6643610563271091,-0.42296577674276953,0.17214414044499488,0.6133029065497876,0.6700964033343467,0.5855518725801144,0.4836327398813918,0.4418780911112514,0.47784279836057647,0.5089239682240495,0.15438620673211625,-0.6736350218110406,-0.9062071503363789,-0.9584804144905521,-0.9759445926975459,-0.9829450836448592,-0.9849494459717977,-0.9821729403468514,-0.9718476122285864,-0.9459775255245593,-0.881358574106561,-0.6796435610388643,0.13386257184897193,0.7445264724379882,0.8366202142633908,0.8851030193142142,0.9319125129769484,0.9583414140265631,0.9579635057155341,0.9454420417927,0.935409012106473,0.9301684584288031,0.9209868802400112,0.9029115068405302,0.8799004895083857,0.8584237129391339,0.8388713894970972,0.8079594459304813,0.7241508016665655,0.5057951075674801,0.14878865292671567,-0.11076985590160673,-0.15217399258716835,0.023658868924737793,0.3732031348829133,0.656065409509679,0.7640192183041034,0.7389644349830625,0.4333544933427746,-0.5694055798934695,-0.8939351966306416,-0.9316629460940343,-0.9348144355510101,-0.9333912039446342,-0.9276575448453153,-0.9092609607499823,-0.8616876118298807,-0.749129641700881,-0.48465170926179146,0.024716887816821048,0.5096313410359185,0.7384889208247007,0.8248940134395926,0.8548984630977203,0.8567323776623968,0.843338095373819,0.8195137392027073,0.789796875195747,0.7612004018738684,0.740057236142725,0.7276554723774773,0.7213876759199356,0.7239630842621565,0.7396767442441673,0.7782969859334322,0.8439212598900566,0.8738781938626374,0.700872451321248,0.345468885602974,-0.019498095179377114,-0.3024469951370258,-0.4683808347756405,-0.5443185995858403,-0.5603595898937486,-0.5308912425005385,-0.4669832874655846,-0.4187513038163486,-0.5007555007081885,-0.7120706528834014,-0.8557642586524754,-0.9047372593503049,-0.9023079080811772,-0.8024293366290524,-0.25598907661038034,0.4109930433673012,0.6004805831187735,0.6393618828278037,0.6397279820618764,0.6338174019681573,0.627085202956316,0.6164041842825828,0.6030976298737415,0.5950438819057458,0.587542826679749,0.588362566565075,0.5923508086898795,0.46821491726557357,0.17126003981688898,0.0036498596237379646,-0.05448858492260951,-0.03445501838790188,0.09560894417624406,0.3473073431602832,0.49125406695828333,0.5141721260255803,0.511791498892441,0.5072852794250576,0.516896899045478,0.5618295692496815,0.48559764983591513,-0.046766026463929626,-0.21757528084609823,-0.28611450330482097,-0.32596744318136434,-0.348074147533767,-0.3555054463495543,-0.34268427702776433,-0.2829808265006904,-0.08210681832995359,0.2218096930358772,0.3241237954630651,0.32830975214918184,0.2994787480715583,0.24917438256073104,0.18135835697245076,0.10113515232664382,0.002401687292683437,-0.10599875518353016,-0.2115600248246494,-0.2944533580503692,-0.351326694812676,-0.39882024210157224,-0.449140979646245,-0.5046228156242152,-0.5579920366182571,-0.6010626717258866,-0.6303037690598379,-0.6510353615669762,-0.672014043801633,-0.7028788229980977,-0.7287356362092207,-0.7134709334342783,-0.6414059187816668,-0.5573837263662281,-0.4971734289427032,-0.4328235558062758,-0.23761199149370218,0.17066877926217228,0.4753165658213101,0.571430169916667,0.5699118598963764,0.5199145187752857,0.4421235153376587,0.3509150586099241,0.2671947057060394,0.2092344652480967,0.1890482652966824,0.1942349279549173,0.1868824136747717,0.12962985314405365,0.010080224903825681,-0.1332459905078451,-0.23881595883367854,-0.2785841917295828,-0.241636718892541,-0.1093248009224596,0.08537688945292256,0.2567725199428629,0.3677281385236965,0.4318498617941392,0.46563328491411227,0.4644099019917277,0.41559251503128863,0.3050532700275515,0.17807951983876455,0.12351184596912033,0.14060173226413314,0.17726883213893121,0.07796733611593995,-0.49408793896642844,-0.9013865971053444,-0.9693080634764905,-0.9828199140573367,-0.9862334624439654,-0.9857658766338815,-0.9794623226091083,-0.9409213380025829,-0.4698830642802335,0.58886151875002,0.7375170784437216,0.7131750371017186,0.6331551975372246,0.5757894249429367,0.6250646364328319,0.7512473217078875,0.8483475985104619,0.8993351095229005,0.9225170814328953,0.9261156458729184,0.9107329377219017,0.8752729617229087,0.8161762110602054,0.7148269138743463,0.47113213935981396,-0.05622330470092283,-0.46045668925247246,-0.5514082212878905,-0.4346670190447274,-0.10723948355942164,0.2880254323774483,0.5320613983569403,0.6386836769979642,0.6697856974333357,0.6588785479421673,0.6181494725193817,0.5594316225527923,0.5232387502716513,0.5657740855283393,0.6843876031950193,0.7945579266097097,0.855719075424735,0.882474081200736,0.8771657988387744,0.8130776843739981,0.6605725778173487,0.4726273646449924,0.3621802531441049,0.35275534215982274,0.412952176918558,0.50157215334593,0.5915778864673176,0.6667295366226809,0.7258635803985298,0.7763470548048858,0.8173584064559737,0.8316293203852755,0.7522196115877199,-0.2705344194215974,-0.9125835046897272,-0.9561633190274381,-0.9651880818560912,-0.9681148592494206,-0.9669786133533983,-0.9530011932231701,-0.8541813489334555,-0.01398575523415381,0.7016272638341989,0.8495789542670706,0.9035442521513897,0.9275828817905234,0.9366000537289736,0.931757273454192,0.9100295369832327,0.8670814903156684,0.7955893120811025,0.6788085837885968,0.47834382914340806,0.20714493846774593,-0.006529317876577098,-0.1168033730547088,-0.16933837573522428,-0.22159298495934016,-0.3214004638028208,-0.44667577396642244,-0.5322166385156608,-0.5135392347139098,-0.3568591220325836,-0.1491499396078133,-0.024414380226296366,-0.016498238154969647,-0.06759343234149921,-0.12914523688830593,-0.20387472260701514,-0.2767159550480316,-0.33737205097307116,-0.41249801127822217,-0.5206248757926892,-0.6164149038308374,-0.485690016785906,0.11412417552930525,0.5817771540018222,0.7963959846920028,0.8807161237889652,0.9074121900062114,0.9169227668652902,0.9282590241324139,0.9406945508984816,0.9391839859690506,0.8697410162477142,0.4495768899036938,-0.3558796993670136,-0.6720139182784617,-0.7789570332817649,-0.8423493532041173,-0.8869504419578633,-0.9093301700921521,-0.9097684441847412,-0.886749910306,-0.8146336606471299,-0.4119662012494773,0.6334115965417663,0.7422654040705172,0.6993708524927981,0.5677853809224905,0.2652920642419782,-0.1954384210746619,-0.5482106560008141,-0.7197375875526585,-0.795807797962062,-0.8297085408836905,-0.8458169074242614,-0.8613121939981746,-0.8872143272927381,-0.9222027484080206,-0.9552037868386319,-0.9783335258460554,-0.9879087711971417,-0.9850734172064205,-0.9705063689580886,-0.9290668465059794,-0.7715198151406971,-0.2840502136209935,0.059280637665357544,-0.11256418970416097,-0.498591750880125,-0.6939240689125074,-0.7130934226671873,-0.5581895900788695,-0.09814575089572591,0.4064878318618485,0.6278589181526955,0.7066623804427886,0.7419595078178107,0.7711397425055748,0.8095316876525581,0.8573776664541076,0.8973923132513713,0.9154258848494891,0.9163835406539115,0.9049652104992982,0.8869719145456889,0.8694639200946316,0.8504305201508513,0.7982334710758562,0.2859136646696248,-0.8726085331278128,-0.8670440969953854,-0.7344270752680244,-0.2670784193572176,0.3816031610523125,0.6158564711038269,0.6618276464381588,0.6563146255626648,0.6407566487332435,0.6339095039905481,0.6396335215243384,0.6512107716335087,0.6613097896606566,0.6725014769921503,0.6922812672218145,0.7265280331289732,0.7676617510257001,0.7907385212860677,0.7694984455079907,0.7158511001253975,0.6656281918397493,0.6357662027978315,0.6272766818766266,0.6294881111525586,0.6065108338308796,0.4611233014926213,-0.09027626407454324,-0.7878442527842122,-0.9546873043949069,-0.9800982921257394,-0.9792110355930224,-0.9701922835520209,-0.957197118658172,-0.9423530243474703,-0.9261134073701162,-0.9065484902346029,-0.8847620749861141,-0.8576233621942199,-0.7404706548300495,-0.23983426686774945,0.17176063198191804,0.3078459202984123,0.3509676500569643,0.36716929561633344,0.3835805844602293,0.41488462313938607,0.4555293113112016,0.4794073163803521,0.46831682748335307,0.3719573952096443,0.07336843389928052,-0.1394610058584284,-0.20117013780142623,-0.19817783402573402,-0.10909460214497908,0.4824897047334392,0.6433937646083134,0.582958083174667,0.6028766015026924,0.6635013459315673,0.7467098021765716,0.822485481636229,0.8426709064554865,0.8104202610159409,0.7808217121150718,0.7784153976922857,0.7940453967448479,0.8183803088233144,0.854797826849337,0.8901573321536927,0.8851948783619633,0.8229535198953295,0.685806675017854,0.34297766326489115,-0.38838666458323856,-0.822174280585388,-0.9170627511331633,-0.9322890946805309,-0.9204535454676317,-0.8725039904192204,-0.7719635230331695,-0.7023163467721677,-0.7144518465044216,-0.7779049149243221,-0.8590868088588562,-0.9299296599916155,-0.9485019812340046,-0.8954263999588148,-0.836061613994962,-0.8227365112779526,-0.8425891532671229,-0.8622599747600134,-0.8684669895397523,-0.8772781851472167,-0.9048034126948167,-0.9425719665335122,-0.9699820326966883,-0.9769262376796087,-0.9640517180990835,-0.9245078276240607,-0.8150414941441518,-0.5693434231790313,-0.3456814897156072,-0.2698945993549833,-0.2626581496211361,-0.2684284373460546,-0.2672740232259939,-0.2586613229174775,-0.23440133409319017,-0.16132158668807525,0.011582074676280144,0.3043911464811879,0.6189166078413524,0.8239996311900755,0.9132394110149895,0.9331020750598008,0.9094707541099556,0.8721965794127478,0.8511301169494857,0.8555959354388757,0.8777857122943892,0.903846379156876,0.9166434639864088,0.9048523408414734,0.8739039900698047,0.8362974016664887,0.8001759103162235,0.7721690922660227,0.7490785122218683,0.724260390748402,0.6974815985947727,0.6750569931177508,0.6654749875466007,0.6769850844246088,0.7115973084623498,0.7605859560111263,0.8108712748870887,0.8470066421352536,0.8623968611106816,0.860457668952021,0.8425298866980232,0.8012008065735434,0.7320497717918059,0.6603778081704057,0.6177221992348252,0.6050273691339351,0.6092063167806676,0.612816773838679,0.6019088843731735,0.5562312301813453,0.39280106185653485,0.022305702382557458,-0.3881327314678982,-0.6562768582818724,-0.8008618074207114,-0.8776329932260976,-0.9165569014732711,-0.9280075180119298,-0.9068125805700279,-0.810003545135686,-0.5189536133681174,-0.034221390437988865,0.3526078578074147,0.5880068923700201,0.7220551448984257,0.7868835289106811,0.7994337289660567,0.7649505956298306,0.6455377556210525,0.20264209816245046,-0.6873764750475246,-0.8577834078125653,-0.8461030881296041,-0.8084679766230727,-0.7552611752213498,-0.6749650212175775,-0.5218484402612458,-0.13195695208194258,0.2545907365436458,0.3133310809735009,0.22785513571791333,0.11997038570241925,0.09324890379859117,0.1835894558329804,0.3556727424712956,0.48377086663595265,0.4807283806518466,0.32889900627269053,-0.07603731238173524,-0.6428189068199935,-0.8880353211753879,-0.9226750339343952,-0.8799091838485674,-0.7470014444069678,-0.3110006391209554,0.6649183515854233,0.9106862292252895,0.9131906353430514,0.9128433952225892,0.9251682962032768,0.9331457151049687,0.9279436784627066,0.9175097858335638,0.8993639325292104,0.8601241708635996,0.7609384199358736,0.31885576118168985,-0.6061637307331871,-0.8553880556686383,-0.9029508501223587,-0.9084304336092072,-0.890419823440271,-0.8408346872587308,-0.7197567774622231,-0.3886081897917989,0.26529837390990685,0.6214341776472762,0.6910802034091654,0.6914120426384391,0.6654065450523625,0.5830272356493053,0.338725970401356,-0.16872182849511136,-0.6286515006476743,-0.8238556491123736,-0.888714932719499,-0.901223437446828,-0.8743144758496137,-0.7517270841953885,-0.3035968128480549,0.33275552306152284,0.6005226486499387,0.6813747684163431,0.7068869396323028,0.721507194218565,0.7380495821794667,0.7552356978514827,0.7622415223060479,0.7412407169225246,0.6735200367783208,0.546962650705754,0.3803000337738432,0.23541762679399897,0.1487104542675478,0.11694767515570367,0.1400407707224861,0.2337977216160436,0.40499304597492364,0.5777726589533984,0.674568549265691,0.7263040216805507,0.7607262293180675,0.7703778970460048,0.7424925334500759,0.652192859329863,0.5231931872073818,0.4856886906620071,0.5649494460843905,0.6616647581223366,0.7328992071381277,0.8009887137310147,0.8710646333660077,0.9118365585273057,0.9113135741350065,0.8183989896083959,-0.003380767356339122,-0.8227824325044858,-0.922559798873791,-0.940677627830691,-0.9408820472616424,-0.9326477383704594,-0.9116326362270208,-0.8791291148307654,-0.8549918881762969,-0.8330086428328576,-0.8052600561393674,-0.7971249018089873,-0.8330396981201025,-0.8885670876455584,-0.9236382478840597,-0.9264838674778105,-0.867793768825289,-0.506309394064393,0.37017829744452774,0.7015204507004288,0.76657975035541,0.734834253384273,0.5959299762518746,0.2557708815506821,-0.28497290915572615,-0.6914401524911323,-0.8638038302173803,-0.9278665016541615,-0.9512357606283778,-0.9571242430777533,-0.9504197108566724,-0.9254809773017592,-0.8716253278644016,-0.7726758840221424,-0.6209810626101675,-0.45400771920923144,-0.44378434771913555,-0.724080115419691,-0.8899387472751801,-0.9201623387379615,-0.9081362229897996,-0.8710887504697498,-0.813735178479698,-0.7636092776498469,-0.7623936540339893,-0.8070225545576685,-0.8586706132948603,-0.8960126092639806,-0.9155097258321037,-0.914405463499439,-0.8655744986618216,-0.5759196320242473,0.4033388936491876,0.8141737943569836,0.8979961458534754,0.9213237578443101,0.9320023629197042,0.9438103244078192,0.9603551903918687,0.9779563214913981,0.986606425425746,0.9820483883112388,0.9734654513076525,0.9685757896734527,0.9661108456335487,0.9636239725016685,0.961230639770584,0.9583762553928993,0.9544977747759332,0.9511776328808421,0.9505418445093406,0.9428204269882937,0.9223034516180533,0.8993213553206217,0.8798002922199113,0.8607466979857685,0.8425029048944094,0.8366090749898701,0.8547832559261248,0.8889382020594611,0.9127323712339582,0.8960947101183314,0.73175845931467,0.09473544430819583,-0.30398590956709726,-0.12678908341378126,0.41245530528013663,0.7610308953351869,0.8772922300888439,0.9137056012730175,0.9190480670000815,0.9080596172195113,0.8841754797375776,0.8405919245919826,0.7639750888950716,0.6662692721860399,0.5914114284537801,0.5472233737614095,0.5045296472735281,0.4560536146148646,0.38536753334780494,0.26512825302092446,0.10099045823129243,-0.0575279792024938,-0.156090213876593,-0.17819615954529225,-0.14299403005251796,-0.08535134929979811,-0.03423457795839162,-0.005279242004073653,-0.0023233991152374987,-0.042810851128332696,-0.2114249374113363,-0.6700645289060675,-0.6285818372372628,-0.591096134310516,-0.6291441364403979,-0.7093228572942857,-0.8150346620117044,-0.9089603620039058,-0.9612173556938711,-0.980273295803455,-0.9835001907149237,-0.9782872287038362,-0.9660756293826617,-0.949019613567501,-0.9299084379361132,-0.8979519167790498,-0.5709703173859251,0.0970681161650444,0.2690509871445908,0.3089362618147502,0.3155571789312177,0.3102843748754967,0.2966726279965922,0.2555913286257504,0.07030056928512095,-0.6393472305103441,-0.8720926913247727,-0.8900169480905513,-0.9138650630877342,-0.9357698721575786,-0.9465382181762046,-0.9359749356414526,-0.8843242633803674,-0.7193620475501957,-0.3328331694289109,0.006295467901753346,0.14399317773927206,0.1964640222022605,0.22315302695021333,0.2246805880605721,0.17330877326742386,0.05896946672027491,-0.07914372205293135,-0.1418097962064136,-0.06443745808651134,0.11634518510679848,0.3007772322566613,0.4365872257290868,0.529787742775853,0.5979163480469909,0.6480079862843618,0.6706992377383951,0.6592004624651101,0.6145250229723961,0.5190996211938422,0.2767760945611575,-0.23407209586631778,-0.6753950831001214,-0.8446956936819443,-0.9025988238159223,-0.9226359966197534,-0.9250833975182489,-0.9151653978288031,-0.8974258709341807,-0.8854167981689735,-0.8960531944738317,-0.9278143467080708,-0.9605329028274671,-0.9770816703780406,-0.9798314070092299,-0.9727449257685113,-0.9443442889385657,-0.5278050046959658,0.9230735772180392,0.9693431590788072,0.9745492443053737,0.9760595868535211,0.9765052440086494,0.97496619440515,0.9691258779151533,0.95978745421458,0.9587219191373023,0.9684148828772252,0.9760769931784694,0.9777666256726523,0.9742517931562842,0.9587227502921307,0.8564602573768544,-0.6218875997725434,-0.9590413456031619,-0.9766898082568037,-0.963733518476372,-0.9078602950498353,-0.6802630731153093,0.062061705600297584,0.6244608291220178,0.7767886084770623,0.7545235750603843,0.4747165268307545,0.08501276094671605,-0.1284736461909222,-0.21817769651412958,-0.24356749483328188,-0.22365198609175335,-0.1695334417659166,-0.09851640247195471,-0.024044304483642587,0.03524122800845319,0.05530860989311093,0.052672133910905236,0.0556923449020178,0.07078020230365048,0.09653213911415544,0.12242496390168953,0.1726788996920731,0.2723544493741553,0.39869442667744553,0.5128588650563338,0.5908560235204132,0.6366096320366168,0.6649744398257782,0.6883573126927937,0.7134973010964314,0.7307354916504767,0.7182236947856765,0.6449427557898482,0.413602276931951,-0.091362924215183,-0.5293537462957152,-0.7291879769339378,-0.8170662116863715,-0.8450269971741065,-0.8035536755161383,-0.5597581358123848,0.08724352702849998,0.5360424611496802,0.6880008002867577,0.7464884114571382,0.7771232037309318,0.8018230849564438,0.8232063083235686,0.8228389987071982,0.7880714733146568,0.7147457401485122,0.614954519875022,0.5293779150041132,0.4876940117161965,0.4792070472629428,0.4628818091139363,0.39123144728200165,0.29482829136160893,0.14983398158935213,-0.18186135762719255,-0.5221311134521094,-0.6713285157123567,-0.6963640489704953,-0.5969662760888409,-0.2509739731578901,0.27041993481420656,0.5574298857175582,0.6751625361425758,0.7414577474484425,0.7962148423610808,0.84976278686359,0.8956832420744283,0.8658984487283625,0.6320111077065259,0.396923071580235,0.3560155726746529,0.4521107753005584,0.5651215255583367,0.6204331847292046,0.6108165436012806,0.5328956399920833,0.3402644468261213,-0.050303302758444676,-0.4680394264464783,-0.6756964024028445,-0.7396067613210614,-0.7579974807778033,-0.7719971997999462,-0.7899747403730024,-0.8008900044156384,-0.7828228921179076,-0.7163994839062278,-0.6150554631475437,-0.520601181712176,-0.44862014291304064,-0.37818071555044797,-0.28454579797714913,-0.1678860799636916,-0.03190824956748772,0.13396019824034586,0.3537689499261917,0.5979849643687256,0.7756191545016929,0.8553912565935843,0.8760436663209878,0.8583019837700638,0.698295187288428,-0.8203825157267388,-0.9910794703222457,-0.9924160714162252,-0.9880094618452632,-0.9786329678228075,-0.953631672649957,-0.8677625024586816,-0.5296132353048937,0.1469974457274094,0.5061937463407747,0.6080139851970112,0.6240818021489968,0.6057731962468076,0.555843528685914,0.4715695180143059,0.37034864655557487,0.28056231128274695,0.20629545423678447,0.11228781139239476,-0.042752001422547474,-0.2688931952089132,-0.5262061105575512,-0.7261604418963814,-0.7962418938396739,-0.7981615336381286,-0.80950996268964,-0.8376839505644406,-0.8709693648978429,-0.9019453443100857,-0.9259133840069379,-0.9396399524573792,-0.9442223613945859,-0.9522046328154895,-0.9664687112466034,-0.9765921851396825,-0.9768756724197221,-0.9428341465870604,-0.5363142555136962,0.6858842908552151,0.8927281151422787,0.9374789767985557,0.9543926873022753,0.962834886006925,0.9666464443003104,0.9678400189680165,0.9679333645783177,0.9678039491666851,0.9691456999331095,0.9739935507004557,0.9809073180049268,0.9851790789393852,0.9865129069874308,0.9855768131145733,0.9684296027157965,-0.6446160733740199,-0.9690823141178108,-0.9833047603674332,-0.9859270563935394,-0.9678378826295377,-0.6333345906499608,0.6808873353321896,0.8704016500083056,0.9038828103259006,0.9113489164856143,0.9095850656562541,0.8976297076721491,0.8707727770522579,0.8326707616880169,0.7938040774560404,0.7616314724513736,0.7369564503900138,0.717567319721349,0.7057904558023878,0.6996962666508688,0.6877671476541988,0.6430125235490064,0.46806537752809835,-0.013932030675974547,-0.4223977893832661,-0.519495390284213,-0.5312847211236725,-0.5832292789518466,-0.7277003160783255,-0.8997939295226179,-0.9809455891657652,-0.9792973151540469,-0.9488456033606238,-0.9128568590121333,-0.8760545659215614,-0.8325509042058163,-0.7527006372387622,-0.49717958970650694,0.21061714756056105,0.6131116442141255,0.6705388704330701,0.6269619107706544,0.5490582148840378,0.4713754165501766,0.42415285057878577,0.4430850320615003,0.5532230687579026,0.6761691129770958,0.7141027820726306,0.722356034444388,0.7198312182549421,0.6901280131188803,0.5244845978432804,-0.2309075252600709,-0.8573531903721472,-0.9449777749710978,-0.9270182393487558,-0.8343745093206254,-0.6766465054442116,-0.5222902491132417,-0.4164772389875602,-0.33817203118043465,-0.20895812309206943,0.10504709720663973,0.48784217413404807,0.5724296076294312,0.521735754831364,0.432693806141475,0.3489235940351622,0.2968534242080807,0.29793858445101046,0.35495159342537436,0.4274705086960228,0.4828482641679299,0.5277267902188585,0.5789507192377088,0.6478930754056077,0.734734054923293,0.8096177455329262,0.8044589978791071,0.732581812226862,0.6939146775048507,0.7211321837837898,0.7865257071684143,0.833428233717511,0.7696649220608929,0.1360272615950076,-0.5843327878710426,-0.6787981137513353,-0.5685498983727253,-0.29052632784032995,0.05887731128552155,0.25641340604140117,0.16248666334006023,-0.38104465804382354,-0.8184078992874145,-0.9097105427299528,-0.9116584707054594,-0.8689565512169868,-0.7630692566055715,-0.5921681006713846,-0.4332115186526157,-0.3583437477083116,-0.3731257087825523,-0.4592635007111179,-0.5982405453803008,-0.7489059838119743,-0.8076423206113909,-0.6727923753099747,-0.39705796685649436,-0.11877928834208198,0.07981471892989972,0.1875203630173153,0.21896491291051223,0.197372225144397,0.15444582112438837,0.12714374994105815,0.14632905559948892,0.2423458186814822,0.4258681353146366,0.6210755471185071,0.7520252441488878,0.8187821446763652,0.8407546991373055,0.819864140972733,0.7193844347387718,0.42709920781790306,-0.09015651999323471,-0.4658541350517594,-0.6326256189034425,-0.7228393870828979,-0.7898421637878713,-0.8425474554123074,-0.8772963425694774,-0.8948663331935349,-0.8987775502863791,-0.8902562542754989,-0.8652509445787088,-0.8071263918983191,-0.634111442657564,0.07598775325746274,0.6221198351712535,0.7021498111784485,0.736475772142599,0.7888248564900424,0.8465245443877082,0.8771133165309757,0.8709576241012182,0.8480693150063829,0.8259049921515993,0.8091964578982573,0.7988052505514665,0.7934977587197085,0.7942072550846097,0.7997465363448271,0.8108877449591647,0.826405564592836,0.8441475440916651,0.8620504030998201,0.8788206506776232,0.8923094580003399,0.9020061611927085,0.9085234427279316,0.9121255072842491,0.9109945945079094,0.8980747931068462,0.8559848023910441,0.7487247658240763,0.5747743692317054,0.5271820695105813,0.698183146104422,0.8418994608575218,0.8947170883702591,0.9156814519918367,0.9304733679932602,0.9458583729606346,0.9582725024294455,0.9468991541059847,-0.8255970745670169,-0.9781456561879777,-0.9823720395190132,-0.9809540179961214,-0.976223137897183,-0.9660053465541103,-0.9442792685688449,-0.8997820581428532,-0.8229173122749189,-0.7375094148967264,-0.7241020967377815,-0.6956186865760381,-0.4983649689165741,-0.2829732123685553,-0.11543386729835736,0.017127354279976095,0.14963502871991155,0.30524036767187135,0.4664831312114495,0.5933254448463314,0.669446094104185,0.6957229370388571,0.6897841104334671,0.6789200369564142,0.6866775044863308,0.7277598967629964,0.7817303472219542,0.8206684481192597,0.8292563058076176,0.8189543965680927,0.8093242898309182,0.8065039907784601,0.8101019174333532,0.8155630074911723,0.8173878382851494,0.8123503336731203,0.8055517810723019,0.810748212118345,0.8386213896043164,0.8674422710485225,0.8709992794856632,0.851463013077605,0.8319332007755208,0.8342110746955779,0.8652798097531688,0.9080119419949798,0.9163203920343499,0.8403371977809154,0.6839323248693407,0.4713136200637753,0.15201430589283818,-0.2909271555793282,-0.6373963713025391,-0.8118812993409608,-0.8970088920217136,-0.9414473748568376,-0.9651677936207577,-0.977374377764134,-0.9832387049208684,-0.9855887865511561,-0.9852606649171529,-0.9819007624919343,-0.974079415523316,-0.9583760720411438,-0.9268271212711156,-0.8636653976225456,-0.7472555744299534,-0.5967015142622847,-0.5385098768392775,-0.6649863497973505,-0.8357947215734011,-0.9288076972055803,-0.9662898838655591,-0.9611527065243146,-0.805890325957202,-0.06130665248344676,0.5749421504988387,0.7817393179333373,0.8640883771601775,0.903255949855077,0.9215438755584215,0.9280673880511782,0.9304891045643743,0.933440298226532,0.9366936608849171,0.9403515584831447,0.9438564666248009,0.9452864462839401,0.9422161265676973,0.9311458685637493,0.9127333947961999,0.8942404473362343,0.885138729451383,0.8918778617696709,0.9173263610897169,0.9532333061465814,0.9698023809616501,0.9362723766524036,0.8770506734455255,0.8417428897421716,0.8298480696146335,0.7693974133027591,0.4510399739960454,-0.24261495447734457,-0.6006652780626136,-0.7178198887427303,-0.769419339971055,-0.7936670656951043,-0.7952994315603589,-0.7657833682661987,-0.6715725065840746,-0.43160134350082924,-0.029309120894949085,0.2914600757618593,0.4059351910151377,0.3616236648138822,0.21714337064056444,0.08135145435181451,0.0982047908154439,0.2733036268846866,0.4607792423810518,0.5734305082766449,0.6299787090884287,0.6638339075220129,0.6751632980917732,0.6484334005328473,0.6470141034237566,0.7043155777530192,0.7602586735018798,0.7859655663612702,0.7964764506081593,0.8042145523879373,0.8153874764803457,0.83177598629684,0.8498368050641022,0.8681367235585766,0.8844625189684168,0.8939832188411369,0.8942183977505436,0.8845566052855883,0.8633751692185003,0.8240245808486181,0.753638882537635,0.6274776366470456,0.4461080216711754,0.2896374602245503,0.27206520115166694,0.42858912937648724,0.6506359435573635,0.797529938950412,0.8694882657424848,0.9041899506224172,0.9211416036228365,0.9238095522474703,0.8989479122228579,0.7550401547756542,-0.11007389368270737,-0.8122332106819372,-0.9255067546766415,-0.9537455691719547,-0.9634611184894591,-0.9656691473254307,-0.9613200215044602,-0.9498907287790772,-0.9353392655696562,-0.9210735151504368,-0.9042027971225746,-0.8782008026264583,-0.8298678600773495,-0.7368369422367231,-0.5737503369027227,-0.3713301452594095,-0.31214063136681125,-0.4634204123906985,-0.6375665035799535,-0.7687844601609052,-0.8617897205618023,-0.9213914364684306,-0.9554290994031022,-0.9722464712686333,-0.9777213121711767,-0.9735334908043838,-0.9536192539357848,-0.8820228757245191,-0.45497382894584054,0.660612068503539,0.9186449282339757,0.9622408117704263,0.9619637786792357,0.9518202916582928,0.9576918581469623,0.9661481874629715,0.8842880711764792,0.7253949139896784,0.613953253781489,0.5780543962032494,0.6019334797109644,0.6726721599613816,0.7703719782500924,0.8700444784843115,0.9399970340813594,0.96274913229134,0.9504834967240867,0.9255013907637849,0.9024110251549824,0.8880814791254804,0.882500768632131,0.8784516426866587,0.8689940134329346,0.8536152877702567,0.8346559031110659,0.813315460698457,0.7875516390514521,0.7509698695075213,0.7017280682997172,0.6520079900897531,0.6204037208247817,0.60995146275157,0.6188868627724485,0.6429341921398725,0.673262851322121,0.6840315966080767,0.6277289146099748,0.4665518813955069,0.18635084212323455,-0.21863342314293902,-0.5748571561237198,-0.7483364572228677,-0.8129805437029904,-0.8289143366304011,-0.8144347940380411,-0.7622056628646664,-0.6585696916007059,-0.5391130549307439,-0.4970280279838654,-0.4677809920717077,-0.2494266287030007,0.29503021856326583,0.720327719832813,0.7914594402109923,0.7828991917966035,0.7662815743091043,0.7541888252739194,0.7464568350067761,0.7349421663935585,0.6682022886274093,0.40467149981571787,-0.14310345844620556,-0.5100522213365685,-0.6060498595053425,-0.5453390002472959,-0.3357221140412903,-0.0997412960999788,-0.11554295701846695,-0.3246056062267416,-0.49694743361138705,-0.5791226105098071,-0.6036702781220592,-0.5864493230007521,-0.5303952177372153,-0.41581771981151083,-0.2250704949200971,-0.0432159841293443,-0.03421417899967716,-0.3066352198719674,-0.7465677586544665,-0.9364669245206102,-0.9723920080887422,-0.9734126323816891,-0.9609826910990081,-0.9169738626320963,-0.745585265260513,-0.24338249898559858,0.2390762945862809,0.39362474285234517,0.3829257962418395,0.29905580889492084,0.2184599498606018,0.2070537162468674,0.2666149808325455,0.3509553400637286,0.41668864201076683,0.4340499180378901,0.3895051828916055,0.24914098167149948,-0.134615655193823,-0.6938801113213428,-0.8427494141501858,-0.8757385127945665,-0.8949925863753122,-0.9078396609567643,-0.9136133944520661,-0.9088149129013551,-0.8755549195076829,-0.7225680233212157,-0.29996090924981766,-0.01558948229426744,-0.006261952024734561,-0.0800828204678231,-0.08867255516693583,0.07855708155573095,0.32771565258959123,0.49668009005055436,0.5871927927152883,0.6496286629833945,0.7046768938386294,0.7493952706217154,0.7647853888933007,0.7520807006185707,0.739843548930109,0.7493403321341222,0.7808789122551565,0.8230688508945818,0.8631124967030015,0.8932491781124547,0.9108921783038441,0.9165816559828734,0.9125795144350319,0.901825392798774,0.8872388755379024,0.8712191870649721,0.852377740589772,0.8240203543081585,0.7818515467699236,0.7359223962379272,0.709599476853932,0.7110340353390577,0.68174498038732,0.0933709530365913,-0.4985516769515808,-0.6810970936974985,-0.7617697608860186,-0.7989984725053563,-0.8078183003044749,-0.7916364722709197,-0.7644995103296759,-0.7433006686155788,-0.7351167306788823,-0.7422611954097528,-0.7686871735989854,-0.8116042584227915,-0.8600701779378604,-0.9009731200899536,-0.9291064064572335,-0.9460316007025384,-0.9535699789023898,-0.9514562762038443,-0.9331570631433854,-0.8739609800017187,-0.6981294971273735,-0.30021371089991233,0.20760531392561854,0.6037953568108682,0.8290577229460581,0.9006946034600024,0.9033216746626148,0.8962555099685291,0.897083619203888,0.905759811110448,0.9154010361954841,0.911402446546495,0.8729770618004092,0.8079759518726527,0.7559385534293634,0.736522718652764,0.744361976570728,0.7702936457146379,0.804605064958124,0.8370631909792932,0.8570353989639383,0.85914248459505,0.842208215335702,0.8191384692850067,0.8065382279799295,0.8037992554673639,0.8018398491193425,0.7985508791307507,0.8013981853832071,0.8220516983966327,0.8698780694460095,0.927500785337991,0.9182521827945542,0.7850203720025277,0.6087957695115502,0.4768792222244311,0.40052386297353115,0.364860021015238,0.3569941771880877,0.37073743409853865,0.39695683320761566,0.42972620795184924,0.45937854186940896,0.48096184711202283,0.49419710261535,0.5035036758012621,0.511625218682912,0.5070781367196991,0.4708474301744716,0.38046543821885687,0.16749869810232096,-0.2152659627407375,-0.545820615606324,-0.7198112614763865,-0.8057296864477521,-0.8493279011910329,-0.867929308169094,-0.8658579223147802,-0.840975484453604,-0.7792684796220836,-0.6548185317081104,-0.46662381204761966,-0.301631883073493,-0.22949532453316163,-0.2169831247504492,-0.20059488354694166,-0.134235403968677,-0.010485699918677264,0.13474381561975743,0.24553152789282962,0.31076440028063257,0.34585907388131815,0.36407307793685184,0.3687916212257957,0.3607557398728221,0.3425699168777764,0.3062206452297659,0.23625811945900738,0.14458374148924114,0.08025467310739953,0.08635541150102499,0.18796881708279747,0.3982019937147175,0.6316874235004859,0.7760249055802649,0.8506889520226554,0.8949994807605158,0.9233485255693848,0.9412907644586794,0.9511424184334227,0.9523856179370188,0.9308103489725947,0.7419038027385831,-0.5752486690321956,-0.9040757688387451,-0.9456867224940566,-0.9552086571515092,-0.956328620664961,-0.955185702671892,-0.9546920384253504,-0.9537752842127867,-0.9470953750320709,-0.9160297288917981,-0.773293678331344,-0.15035161643710632,0.5714948822028604,0.8014165788347029,0.8685331648186617,0.8834334319911264,0.864500081022559,0.7765630746736774,0.5408523501677176,0.044599112294343296,-0.5772957493656714,-0.8813321480928027,-0.966655747208044,-0.9863400101524182,-0.9809591944166591,-0.9323534122451537,-0.6671102795514421,0.1817818446318752,0.6956400901960994,0.8546741385254052,0.903692081645588,0.8988957480047972,0.8651456706003592,0.7986180409819174,0.5807284156175553,-0.12583111173366027,-0.7332947026472114,-0.8984772782522568,-0.9412573489051496,-0.938862942917527,-0.8666989338816343,-0.507712574775245,0.23486273179834144,0.4445873317102587,-0.38245197881228354,-0.9102825084996127,-0.9611166715591586,-0.9743765043422877,-0.974603808211218,-0.9309075430875876,-0.5849065207011928,0.052632409980511614,0.10406621126587993,-0.1969235292275044,-0.5069629277356419,-0.6536704026895537,-0.6544276629443462,-0.37392121948983625,0.6310022162137712,0.9344086083012518,0.965930272853818,0.9713214514363977,0.9759889784219065,0.9834301877274145,0.9887669744845597,0.9821356055306939,0.9644288199817413,0.9498517453643411,0.9452723721677669,0.9434988199270621,0.9377210396526929,0.927228780964089,0.9135969987441976,0.893872718056545,0.8346792486567535,0.7218969849782058,0.6131473340378264,0.538527019485797,0.48973523463403484,0.4522486927764582,0.41632656136380086,0.37432877678084053,0.33799500208065,0.33881247791230396,0.35743430456273384,0.2931581843210894,-0.03466049518956158,-0.665238092288401,-0.9093346444472568,-0.9433027770884134,-0.9404942656568744,-0.9265943493163212,-0.902668702937149,-0.8660250913662804,-0.8184370803255845,-0.7611058130742051,-0.6937258460048656,-0.6065952425733128,-0.4702048779930109,-0.21425159111149386,0.20021725518666503,0.5380182333473374,0.67548488983966,0.712100170588901,0.7152161751219811,0.7072744658368955,0.6975474439415523,0.6951758849372837,0.7188443059247684,0.7779946359209717,0.8484141218399597,0.8885016100307029,0.8870675329341382,0.865836849705603,0.8493416470353556,0.8438378367962703,0.8439918983814064,0.8372639493199823,0.8136065448931038,0.7762613023013436,0.7371381443186587,0.698856334386428,0.6571815307141493,0.6037453333211122,0.525263861175868,0.4010672968381441,0.22982191966483992,0.10924862857312592,0.10233279985047994,0.16374342185804838,0.22493059410311872,0.2217393769385623,0.1549170692792858,0.06732882931709229,0.0031835691717737946,0.0013224965216022135,0.06998226028333737,0.17339361086199243,0.25540847987703524,0.28363926863802275,0.2693649350880299,0.23084474945092426,0.14878275298209845,-0.03367995335873499,-0.3142359179803398,-0.5088624006080897,-0.507340521820207,-0.4037880122312779,-0.2920918330360583,-0.2078952990391579,-0.15512803735813352,-0.11999766373105414,-0.07333278954557006,0.041856212937077766,0.31372198431608384,0.6833596149408262,0.8846012714318444,0.9393250869375267,0.9467355569040248,0.9224336317228667,0.7293750613594691,-0.4639529534064772,-0.8787127881789729,-0.9438188919193884,-0.9641281412914156,-0.9720530546758109,-0.9741565577747523,-0.9714260229207984,-0.9625871866133757,-0.9414760352305663,-0.8227301449455179,0.4903917595947922,0.7290494791311085,0.7083498067980838,0.6340420966421145,0.5046808089915493,0.32792782678689447,0.18592235404549678,0.13787781339713093,0.16223058661485126,0.17996428043707013,0.061104958388335955,-0.3829790414254732,-0.7364063525292306,-0.8483750641351608,-0.8927738934539903,-0.915946359122668,-0.9271738177226397,-0.9282011406928964,-0.9179013784242422,-0.8849005882577783,-0.6588386944073359,0.6817724507779198,0.7332045185696188,0.6926980956840288,0.6404868972152515,0.5606728162420759,0.40189149552617565,0.11123275999945992,-0.243627416625266,-0.4789328306199049,-0.48419149846949344,0.08060986253439618,0.6709394054646006,0.8055763452446756,0.8500807619459728,0.8783918825231287,0.9078246514792722,0.9377724684345166,0.9429680162060672,0.8876243261955322,0.8119110702240339,0.8018404586399778,0.8680937966800535,0.9461199743521139,0.9746570899286227,0.9595072400760308,0.9312547222122152,0.9059049205381937,0.8874269625418914,0.8724933377222832,0.8617998112299207,0.8602788869790621,0.8742659201193441,0.8928951838660516,0.8943327619374869,0.872861671860376,0.8414050430440697,0.8104962182255777,0.7858726022212582,0.7750645679628986,0.7836779805830417,0.8089200825909243,0.8346624886944874,0.8310883925127233,0.77800276767565,0.6634096712173926,0.4743374145471328,0.22069668305368112,-0.0231981217707383,-0.18335661041497944,-0.2558239515168722,-0.2751562399116895,-0.2756420487853686,-0.2886657265438723,-0.3273378659271963,-0.37612856065059885,-0.41677090137862,-0.43004839537214146,-0.4045445956468831,-0.32097256969093424,-0.14756698134647347,0.13551259548798508,0.4419517368966862,0.6228721519517258,0.6396403323637938,0.48830899823946666,0.22150068945594414,0.02790668021016186,-0.05287101711700187,-0.11166729643056893,-0.2236432265180724,-0.413833534189392,-0.6129249331695401,-0.7315611836965239,-0.7638001899835689,-0.7474432559413756,-0.7209125899195521,-0.7083440221870921,-0.7207759487206566,-0.7592828695992955,-0.8085294493450376,-0.8490079817391193,-0.8773509309501535,-0.8889881236909637,-0.8803463916342036,-0.866214627777596,-0.8617787743723835,-0.8774466878949336,-0.9151286755525234,-0.9536600742822035,-0.9736459645767472,-0.9783603199051811,-0.9728007155329063,-0.9451270566953328,-0.7510675557016734,0.4206667500685913,0.8021786408343647,0.862585892588544,0.8776016812171402,0.8729397677005777,0.8435059002343844,0.7916098465847492,0.7443370375954772,0.7363139454375144,0.7686152148757645,0.8214080822430688,0.8735686096256565,0.9063094910712592,0.9188508051598067,0.926764154755094,0.9355990680353148,0.9431597187331954,0.9475697910694247,0.9417489469126217,0.912060199429251,0.8395022138339229,0.7084885131161561,0.4552717368687612,-0.024746886687884325,-0.3798869932122216,-0.4959548329811894,-0.5272135676758547,-0.5393530284444175,-0.55395009194079,-0.5846259102328645,-0.6343861269265718,-0.692951731740726,-0.753797948567726,-0.8193807686104593,-0.8847583235495923,-0.9339618120071892,-0.959735681300248,-0.967298475883073,-0.9608425603757055,-0.9314231982452769,-0.8639752018209844,-0.872083443479954,-0.9283620314081489,-0.9555302013738818,-0.967923056966737,-0.9746471341227142,-0.9785486038016326,-0.9805547535972324,-0.9794783960884313,-0.967619399088702,-0.7850038352059313,0.8284052673357816,0.9102839286414185,0.898714232168765,0.8757261164596261,0.8558590698441081,0.841136105365347,0.8283740065954516,0.8129685110651685,0.794858051546555,0.7778032336489363,0.7654985085513908,0.7584424804576565,0.7506934045789175,0.7367674940135539,0.7185946792592107,0.6956670941568908,0.6666451836419486,0.6356569068509312,0.6116650832544772,0.6041598902226626,0.6176754787581339,0.6550338322823347,0.7153682437630285,0.7977443264439741,0.9022718165787114,0.8463145384946976,0.3255672908832781,0.14703908509917227,0.27023293328068587,0.5721841440999788,0.8420884992861957,0.9532213657636467,0.9826949448658686,0.9871376838397297,0.9729737589641001,0.8186173460803166,-0.6648974866866477,-0.9316918994690556,-0.9658865231882952,-0.9765691318979685,-0.9803056326051979,-0.9673493424317329,-0.7779240454501036,0.10018472149266318,0.4464634492725188,0.45238284029177017,0.3522765305671165,0.22552462327709732,0.1359269982687789,0.12321100508067892,0.21449281440146364,0.4178321607773867,0.67390433044561,0.8597581782794582,0.9369868258753291,0.9587475497676299,0.9690801301229168,0.9802219793340352,0.9520551285225552,0.7983042617696215,0.6298465765210306,0.6238643112432902,0.7530145053692491,0.8480313522113885,0.8256888901587548,0.7265757305224424,0.5672645621505669,0.38374079713553444,0.27438593903218816,0.28253930390242943,0.35311065059997576,0.4243825696673489,0.46859285659505917,0.48179009227243097,0.4697988416645183,0.4310989245125088,0.32462759794231993,0.012130450900679839,-0.5118442086805881,-0.7823597124562484,-0.8616452861167178,-0.8786670610964741,-0.8674117458262163,-0.8332637860438531,-0.76213660600337,-0.6133264930106844,-0.35861169646126273,-0.0829748611057027,0.10419909000503527,0.1895614013312489,0.1938620792513945,0.12077626727688495,-0.08076050109566905,-0.47643756449001673,-0.7308929608594892,-0.8155282942373077,-0.8590052030987388,-0.8815138972921759,-0.8879072247374068,-0.8781375441115544,-0.8440857674265384,-0.7716076444316633,-0.6668857379360447,-0.6102126046453924,-0.6603366638723145,-0.749864069511016,-0.8132217309363052,-0.8390363713786408,-0.8120293473349188,-0.609455297305362,0.21022082262832736,0.7642279339570429,0.876644757994802,0.8882049112423666,0.777345901712849,-0.28518840904375625,-0.8672694780058032,-0.9071655923852958,-0.8237855190180638,-0.39615417100251016,0.3863252724561557,0.6860874739903672,0.7465723332417519,0.7375785074444184,0.7061888747942984,0.6752927419695957,0.6584758558405485,0.6601331251702751,0.6876353079803751,0.7482767138250956,0.8355223713863043,0.9149014948137519,0.9459327679687407,0.932330006539819,0.9006066722208642,0.8623393205801111,0.8211309364948656,0.7835773195677583,0.7515927314862634,0.7131562280179335,0.6383901373505385,0.4778230085070502,0.19185852489645475,-0.16596207472034624,-0.4425019507213491,-0.5793460734355059,-0.5993153886301319,-0.497236290402649,-0.20699162726773346,0.24006881283860212,0.554051193954723,0.6905318308739822,0.742876856154143,0.7586858923608396,0.7620089399345682,0.7703791386352395,0.7934859983228498,0.8313374065372479,0.8359291169258208,0.6976344965065038,0.499740728831977,0.38602656139885416,0.3603597452812514,0.3757423051158425,0.1486550362189473,-0.4083819188908355,-0.6387548668285433,-0.7422951269261505,-0.7610519079201189,-0.6334032862706385,-0.08047779484386071,0.47228499285892295,0.6389492627927724,0.6929160475251407,0.7308371179036979,0.7687535410047176,0.7907081924996088,0.7614534185499465,0.5062702526813958,-0.5317008117268475,-0.8921949748762077,-0.9328081504166632,-0.8932557046531358,-0.714903101754605,-0.33153164657728185,0.05441443183426416,0.2848548040420132,0.4036257424768963,0.47283479761751807,0.5286522560659375,0.5916777297612162,0.654463606561739,0.6915179528275649,0.6825347233255805,0.6309800090331728,0.5312400313184177,0.3756119314440595,0.19269186982524913,-0.015911682313533244,-0.29654448523437726,-0.6065490202985436,-0.8079446838774668,-0.8968784307524178,-0.9330980939100794,-0.9472939906245068,-0.9500855899776335,-0.9430581812183453,-0.916735869517988,-0.8089840597464624,-0.13310057565089808,0.723969957863681,0.8488269715405251,0.84825935653966,0.8299110645569526,0.8406631404872907,0.8836748297205113,0.8149212717921185,0.5408668978512212,0.21527922128754404,-0.018463718343486476,-0.09042669924584681,0.0161776755186119,0.30614904222181727,0.6365556056999861,0.8352155589327948,0.9169617713835103,0.9487142225507079,0.9635258951582522,0.9614121525829524,0.933043587982025,0.8927887362888084,0.8701431769583756,0.8702382656340149,0.8768328066720821,0.8796474278864098,0.8775631225661571,0.872370057883124,0.86338308862131,0.851309258265713,0.838246197423038,0.8278961869782708,0.825476400398909,0.8373556994990239,0.8618394553270877,0.8805954380197853,0.8808406192102104,0.8461318810575991,0.7073251557514707,0.32661341886754375,-0.04515541082463505,-0.10877965695438785,0.04402027982797626,0.27743900180187664,0.4712360065565342,0.5796766339129091,0.6163507494721648,0.5916263366871161,0.49464469529069693,0.34762828880843416,0.24596903308427917,0.21959076512364636,0.1811226928871551,0.016174336781814975,-0.25065515210868206,-0.4242776760897639,-0.4388556118722603,-0.3121360382576619,-0.06712912151032713,0.2264747481602823,0.48176389535003006,0.6670416822324,0.7815641527282438,0.8291106027768275,0.8209310948688843,0.7858808375012949,0.7587894298589377,0.7611547189730972,0.7809887786865376,0.5227221814766282,-0.10087159308254207,-0.3500267215909702,-0.46150515014019783,-0.5346951559135078,-0.6030767752831949,-0.6812242561693471,-0.764342780300904,-0.8335152491560911,-0.8770733858532497,-0.8939662355852764,-0.8768315816602757,-0.7543488067054962,-0.25510211639566993,0.285403272112081,0.4480934976034395,0.4415224537073783,0.35627172234967347,0.21333105435967467,0.03549636396685194,-0.1258996311613431,-0.22416989171688867,-0.2466281399832734,-0.2067194730950891,-0.12844208702698537,-0.03570179402261102,0.06445490908592195,0.1738180101495518,0.3056835800444991,0.47014951019668944,0.6228902660179837,0.6863865128113765,0.6164157889772314,0.20149454524533325,-0.6771960829371535,-0.9098346438178595,-0.9469312520539221,-0.9610147728768099,-0.9716833923323922,-0.979940004005079,-0.9771555198721764,-0.8823451235453887,-0.11473617410274796,0.5974521521390294,0.7551997375772428,0.7555118993932717,0.6307124162706023,0.35395586714413163,0.06613891608129081,-0.04335537765191385,0.003095846103771961,0.1309640242477406,0.28156540964201193,0.4078014042119123,0.4793722721523987,0.4858043023638215,0.4193825458535698,0.2804356488078183,0.05139326193862431,-0.2888879562549494,-0.5930230732271297,-0.657410507044084,-0.5920912865376132,-0.506638523641458,-0.47330415317505226,-0.5437867886320256,-0.6719374237935221,-0.7721311916388239,-0.8262032582672082,-0.8396371421692436,-0.8007265454606041,-0.6572853509728414,-0.3254338536104806,0.14884582180903172,0.5357825356213011,0.7563941278637855,0.8590445366926174,0.9004483287343946,0.9171245875319366,0.9237133350655007,0.9257532171128389,0.9270396831116816,0.9296634086437312,0.9313101890068125,0.9261794140631351,0.8905803106177356,0.5465833367420048,-0.8781565136241075,-0.9759416315450841,-0.9778499417059412,-0.9539062309925567,-0.8650454026525914,-0.5579542853334464,0.027006878003356268,0.4161517387448914,0.5721244429328455,0.6277563433209521,0.6407077577103778,0.6314491264692526,0.6118307521887048,0.5963085158138038,0.5901282809690191,0.5810755628427451,0.5512700869759466,0.5183983298925695,0.5052841779977261,0.5062884675483944,0.5040001092182135,0.4972311339825483,0.5000937337893614,0.5327443964021906,0.6023041866390659,0.6988846186538488,0.788942663427081,0.8428996916557645,0.8552433494395237,0.8262156066981116,0.712416841257929,0.3520662501728975,-0.268323017538735,-0.583821004585907,-0.6116074278770784,-0.38388100882967463,0.20670650790575115,0.6525445784310515,0.7873530220164405,0.7869316735211932,0.6792973725611985,0.42889516381007664,-0.06609709749158228,-0.641051064942497,-0.8901168868582578,-0.9647091081084134,-0.9877570300708193,-0.9914032625971546,-0.9773580212881054,-0.9193735433027657,-0.7196795379575072,-0.26246153287119767,0.12812420186119247,0.20155561203706732,-0.07385769645191853,-0.5948557185534027,-0.8578237098282169,-0.9305980486162144,-0.9542855527815006,-0.9664347544131137,-0.9737358958616781,-0.9723491458502522,-0.9461042281890707,-0.8479164219758195,-0.5718755633410441,-0.11251967385223648,0.25777879138684295,0.44307783490217534,0.5020110037274388,0.47287471061731706,0.4060263935557526,0.34437765942406817,0.3092109002901432,0.3050582603309146,0.3303693483339447,0.37458024351802083,0.427225381261039,0.4856752993255852,0.5595125220532079,0.647497810822149,0.7376425823789009,0.8164942365741393,0.862419877563989,0.8225619629234164,0.31845358017162745,-0.7130056518335357,-0.9124036429600231,-0.9511520330961134,-0.9497458508054027,-0.9054087090367146,-0.7727697943162577,-0.513712965882123,-0.23003934066226042,-0.06843745455478309,-0.054853993099174936,-0.14997040075599938,-0.27322073086013615,-0.3458048295561152,-0.3355807801687399,-0.20459891543039574,0.07186613486262462,0.3905536561262258,0.5781242545889744,0.6153644371410267,0.5340368569833696,0.4073199072495448,0.29130772010880973,0.13825020758609485,-0.13443529121076475,-0.47813843930053257,-0.7104695005274865,-0.7827698889865771,-0.6537054624485075,-0.06851636943163572,0.5438002750887576,0.7914064914187995,0.9006351322377248,0.9564291001234307,0.9800569330732125,0.9860452584591989,0.9863216988548421,0.9868974173976103,0.9881534869658707,0.9877930431262978,0.983722633139322,0.9658924232983318,0.7185590919263918,-0.8928708399611001,-0.9639772425191331,-0.9601882171416097,-0.9294489236821851,-0.8593140059375568,-0.7478981639914875,-0.6457604905053819,-0.574748709677557,-0.4650676358547572,-0.2463030978918853,0.05065649213450513,0.2897757623297742,0.403628267236247,0.4005085917407257,0.30596284656995504,0.177472218805679,0.09830900135574386,0.10545293034514779,0.1768222203787311,0.24210577282095097,0.21097047267042174,0.007306563554424521,-0.33087393941500365,-0.5880434661350229,-0.7052596511323157,-0.7118170633811449,-0.5675992553243548,-0.1722997711818315,0.2381068462988969,0.3973440693270296,0.3659241113932799,0.21074750739310968,-0.06749695568698083,-0.4551934577513444,-0.7502353876461332,-0.8766269365434102,-0.9206364936658818,-0.9322724213612668,-0.924251612006516,-0.8885582742007816,-0.7798865471915994,-0.48281988232942485,-0.025851898498190216,0.2777420040277831,0.40826353740260374,0.45737523716768685,0.4774063436705911,0.49810314737145506,0.5412207092748539,0.6120640050811313,0.6967313876958404,0.7661799496240185,0.7980425450915223,0.7839084131309083,0.7353141105696054,0.6860369670868187,0.6621150401254111,0.6668390965651841,0.6923837532679905,0.7068260531463628,0.5865731744491686,0.25008043871149427,-0.018805394645477043,-0.12470595519312119,-0.1293228653589492,-0.0894734606720152,-0.09353315330657053,-0.23725337396355684,-0.4841971290073382,-0.6478146543950553,-0.6974567095168881,-0.6782726821858263,-0.5923953291578753,-0.4028116120017867,-0.09369316780471365,0.203782596258501,0.36286135596237795,0.4024133797200243,0.36514353265774296,0.25040553655046394,0.016701324229541178,-0.28265854290393344,-0.484981267116381,-0.6051639732050632,-0.7020140750803481,-0.7808032409107778,-0.8341611030953746,-0.8553105938241483,-0.8240944934787615,-0.6469684963275069,-0.018182355150099985,0.6203605817556186,0.8119553464728808,0.8589758449478162,0.8488792926454951,0.7762457736170861,0.6259081810898561,0.42927902994211187,0.1670705402585367,-0.22467148263516132,-0.6032776983825942,-0.7946515834500238,-0.8514917891093083,-0.8454885345367666,-0.8043851383820396,-0.7315320187892562,-0.6012672393673861,-0.3415298322925515,0.06331791894537718,0.35573485904780755,0.4592884661949293,0.4752080592356158,0.4583630496428824,0.433096521376705,0.419546524109378,0.4196098199250812,0.447858385349732,0.5310832106829845,0.652607004246374,0.750290669531832,0.7986747958096231,0.8133927814714388,0.8116062444544832,0.8061544274188255,0.8118385462334764,0.837974527867386,0.8731392182972307,0.89246539526371,0.892694039165305,0.8896119566450255,0.887780232698672,0.8827049756344302,0.8704609089216948,0.8470152551860521,0.8091115513542201,0.7554611941436237,0.6812196680062913,0.549657342347855,0.28980188460366413,-0.03274131927370653,-0.26173631994183916,-0.3764321555005648,-0.4125949251875926,-0.39439634603452706,-0.32694773478974415,-0.26173715333508357,-0.33262081073907906,-0.5626549702796936,-0.7575729131305221,-0.836097775102653,-0.8496373527047393,-0.8208738092065802,-0.7311916482041224,-0.5066565531214525,-0.04517271743278442,0.47193479637510916,0.7603958180247479,0.8908079066013429,0.9412434764393244,0.9336240586323861,0.8962602100734517,0.8303735404368158,0.6138267510612321,0.15492568427569584,0.47678241427157986,0.8306223866884215,0.9303842555177548,0.955778508967724,0.9609300269709373,0.9557269435624451,0.9371209555247246,0.896549499157344,0.8460878567150141,0.820133559233851,0.8196118183819989,0.8347309360707308,0.8704426798845477,0.9292714422934341,0.9549655628764185,0.6058085930707643,-0.19911305403119578,-0.6540001931732908,-0.845760856393306,-0.9273103484616656,-0.9617899267926157,-0.9752899227374909,-0.9780562748403592,-0.9742489840309329,-0.9665318213691502,-0.9589625176260745,-0.9555580207588102,-0.9548243830134475,-0.9509506382920744,-0.9359263200641649,-0.8921125246097479,-0.7451269529624948,-0.15435863177970724,0.6455508060790548,0.837562655617079,0.8451723624077101,0.8044612050195201,0.7483075026216707,0.6815620221341597,0.36143094480446614,-0.22886783740343175,-0.31889087733229976,-0.25471057762618954,-0.06390208760025419,0.29754028136171085,0.6800887139406508,0.8466434479394837,0.8937252746973142,0.9088058769567633,0.9137332219445012,0.9152064038933151,0.9169227413432236,0.9150220460040556,0.9002251862648246,0.8711218293072819,0.8402334522324559,0.821511777384572,0.8173400749275395,0.8188583638132738,0.8158267097030558,0.8041920607750899,0.7829587306828627,0.7648934098842481,0.7574645812024444,0.7545929127167975,0.7479244270449256,0.7402292085658972,0.7365906126695975,0.7387989088019076,0.7411682226601061,0.6983814126888139,0.4749350556074807,0.14361049171901716,0.07129823312498085,0.4277628116257515,0.8742513753759555,0.9180514459265422,0.9055508921792128,0.8881524693208405,0.8498333402317574,0.7667387563127589,0.6291465626366846,0.49686412225590537,0.43655074441158165,0.43569857696030784,0.45737240034798216,0.4745407349558458,0.48535001605883643,0.48697791390287354,0.4761168983255345,0.4550873860206873,0.4336299419343502,0.4296260507674446,0.45323193231678627,0.5104487385418255,0.5916320500119258,0.6432758539355834,0.6306544132239339,0.5668933913081119,0.4423310324403312,0.23250659913308805,-0.09209929780566517,-0.4414836004506459,-0.5315879932063949,-0.47756952838373296,-0.4256581422794692,-0.4094156397772434,-0.41668060274487817,-0.4197578051809427,-0.40417521015907193,-0.406006913770844,-0.46141970629435064,-0.5789272069333622,-0.7157928767137206,-0.8155519771617837,-0.866582670946267,-0.8769067726647551,-0.8363359334615199,-0.6741209705130626,-0.2901050857241329,0.006208132993017396,-0.07279027399300568,-0.37022788927696276,-0.5722871515073732,-0.6575009466967663,-0.6912778509587143,-0.6951589104049253,-0.6647046778997757,-0.5944832581645549,-0.49657112825970734,-0.379359679195303,-0.24783289278711973,-0.1308319104596532,-0.06051969808228811,-0.02979372876397401,-0.010195112228600577,0.004267591838706951,-0.020047781572513062,-0.15154996288049705,-0.422370848349589,-0.713176546476859,-0.8760586634958049,-0.9376567903267854,-0.95377101815581,-0.9467466189685526,-0.9150634237235773,-0.8272278817982469,-0.5971674831692181,-0.22046265664311188,0.06942406578872555,0.15854877343665094,0.12011423473056562,0.05935568894897091,0.013031754632387297,-0.027420787890656332,-0.08065475627896712,-0.14187073829069988,-0.21673399067951413,-0.337921050049975,-0.4977581748091232,-0.5824567316779853,-0.5977177393454494,-0.5777959865253579,-0.5228139135042924,-0.41204824440962,-0.2155775774348592,0.0760077557659931,0.38818735134805166,0.6233640273598315,0.7662470792631453,0.8472497689802707,0.8897675909302437,0.9045575685930606,0.8999801647837687,0.8693425249474261,0.7853434079945644,0.6048370866599742,0.3708473919279965,0.24653782078730693,0.3068953258266027,0.5089439691527915,0.7274914860531904,0.8659091009021799,0.9271585984496364,0.9424503512284217,0.9314363886946003,0.8778185323656705,0.6069894609680601,-0.257100336749349,-0.5824386773621453,-0.2878207359119025,0.595797327983428,0.8961093545811334,0.9490571904215448,0.9487033047292206,0.9100404727100183,0.7293815783898446,-0.28694721652334343,-0.8752016181438443,-0.9550786967082194,-0.9746250236047177,-0.9812642989454912,-0.9830744112891755,-0.9809754661091196,-0.9706698517476856,-0.9320781888244046,-0.8086469762682282,-0.5937029130415431,-0.39947631718199306,-0.17043750050571466,0.28356464471949355,0.7287498263559906,0.881244054856373,0.9224676351956035,0.9317059987705403,0.9203106844925176,0.875672423510867,0.7771760888570179,0.6630099464873713,0.6439820330864237,0.7217212072156142,0.8004536869520438,0.8404633462979834,0.8520637637701807,0.8474798046029798,0.8323377611587285,0.8101488864336095,0.7859871525062008,0.7670367493676534,0.7609451259391111,0.7668356739727844,0.7751770387197642,0.7795861055313332,0.7827533829124779,0.7919302168892076,0.8176201126841607,0.8580833991543237,0.9009243784207209,0.9290499284504881,0.9308248906460896,0.8560123405462796,0.17491415963910492,-0.7513396067444051,-0.8964195385324567,-0.9231316956557323,-0.918525307551446,-0.8920069295275231,-0.8377079031439197,-0.7490656400563678,-0.6202490815941487,-0.42938510835857285,-0.1537077112938512,0.15922454978915312,0.42179586031437355,0.5914635031132613,0.6873298214626994,0.7433687630892343,0.7788551479588313,0.7951918756523156,0.7903411840269448,0.785827876496311,0.8035397145236174,0.8470286087554161,0.9063011960504272,0.9527631848677852,0.9711676132766788,0.9714065371390411,0.9676248262743308,0.9650895748532109,0.9631758609640964,0.9617099855673182,0.9607925947864994,0.9603176665800254,0.962362352534637,0.9638551227824592,0.9177125339466701,0.46780998330962076,-0.40352233289356093,-0.7009361471839682,-0.8059883677168362,-0.8629092722242512,-0.9000358410589422,-0.9247111958882179,-0.9403169802051272,-0.9514105025210255,-0.9611658454862964,-0.9702857298448447,-0.9773568682039413,-0.9816572236484519,-0.9832067074042262,-0.9824084208833184,-0.978817072426994,-0.9723819997737027,-0.9638552437687714,-0.9548359258863617,-0.9469289287486005,-0.9374403420361663,-0.9047598670100021,-0.7525635505714589,-0.3784191079666558,-0.07013864284182475,0.05443235683637518,0.10292491681213588,0.1662795806939252,0.3065066511064001,0.5717113578735019,0.8231549071730712,0.8969785657520395,0.9092465767576081,0.9201456353367473,0.9281053465958032,0.9181473084564246,0.8739766794871653,0.778310923350807,0.6352691505868677,0.5006639319548994,0.4188312773504326,0.39123040792227026,0.40724828854940326,0.4627142913030426,0.5497869757078429,0.6435981958453566,0.720932216494211,0.7742583267184812,0.8038620348718066,0.8185070012191558,0.8320193257558107,0.8540235544650104,0.869717593255913,0.8499377631572188,0.7976637857638111,0.7435102609071901,0.7076180694902957,0.6963677009713753,0.713269673297366,0.7566778190371313,0.8234976803950985,0.8944119156925638,0.9206836169470046,0.8766095621707612,0.7962886745824831,0.653431460227092,0.1993462392117479,-0.6819689265556187,-0.9436700721386793,-0.9835614287905425,-0.9890861865580318,-0.9827421156221847,-0.9472062091634632,-0.6830804384251006,0.3684218624395855,0.7446874781182393,0.8272967954522696,0.8574094437067259,0.8678531554672534,0.8532346233998748,0.7554865283154173,0.08684210459847819,-0.7796395470983641,-0.895968305482012,-0.9116144011758568,-0.912198446521705,-0.9180912478578065,-0.9298207670559763,-0.9368404373471908,-0.9293578558569128,-0.8946996251534461,-0.8096621598726205,-0.6509174923718831,-0.44711151611133193,-0.28850441701626134,-0.22740652167870715,-0.2988981758362457,-0.5230241705267704,-0.7741389856995802,-0.8764560389558873,-0.8650561587536258,-0.7866525832869242,-0.6285808872145668,-0.33581044665799237,0.08252681266049496,0.4787356346196212,0.6888921381973031,0.7417593454706422,0.6913654553798361,0.5439600157060965,0.3263544443092382,0.1610958400771141,0.12412589391196144,0.21615461401909433,0.43984086391558636,0.5330568331941723,0.4120778599515112,0.31432269364893284,0.2602420084246365,0.24181096776980396,0.25663692692351203,0.2981050303615975,0.3578186232500451,0.43015215837220394,0.5161666401912953,0.6243389993668123,0.7503179076636588,0.8459554139182727,0.8619687530612967,0.8193502109540698,0.7603711440095291,0.7078815071762709,0.6707462843844327,0.6496724055546914,0.6415999319319093,0.6476365225112872,0.6627955698283279,0.6871540454338938,0.7212076836590106,0.7579253700883762,0.7862447741673206,0.7946483274243963,0.7780428007239579,0.7358352776813426,0.6507489289192525,0.41486376945056697,-0.36408421211173947,-0.8749228189689411,-0.8629580037890272,-0.7159495899876719,-0.3934177093768006,0.10103325355068815,0.5182776990782099,0.7494778015375512,0.8672913852171594,0.929423431164677,0.9370609147806735,0.8512337207932449,0.6402341775076089,0.3408662822997968,0.024913282230363754,-0.21402826976775022,-0.319717922316299,-0.258925718864078,0.014577912079531182,0.3909174576753939,0.6208408578621191,0.6942041596082641,0.6320331181720269,0.2189289381105176,-0.5549958694183825,-0.8366708570432384,-0.9100220222354722,-0.9370995051299138,-0.9508573996772163,-0.9591957221746666,-0.9645211415021536,-0.9671253344105845,-0.9661248916022274,-0.9552185138403295,-0.8544618259945322,0.5744807465836245,0.8919356584760175,0.9283976613007313,0.9405942257654467,0.9371630339651744,0.8396083173526511,0.11359259946984025,-0.49752982359239073,-0.6139592426065665,-0.6019111233334105,-0.5155920959257769,-0.3327129982848301,-0.04039472314311335,0.2693891503700588,0.4558412371575529,0.49756550319341003,0.41204357660246665,0.2387687212396284,0.15501849472320584,0.2885941719848327,0.5255647789660015,0.7036918101937142,0.7984507601902572,0.8449237876377981,0.8658758928540667,0.8678518219486767,0.847859600654232,0.8068798152927268,0.7658608525516943,0.7486543791685926,0.7530980556406279,0.7585687794634934,0.752759019886999,0.7391362206152429,0.7227960151093257,0.7087060106001362,0.7071555030741343,0.7183726461600425,0.7309352132354295,0.7365622117317743,0.7377724204341478,0.7352413669757778,0.724830761926564,0.7065430357076279,0.6885122456522552,0.6937273358748951,0.7259303734657231,0.7523808555773372,0.7559779473198884,0.7420328058113704,0.7154397433572526,0.6789920476941546,0.6359433900500748,0.5782202904338872,0.46230046567484406,0.19833217486744698,-0.12563643509161834,-0.28067623406352993,-0.31775532112211213,-0.30734927777165216,-0.28867612663605935,-0.2811206861657708,-0.2945043604165341,-0.3319083576414364,-0.3897508979105009,-0.4638890297162902,-0.5437760927028158,-0.6021209506794213,-0.6100490184130095,-0.5832025249524474,-0.5353446683851713,-0.4549379920980748,-0.2943613505421613,-0.04542017847580017,0.002540354991458537,-0.029435679338655166,0.007887906586867551,0.15974631492004496,0.38065730489569494,0.582424784974419,0.7252555303396344,0.8110957400108083,0.8436644764347684,0.8297772610035365,0.7743584637206861,0.6887534072548102,0.6015771253020501,0.5517195585346365,0.5630932143404911,0.5895261066569049,0.5827696677588329,0.5123532973054005,0.3949693522315804,0.2980631024599709,0.29255155029097313,0.4075543549038096,0.5880597456246595,0.7259876350175104,0.8068637516163893,0.8512901012172641,0.8630610781787567,0.8251644977978834,0.5873799494507099,-0.2570002510042704,-0.7745104339209657,-0.9061070748377599,-0.9490834771721134,-0.9594720067680808,-0.9373591995799214,-0.8300116229217143,-0.5936756373305125,-0.5476232561183577,-0.7657039832976817,-0.9009609491713374,-0.9414701004474757,-0.9479798828761413,-0.9302665084642783,-0.8019445494883427,0.5406892760260236,0.9345292873102736,0.9657566500338051,0.9625248280949024,0.873314502303746,-0.5802207088761854,-0.9432358486086542,-0.9757626667667061,-0.9846034857519526,-0.9878352774680562,-0.9887677083792176,-0.9877796869718912,-0.9836266251377204,-0.9735762510308352,-0.9531300524113202,-0.9053238476317015,-0.7621544526241744,-0.46499859985873454,-0.2914620541129669,-0.3702774472400219,-0.49872139852629044,-0.5841446904005008,-0.6310849938482215,-0.6290264263891878,-0.4816415006147507,0.033880534578556463,0.5271695212990694,0.717485952755867,0.7945770620749989,0.8366071949440599,0.8591042783701327,0.8636462309477902,0.851736617596494,0.8264870401400193,0.7698732431192641,0.6283790315862041,0.3798426547434771,0.2808459617901724,0.504639797897893,0.7623468297702223,0.8747236495431494,0.8931547484211954,0.7712163226628252,-0.2530383469088828,-0.8375131310046127,-0.9136248714017711,-0.9290709903685509,-0.9242555788322001,-0.8837605937312083,-0.31715736424629964,0.91651407240378,0.9589644800538721,0.9604440884752192,0.9536777046215738,0.9400972593279229,0.9200148847034151,0.8949356806348624,0.8698344714060989,0.8502693223436435,0.8392867450375634,0.8379588652832918,0.8497544778673249,0.8763131360498784,0.9132299202998253,0.9453811824419334,0.9476310593068547,0.911487190222488,0.8555807123379964,0.7996525766917723,0.7502972481180695,0.7014608247916578,0.6238480600490429,0.4208968764974316,-0.1374709764097888,-0.7032956760489002,-0.8642835662120706,-0.8894905475412452,-0.8711934084951588,-0.8160676483538093,-0.7050978213229597,-0.5374451190913041,-0.39605878344099116,-0.3859077853690863,-0.4780819478994327,-0.5716845402149161,-0.5938408721427385,-0.49878302828922233,-0.20739675802839447,0.2642016766436695,0.5748610204078884,0.6699836250883703,0.672187551635969,0.6412215025479644,0.6053899148909696,0.5807544946766254,0.5726821499674652,0.57942637011279,0.5925889582463193,0.6004311628504502,0.5908901024648754,0.5338219711760263,0.3500782578915961,-0.019702706899061388,-0.33712778003863353,-0.4233890383046637,-0.31438103617225904,-0.005117010957466097,0.37018616044237596,0.6025611535305377,0.7195816705865122,0.7822381064487478,0.8170542104788071,0.8284140769704542,0.8126131453506439,0.7585436292896421,0.6486221794936274,0.4925409132278709,0.313455945245226,0.08331785072475098,-0.25226365051076177,-0.6040840878946578,-0.8038260822328668,-0.8855572589489178,-0.917368022834755,-0.9302408490163075,-0.9355170682884231,-0.9385095618430062,-0.9416601315101712,-0.9425369743816794,-0.9347771633848485,-0.9040035742451835,-0.8378302036603927,-0.7571389294020725,-0.7192564584267407,-0.7489577478156155,-0.8163839424505861,-0.8848488826723838,-0.9364837780922511,-0.9683977495919541,-0.9825861185403912,-0.9794941600183126,-0.9422428801498028,-0.7599225331814042,-0.06109267234019829,0.5460173920023508,0.7305676513806552,0.789995435084854,0.80260969401124,0.7809427147707031,0.7298307761573375,0.6647061187742337,0.6218657447045497,0.6389029860961962,0.7003667547244654,0.7589066279658815,0.796854237517677,0.8173774325758695,0.8248607728343746,0.8123118374373781,0.7592104903349609,0.5960529813656567,-0.08481286803866794,-0.8705041092227511,-0.9464831368284895,-0.9401145255285382,-0.9255445522541267,-0.8986385598786324,-0.8117330913310873,-0.2032994639378826,0.8067214574657552,0.9416502486123265,0.9682436064144393,0.9775164540744367,0.9820080844014764,0.983115488501421,0.9810008534342131,0.975039788186471,0.9567415715498636,0.8531180224274011,-0.24370770039499656,-0.858247356105492,-0.9041083135691577,-0.8615761314255084,-0.6738744563627345,-0.11519051774627298,0.4517020606409863,0.6652789380435616,0.7207516783822823,0.6956312226008052,0.5924796710208802,0.4432654006084057,0.3353874167076838,0.29994329713753465,0.30926233243291756,0.3327722585453343,0.34761945069718875,0.33535855636012657,0.29479001559171464,0.2391200731663625,0.18375597566786517,0.13364940316856705,0.08065047543482785,-0.009867095310879401,-0.18497997440851507,-0.44756312228588085,-0.6968545149511083,-0.8478742277219706,-0.9184347705799897,-0.9421247760752685,-0.92316588826962,-0.7195400342964443,0.4914286788332343,0.858738116872428,0.8816829993976153,0.8374435677699299,0.7277378198755579,0.5233937111755813,0.2693804620766544,0.1238437900221181,0.15673017989238358,0.2747585960945475,0.36210864365996553,0.3873958875872271,0.37048876049870516,0.3409775103761574,0.3248332151076337,0.3323292682996513,0.3460395602692474
