0.001973299517979257,0.08098406481825624,0.21816110402153052,0.3689045956809473,0.4521693631295054,0.47057028270291884,0.4497478692825467,0.39981342481193977,0.33913626177692596,0.28382482631331324,0.2404297339268163,0.21164624627108047,0.1944664957453582,0.1861847141209912,0.17495746874320794,0.1529431460205822,0.1263330846114031,0.11986929972887515,0.14868505760386985,0.19904249162152643,0.2451521651550291,0.264467525939621,0.2568398487488809,0.24363299971068705,0.22049220935251607,0.18221442846030994,0.129533921466042,0.06956767537890479,0.013474171255790627,-0.05108057938130877,-0.12301377727152618,-0.2006088818274193,-0.2604036945413271,-0.2898225044516796,-0.2916357567359593,-0.2740249333524306,-0.2513206027648828,-0.22097269060330013,-0.17036443134985907,-0.09259821933228944,-0.006036922266434855,0.06462634378773913,0.10595060504936119,0.1259126433871648,0.13058397948964617,0.12302749438344628,0.09022599110088056,0.03249299855335102,-0.02356531672267564,-0.04897606138321988,-0.03355169628064371,0.003849497991913513,0.030662825319224003,0.022090256622705202,-0.025947341914915992,-0.09884060348940908,-0.166124168906459,-0.20894238546754543,-0.24279469275268012,-0.2931395774503327,-0.3542306024293581,-0.39653175639355925,-0.398710609472304,-0.35704161346740393,-0.27467412874214303,-0.16623659361646625,-0.04887753837175078,0.051042083440483534,0.1307461779263244,0.19806041520841666,0.2591156231309175,0.2944722936271126,0.26623127623999165,0.1847371152228716,0.09674890415327228,0.03757591807279959,0.020619757234636556,0.05817887656907248,0.13010922798950736,0.20886617863197945,0.2824571625917264,0.3565965144670687,0.4188931560865132,0.45710660824143295,0.4690311301311231,0.462600539228664,0.43893673641077247,0.3922105599374463,0.32930071643991854,0.26857506362196326,0.22466969774682133,0.21370506532309663,0.2317968239631066,0.25928015422427686,0.2790062214730608,0.2863492428846777,0.2790044768761433,0.25903924148492036,0.2366121507608135,0.21990525468565528,0.21810076217418814,0.22878485149974193,0.24783718760640294,0.26826852448266275,0.28640720418034377,0.29262865636042484,0.28723627079414815,0.27661380960261495,0.2521532589406669,0.2142317855475144,0.15980435069507828,0.0617328774640851,-0.10902264681590709,-0.35031166432786764,-0.5953256979600002,-0.7669264804894292,-0.8466896093117682,-0.864058675866958,-0.837646040325247,-0.7669431702034384,-0.6446607137899072,-0.4741223039246411,-0.29014664058927064,-0.13131458735179538,-0.020571089837701548,0.016368241143275102,-0.028384306830333036,-0.13130762644597133,-0.24798692972996333,-0.3299820220465418,-0.3719618416036765,-0.3886647733968446,-0.39082146687451297,-0.37879716679340786,-0.3575278290418619,-0.33078168925025286,-0.30175215885240964,-0.2756155232727416,-0.25081927477521304,-0.21753459153892707,-0.16633042205536686,-0.09912011510362786,-0.025014243031035943,0.05805626823181721,0.17220291509578228,0.32254305263611344,0.4745620007695573,0.5922426209157319,0.6693878340423844,0.7038905210874855,0.674318315369612,0.522119767804432,0.299336870177495,0.15373621574580967,0.10152585919140483,0.0993053324586508,0.11305881552934277,0.12248923118405673,0.1112220375779161,0.07590977240921849,0.03041199063721009,0.0001893887149486286,0.006626486565731296,0.0490490421870159,0.1040508132671385,0.14207400726211153,0.14878821881470278,0.12697769024967867,0.09376821752044961,0.060163544014211326,0.0375590357271496,0.03086228045593007,0.04468750760702782,0.06380638136674288,0.08521263283434102,0.10758751330934241,0.12468212361241306,0.1334361692124088,0.13219060437627497,0.13374812151461088,0.14525564769705468,0.1632871740190394,0.18606080390785193,0.20594956693410288,0.20411645619749982,0.180373267382282,0.16773303032084316,0.22030735052860506,0.38522555308517115,0.62198700288056,0.8101454182808201,0.9035254316276847,0.9376925321985984,0.9441842597012992,0.9355797291793471,0.9112833890803058,0.8556853355400916,0.7238158337593694,0.4357323074996745,0.010383033571978914,-0.3213355797525352,-0.4905070049385752,-0.55807391998651,-0.5726724563237309,-0.5563876193787354,-0.5261281721413185,-0.48932159951581355,-0.45045612465960705,-0.40479899283558474,-0.3443981610603872,-0.27656018636375124,-0.22195985014558728,-0.1991585170001555,-0.2214348542107587,-0.2721515603216794,-0.3129877679836658,-0.32581381510490887,-0.31759829319528643,-0.30197107207503493,-0.2875068693442549,-0.27725319717271163,-0.2793655599197552,-0.3025354674262445,-0.348615982609681,-0.41612416736692903,-0.4941588531242682,-0.5462613342180872,-0.5229250231581927,-0.5015249688639233,-0.5529279736629739,-0.6583260225509936,-0.772311874756322,-0.8423749977207624,-0.8309302740601068,-0.6904099832226247,-0.2677601885397176,0.2649671477325134,0.4799234634160119,0.49803701931436045,0.4208026821950241,0.25239878373870966,0.019440687816492823,-0.17907005251972563,-0.28771824650861566,-0.3160094718873236,-0.2814340227051455,-0.2029351607460578,-0.1166106314075006,-0.05211585897926697,-0.01756111969073683,-0.004798517148320243,0.009953347486816352,0.05437531981244526,0.1366206824386918,0.23064336526017565,0.3100915804664482,0.36634410172150306,0.39497550931925446,0.40236929308833486,0.392748376783192,0.37744857304963836,0.36301949849430565,0.3488867464517419,0.32402624608309316,0.2860736396377192,0.2517112538510186,0.24001538632819697,0.2480584898075266,0.27049723768493067,0.30034878131933124,0.34072442645306233,0.3913087722337209,0.4398452896726212,0.45116395145096877,0.4020449912729516,0.32112628699513807,0.23960318733530261,0.17084406960050083,0.10559415419811646,0.043284901465088434,-0.01521791572921341,-0.05578739627180672,-0.09270195670536668,-0.14432463678078747,-0.2176855326294437,-0.29112525180527976,-0.3169723745914539,-0.2938354908142485,-0.25118045637951747,-0.21000327280536996,-0.18336675285039494,-0.18057245953417636,-0.21297487067254234,-0.2794786518171241,-0.35152266165425694,-0.4038905035568601,-0.4300091617585368,-0.4254941076400363,-0.3729425002884085,-0.25254350988528945,-0.06907851655465243,0.10160944066410763,0.20394072088958023,0.20922179098461674,0.08471677641298896,-0.09017619686614653,-0.1987572936153077,-0.24336822389208515,-0.25935831008901683,-0.2656051286470016,-0.2664179793848615,-0.23515688520889247,-0.1258134427126017,0.10769082731464084,0.40555786134241845,0.6200506536422352,0.7365770186408157,0.7946831412801443,0.8167391479726789,0.8136460765370761,0.7925757837195095,0.7583424004908449,0.7179648253722758,0.6939840833824504,0.6981814890462184,0.7257586612240937,0.754395994379727,0.7724119265245867,0.7780886508484867,0.7782493791587215,0.7769842181213836,0.7772344805656017,0.7764790571692287,0.7638036994178047,0.718680159202711,0.5889004735039335,0.2681497963883617,-0.20689190730027637,-0.49532166907808434,-0.5724221952777054,-0.5436400835349998,-0.45966451692268834,-0.3468122645409447,-0.23546740280287942,-0.16277456333987073,-0.14070507564553114,-0.166115758605779,-0.23607925953015338,-0.3380655371414128,-0.4439832077742716,-0.5170685097670796,-0.5342024348019695,-0.48862251852672384,-0.4108831392437522,-0.3461753372623499,-0.3094779593483463,-0.3018668047611158,-0.3156483444494024,-0.34059218701696914,-0.376440505459255,-0.42569444348636715,-0.487384077845499,-0.5542753647169878,-0.6039740794615052,-0.620887335065531,-0.6144799003885121,-0.5958620787933897,-0.5727705966532992,-0.5437039140715878,-0.5182972050438484,-0.5031557443651027,-0.49663104356220333,-0.49007744782018814,-0.4674370105686324,-0.4217579221554645,-0.35008999698370774,-0.2461815103289671,-0.11732721761647748,0.007164626391948216,0.10653544676022528,0.177147665213079,0.2217419886836139,0.24625071444915692,0.254358041212558,0.2630469086608942,0.2871768646607107,0.32843607664191543,0.3833821863761769,0.432300508348979,0.44783461232423716,0.4065825241593027,0.32961749192530726,0.2566767866990671,0.2083669368772929,0.1884580002733867,0.1848467663564738,0.1902998709760523,0.2002065411327774,0.21598532712864224,0.2365492680549918,0.25637693602769274,0.2724360724953705,0.2803251210782591,0.278953947538627,0.28515113755367716,0.3036084584967116,0.32833499681967687,0.347813919051084,0.35555516420702954,0.3554283292910402,0.35690971601467036,0.35891526058168755,0.35729112016683395,0.35426525665207403,0.35511094698951173,0.3563833661299171,0.35350620354957724,0.3436900624833717,0.3332298432866864,0.3227777917468129,0.3031389839530936,0.24638506469720628,0.1501045414766169,0.043884306571583695,-0.05663050014868594,-0.15551446685751757,-0.24755646747155646,-0.33852573441954886,-0.4286783877668954,-0.49481837704276105,-0.537771524995746,-0.5726658627853602,-0.6024034539200097,-0.5978425272239721,-0.5318251690624363,-0.40630920069140236,-0.24958645312769828,-0.10917719336157614,-0.014831999192976788,0.040288035798831584,0.07427716092580144,0.09939517566182098,0.11703674273337307,0.12158386928618999,0.09563657583848688,0.026644637848188008,-0.09936445818307761,-0.2749323215302754,-0.4268087478500314,-0.49681618202767175,-0.4960865045737952,-0.43096038826779076,-0.31680344355640006,-0.19056076320359694,-0.09304126994989789,-0.044081443039379394,-0.040896052071246955,-0.06101561633166248,-0.0602109808118173,-0.013255753195096583,0.07156549225637529,0.15122220574836356,0.18274522412722943,0.1482969709415364,0.06713681066019297,-0.013112205801880564,-0.06101898284506034,-0.08072320682731848,-0.08109546942680199,-0.06122156594837655,-0.023135844140588068,0.03175067637370013,0.09244633928705101,0.12477822638817376,0.11260609426675619,0.09596466782720439,0.13098157288431628,0.23013687903782917,0.3322977255174127,0.38534924428417106,0.3789605549009703,0.33950633314382755,0.3018000440901543,0.2757121062716761,0.25679551933791034,0.24010784949170974,0.22308618005431052,0.2033518927982806,0.1810005445418498,0.1575010978312923,0.14601009908295487,0.16001468490349066,0.19663957730772783,0.2408234741925465,0.28099959453651396,0.3067078450357274,0.30978054870370975,0.28194276655136574,0.2289061770955625,0.15449061655720486,0.060826452653942986,-0.04184039035672389,-0.1344472104424064,-0.19220728107831797,-0.2043748859871383,-0.18154596600149198,-0.14149480864261427,-0.11593360628717148,-0.1260983432030968,-0.15751756577345583,-0.17216210005665367,-0.12724480821429104,-0.00346156007104356,0.12907587263466738,0.2240972157350639,0.28456651174985004,0.32562282080022353,0.37090853884274716,0.43881832703872,0.5500304673222081,0.6372888415303525,0.6373598453837813,0.6855489963686344,0.7844859253299299,0.8551959581652174,0.8768369540035135,0.8685646278739221,0.8382499774596309,0.7728279480914877,0.6258436479214656,0.28498545184132457,-0.25353070450247633,-0.60165585778849,-0.7213426038388167,-0.7509712495410573,-0.7428518899881502,-0.7079467235189281,-0.657841672199743,-0.6075638396078785,-0.5693443596807706,-0.5413391078399412,-0.5165228623755073,-0.4969061692971984,-0.49854148977931884,-0.5352453952228297,-0.5952714217174873,-0.6538445901508403,-0.6894100723736624,-0.7003743008010622,-0.6982009856450038,-0.681922093889226,-0.6306280404761622,-0.5207582666338585,-0.36731590642347356,-0.23429939269818192,-0.15056677520091533,-0.08158814330147418,0.010145224672278099,0.12753301865160427,0.24443755248224924,0.3284962075532777,0.3674502532230854,0.3712926883277553,0.3570393073788942,0.33397687147297406,0.3145426824793795,0.3100039886408263,0.31908738814771376,0.3321438749159459,0.3369762672364004,0.33319458907615657,0.32329753251798365,0.3172573421467638,0.31341190260858565,0.30510695913075336,0.293408355203583,0.2739213947769854,0.24570323273046737,0.2133034267195704,0.18395423283320633,0.16307960430403068,0.15772566112819275,0.16378284384707015,0.18078706472060677,0.20337461649984168,0.22285266613469376,0.23295517107696007,0.24162956548164485,0.2514985027374083,0.2576655865975411,0.2511995881552623,0.21514886059650742,0.14293927549314267,0.039392474372404944,-0.08177629797881415,-0.20501299044794663,-0.31903342911349714,-0.4094073245613858,-0.4774497896789466,-0.5168124771790734,-0.5281479095990192,-0.5124088878213863,-0.475904824635148,-0.4365602486625471,-0.40949656325435385,-0.38314152294377307,-0.3485384725444183,-0.3038923382446535,-0.2458472087817771,-0.18117803808971109,-0.12495182533753806,-0.08864839475140107,-0.07627664898762734,-0.08414274075606851,-0.09222916776011038,-0.08852411268516774,-0.06924984646620135,-0.037760110974398874,-0.007592575215632597,0.011960189596717746,0.01596612574542747,0.00988148475485656,-0.0004591639633998091,-0.002378044216434299,0.00469037065069684,0.006125775111240567,-0.011067533074195106,-0.037286626050659064,-0.050899208927763215,-0.03680618787797504,0.016310331754129426,0.10973307722485982,0.21139117592234397,0.27766560382946404,0.317077014627074,0.34967807332525075,0.3909633181722042,0.4310059448727804,0.4401765323114407,0.40229098069476915,0.32643346881371343,0.23948204046899182,0.1675556449462572,0.12044329437123945,0.10629949808628232,0.14247989151257107,0.23376792670024765,0.3458727148239074,0.41834307015857486,0.42780321659615245,0.390170009907455,0.3200131805766561,0.2170525219979486,0.09982674716323238,0.005424631134264593,-0.051904403561227316,-0.08320727589677333,-0.08772328498378716,-0.05507601989067142,0.033447768350145124,0.16108136324510744,0.25209236846875643,0.28545872621677193,0.2800643764812686,0.25501829340660603,0.21205033848093083,0.1290984724358637,-0.009315522369706565,-0.1792959006897346,-0.3199337976130136,-0.36405326987578984,-0.2932980472003549,-0.19729526121264634,-0.1632158902924749,-0.20315942551266594,-0.29588781243247864,-0.4180896183946445,-0.5138390722650175,-0.5513856868652649,-0.5316916045855582,-0.4747024471596811,-0.3980231646586273,-0.32005326032193604,-0.2534970890406994,-0.1960342025048679,-0.14427624927052438,-0.09274662382669845,-0.0455933274803524,-0.014367577745952535,-0.0022326116659840177,-0.0007061289060414443,-0.009635790328192034,-0.03643689779358209,-0.08710130325161353,-0.1436908802523119,-0.17372972715563376,-0.1363907522914603,-0.02038651937132428,0.0802091593831719,0.1369934596547194,0.16797946329436897,0.1805350416042346,0.1735208674912921,0.15798837027190948,0.15541447727755042,0.18764779965769934,0.28757256354383964,0.44255732407048237,0.5885500948785437,0.6959439816395273,0.7685956612880069,0.8096612850589313,0.7628374223287604,0.43857991036247884,0.014453533190819825,-0.20208993195741703,-0.2967675151627564,-0.336346760525775,-0.3438047153264517,-0.3302805189862021,-0.3073693210780506,-0.28204088721420184,-0.25310289254649626,-0.2156662545760642,-0.150710797191282,-0.05049101182518613,0.06681635353362576,0.17292275351726932,0.25690289612889805,0.3293975716744314,0.397582162402252,0.45958488653109364,0.4999445472964254,0.503350929632344,0.4778852235892686,0.44132539707010504,0.40077742367373204,0.3444571829672811,0.2650467868603361,0.18240663965275372,0.11988703933046083,0.08234134181632194,0.0585456862965797,0.04103001745906943,0.024770124040941685,0.0019334748290530939,-0.018472216514808192,-0.022655888149903915,-0.009055446835632086,0.009023383677542088,0.03988571649383001,0.07721280285243212,0.10265252812241238,0.09988955259360614,0.057528010359166354,-0.020996405668968668,-0.10497497360621497,-0.17107978558573678,-0.20564799708908488,-0.20750922172515507,-0.19646731712357765,-0.19291483147505356,-0.19839541882227887,-0.20924931457017293,-0.2208345612124593,-0.22225006512637016,-0.20169078925511152,-0.17195403121585784,-0.14694597904026208,-0.13251256244231668,-0.1303212691361926,-0.13257428202663907,-0.1290685590653259,-0.12318480051745309,-0.12052966969156516,-0.13275409361011814,-0.16373574674789154,-0.213442444046995,-0.2700961071502295,-0.3074985456666741,-0.30779681805988757,-0.27187971474169875,-0.20892354379637224,-0.1312825537084258,-0.05727218216710971,-0.002434075467753245,0.018241179130016966,0.003949717764198562,-0.03831467929599523,-0.09329686789864482,-0.1269676552099705,-0.05331800537999244,0.23966273711798994,0.38553591658675435,0.40913935640151206,0.42458384418380934,0.44508263116828356,0.45458846086676985,0.4182025636932805,0.33141147444641245,0.25740474401200325,0.24057377251966802,0.28831046650941,0.39251174151163387,0.5217320202685177,0.6239520497920596,0.6776281205079655,0.687447857404565,0.6633759983837171,0.6055057585925963,0.5180919830830616,0.410178575577178,0.29981846115029603,0.19900445309485326,0.09403326763197946,-0.0389791224581997,-0.16852335455888864,-0.24929636641420536,-0.2876531055374148,-0.30462938350012825,-0.3140774296477496,-0.32937460653137823,-0.3685018632411649,-0.4534620698312449,-0.5322923397679763,-0.48344063434954776,-0.41376156936670117,-0.38083119162236595,-0.37438178324385096,-0.3846677778017528,-0.405116261833683,-0.4334785138776469,-0.4755889006077801,-0.5252915731087839,-0.560045215708659,-0.5713830836909138,-0.5731974078589135,-0.5822523282849584,-0.6161828005653168,-0.6580028537075928,-0.6625398481894521,-0.5822348766919205,-0.34329828087033437,0.08120475088615382,0.4563643042285851,0.6520363545742475,0.7484109217292332,0.8023285211270029,0.830841235845375,0.8382752004048307,0.8185246433044973,0.741461577093874,0.5114382514458884,0.012705323781271037,-0.45170875879694206,-0.6558934245979395,-0.7261165211420577,-0.7391551893895975,-0.725625395823844,-0.7006259037155548,-0.6661605954911924,-0.6158574664844094,-0.5406975637433507,-0.4289968353142454,-0.26905615518136433,-0.05840644084519617,0.1812269968507472,0.4147416865795332,0.6075927683711709,0.7523311716729807,0.8500257799657053,0.905841589216951,0.9323280165895657,0.9360253023747084,0.9162924540467466,0.8693399418068565,0.7765038195626043,0.5554110321644558,-0.007999353780976746,-0.612795411466917,-0.8064239798298205,-0.8376947583549018,-0.8108168082799952,-0.7476068943375591,-0.6570971129540806,-0.5610440246640581,-0.48206163602212054,-0.4218962067440431,-0.3648071625087767,-0.29563366514319434,-0.21623154958826954,-0.13649628631969724,-0.06496729138010035,-0.005711038634814782,0.04771112270672704,0.10647561047938839,0.15997366544309014,0.19270898145123694,0.19995488359389416,0.1865868785224521,0.16301824317168648,0.14216062024719864,0.12294222864513847,0.09492537768568979,0.06286986506182028,0.035523997591584595,0.024425052636462195,0.03073609876131624,0.051676508150815814,0.08794705738710798,0.11789349442071417,0.13206284990059372,0.1335355693620237,0.13562070838826654,0.13798680937948946,0.13716802200431555,0.1282852940620447,0.1011064269049186,0.05674718759430073,0.011423356651523057,-0.018782884146467657,-0.030597061302321538,-0.03663224382644318,-0.04670781164847418,-0.07338617647616535,-0.12730024546034532,-0.2037525154220162,-0.2806003483054071,-0.34243123475055554,-0.3882398255462242,-0.422047120511168,-0.43052789272607606,-0.4031167700330577,-0.3298842547321225,-0.20810302604708006,-0.0576303770046543,0.06670306106309971,0.1254200976389648,0.09428181771363646,-0.0009289132477318338,-0.0779091209397341,-0.11157235302481543,-0.11132064258965071,-0.08652810979384871,-0.05376318230265481,-0.026747955191573206,-0.0017501369542812027,0.03880032189930001,0.11572097683739915,0.2502790615794583,0.36526688856749595,0.3545224290493334,0.2679143383843395,0.20145461455122524,0.18450755712666117,0.19734022328276743,0.22176501414961558,0.24684690167921472,0.27186427914341327,0.3002199172073777,0.34106747619038225,0.3980108162778799,0.4683645844128734,0.5082187812294479,0.4943757380148194,0.4723912941101553,0.4746079362073518,0.4672446566570185,0.40689336357323325,0.31185778054503116,0.2284208636828526,0.17202824563111882,0.15643666119444177,0.18624376877641655,0.2297076406853947,0.26540967223844353,0.306139533434593,0.35482776238001346,0.3968879955668002,0.4096208545577504,0.38933556490349336,0.3548656129461766,0.32728370144491487,0.3166296449566827,0.32416960425723107,0.34414661475134134,0.3675762384479813,0.3803010458494586,0.3086628548028411,-0.18903952438493726,-0.42195635744857146,-0.4904057737906076,-0.5357138256881249,-0.5768890679400713,-0.612665200303979,-0.6315446387970275,-0.6131202698111506,-0.5764266822386879,-0.5649834659810482,-0.5944402771862698,-0.6526926278215568,-0.705808146180855,-0.7271162891797661,-0.7208527672195464,-0.7053430741070231,-0.6840448249901109,-0.6492544426605836,-0.5978738259940718,-0.5318791036485557,-0.45662462872514253,-0.38122362735558846,-0.306204095414685,-0.23224880401140732,-0.16930976038856854,-0.13456281821327157,-0.1377545378242862,-0.15791312729720078,-0.17493903780386633,-0.17723121179837692,-0.15571660010657778,-0.10645946693682702,-0.03411473748718702,0.045582713538397254,0.1155216355002212,0.16561409678727113,0.19311909218827292,0.19711589378983477,0.1915882813276001,0.19949409264803114,0.23386940352210145,0.2858516106053873,0.35578812890669576,0.43167850695720034,0.5076378211566135,0.5996367924859344,0.7006273875392698,0.7807696961447166,0.8324061723477567,0.8483985674370454,0.8123805454747152,0.7434851486254845,0.678316296798844,0.6384401936990047,0.6316963236536016,0.6510902274826745,0.6641276765232451,0.5909482210473695,0.37738613819153327,0.15109142175495568,0.007606532581310705,-0.06112934546349849,-0.08375514405490646,-0.08288147496384321,-0.07142626882245931,-0.057162523481677524,-0.03919200661922773,-0.013640164726779732,0.015758560549544897,0.04648091783796411,0.07871755327189174,0.11241519231992411,0.14169557763151533,0.16142489046223885,0.17759857516255378,0.2030050031554683,0.2306556451570005,0.2506333682251406,0.26216588283093384,0.2656762418600357,0.26036656352959664,0.23991703372790213,0.19833920007319528,0.11238767798900828,-0.04550466699126521,-0.25264449397332717,-0.4178857524514174,-0.48492619297501816,-0.5029605866087995,-0.5465938183735917,-0.6226246610423644,-0.6871698772505082,-0.7150049364409763,-0.6861832197247054,-0.5944727047280696,-0.46648097629890417,-0.3378482299121795,-0.22892616014808861,-0.15513192954523153,-0.10970755947270833,-0.07360665107228069,-0.04275612681835555,-0.01918600143746602,0.00017089587414965992,0.007183012920750929,-0.003940632115832193,-0.05168549143579541,-0.13110333662356982,-0.19998787354094433,-0.23179700894457636,-0.22729148457300075,-0.2101456577703091,-0.19854955728869825,-0.2001348940958055,-0.2131481716992014,-0.23572363974266344,-0.2559746434429041,-0.25738657377101865,-0.2244759058679614,-0.14940934804176983,-0.04613841465336828,0.033981545004140114,0.05612485378893619,0.04635332686558414,0.038605388660526756,0.03692684559155112,0.028260464441815333,0.012624800219614445,0.0032039860885425073,0.016490353427951576,0.06038525949944086,0.1334076120545352,0.23151262173361795,0.3538487916588042,0.4744772434673174,0.55624974900368,0.5892279821137159,0.5930936751071931,0.5750618255184022,0.5433626404669256,0.50786757598914,0.47012406783348876,0.4244235301370304,0.38548994747540644,0.37145674747099156,0.38554265096999873,0.41692551375753184,0.4562819724221756,0.49286831147615234,0.525424463447524,0.5463708843031371,0.5451654669909325,0.5121790968751067,0.43629482420953464,0.31159373985208116,0.1578385162067483,0.026542874641089273,-0.047847448728473504,-0.08194771507048922,-0.1015608044557195,-0.13669469065080145,-0.21936280244584483,-0.3824566873397659,-0.5890721856984963,-0.7493712254589981,-0.8343295004771363,-0.8616904104285813,-0.8592627397394069,-0.8477012882548074,-0.8395829305204047,-0.8364920518159744,-0.8396104649873265,-0.8375781457094718,-0.8174118861939379,-0.7618994047511735,-0.6644584229031993,-0.5408016177355318,-0.4135447280914681,-0.30303622722003604,-0.21458522414335876,-0.15490043147827426,-0.1290164819783564,-0.13280936026817855,-0.1630872702784114,-0.2151318068736979,-0.26634454879892905,-0.30558136252718077,-0.3284589141132439,-0.341092023721633,-0.3510682662062788,-0.3631799245059589,-0.35850690920265804,-0.3247997738937697,-0.26583926610086483,-0.20290281129331136,-0.14776961829809424,-0.11643046916782668,-0.11291222332359659,-0.13165710151034496,-0.15624696441114413,-0.14235408796991234,-0.054712647224333145,0.1453196810595949,0.4241982109846092,0.630515323134157,0.7265912648305347,0.757473069357146,0.7547720147908611,0.7335408071558813,0.6939142438204702,0.6234043491810235,0.5061894505580817,0.35234911925438,0.2086724446421043,0.12638957153433333,0.11533992348320883,0.13854815890804656,0.15299715059665941,0.1318966714013715,0.09302301113699296,0.06778656819052789,0.0772279608838361,0.12835225012890675,0.20543208482152983,0.27532477079691975,0.3158962009561795,0.320898256666167,0.2986097245292402,0.2521432092709355,0.1876754116757056,0.10830336153070157,0.019585215761366678,-0.051047171003670476,-0.06424899551208661,0.012178131410826996,0.1702488699227263,0.35547294876979285,0.5360829004243757,0.6950378220227191,0.823175512264415,0.9094558308100059,0.9538820181396055,0.9696588851157483,0.9679123213989211,0.9502583608418396,0.8970716936481993,0.7252498596651121,0.32268429690199185,-0.07746371383552025,-0.2841200436682169,-0.36366111377443644,-0.3830831944166653,-0.3837639145435255,-0.3837031978391549,-0.3956187236860601,-0.418743318418133,-0.4490185590666648,-0.4774369362442031,-0.49375596963265894,-0.49409048115547216,-0.48450902320123884,-0.469974975933219,-0.46124970526964865,-0.4649374282147447,-0.4852102924538209,-0.5131037333687524,-0.539501360522645,-0.5588807718482911,-0.5667181636998891,-0.564063759020204,-0.5473381132123876,-0.5087456982702986,-0.45518955952889495,-0.3908929946874823,-0.3260085165717474,-0.2808051210535066,-0.2608008887652006,-0.24765771902357275,-0.23219475866153355,-0.2103882973851016,-0.1799400754515858,-0.14893406439447804,-0.1063314026479982,-0.02931099335113528,0.10255135181433946,0.2800727933459732,0.4417978677904036,0.5304393879994844,0.5452949038125289,0.5111765072531731,0.45592925514583454,0.40506295069015363,0.38757805264662426,0.4190718225731586,0.4912788475269385,0.564559182643372,0.5989894554825158,0.5910170789285778,0.551119225694945,0.48300108626970584,0.3739226701572408,0.23614353120842052,0.11690803642159185,0.044553110556372476,0.03152508176186123,0.0787650343869053,0.15302957951911672,0.19750061431483598,0.20407292610017522,0.1855709684680643,0.14568219875325328,0.0801191205262168,-0.00808442945463002,-0.10267100894438005,-0.18229997250374136,-0.2365841239501554,-0.26495637178780096,-0.23431294818925913,-0.12255173524140087,-0.001082407805828454,0.0579765104175895,0.05306914764074613,0.012130646526052597,-0.04533274480233355,-0.004016648090757779,0.011451450802233394,0.009982078719669631,-0.004553381842770314,-0.03505610317057867,-0.08443628171582002,-0.1527377825134492,-0.23029564004166891,-0.29103357163725424,-0.32048454044540736,-0.3296640746688653,-0.32513107530181784,-0.30252845839870873,-0.2644617141511569,-0.21066085372163842,-0.1464569929305738,-0.0791221282396911,-0.02272419464503807,0.026313899816896427,0.07357679484005995,0.11732220061411494,0.1594076700217352,0.1955207031361908,0.22478827110450397,0.244572340117705,0.2528972878406793,0.25737444657231917,0.25545471399860803,0.23940295332602327,0.2059096856196456,0.16218729958202552,0.11597311808514815,0.05874637470905894,-0.010649466156204677,-0.08142630625622466,-0.1361383320692346,-0.1479223785961071,-0.10251264461891743,0.001197640139135788,0.1316633954436717,0.24022549349184724,0.321114766210502,0.3771447773129284,0.37675140561126996,0.314421303579458,0.2276975725067848,0.16209310387400644,0.14031211066224208,0.1715066329455928,0.23580460886441948,0.2857248468688849,0.2884336888034827,0.25508831968646345,0.20819335971527386,0.15725219709247626,0.09914935243237152,0.02076054976504273,-0.05964120797269313,-0.11373980886339893,-0.13536431607148872,-0.12880697903101676,-0.10297706323878407,-0.0660499034420596,-0.02198689338425415,0.02982820153263444,0.0869808808971318,0.13927517284852264,0.16372129602615673,0.14074392550843157,0.08591003870171288,0.038833142953507434,0.01984261127699123,0.006781918170597253,-0.005686198716888628,0.004643460628569968,0.06454326121904351,0.16159380890143624,0.2573467689713821,0.31658408184899844,0.3171042816431501,0.27080830367233977,0.21300712880723383,0.17726281276453237,0.16738033593455295,0.17393800760227413,0.1887079767356783,0.19806340883535561,0.1807629193848337,0.11762951284948539,-0.0013580440295888653,-0.144616595151484,-0.25454327727554316,-0.3120505054734319,-0.3308234823314456,-0.32293599848289534,-0.30234279041695306,-0.2826674081229972,-0.27865138509004506,-0.2906637845948067,-0.3088381847419615,-0.3286563277886875,-0.35984129720998076,-0.3986511232266028,-0.4313875328131143,-0.44425617724739513,-0.4327745788287146,-0.3927584181629208,-0.3318010117690525,-0.2642109755626519,-0.20006732243750813,-0.14495270096593854,-0.0915190119264087,-0.022073968275223194,0.09268089188397292,0.20815886118157165,0.2657612981737017,0.22176199055020784,0.04834165771135332,-0.03424832455680421,-0.03490389918699533,0.011644996877123347,0.13144844995361726,0.36346586015282717,0.5878303633313101,0.6546079661497307,0.6809268812526471,0.7164472079317439,0.7495159594404959,0.7507493954256458,0.7032059680077869,0.6157203954033965,0.5189321696540395,0.446138176130348,0.41352923854475293,0.4126720053287784,0.42042421179599426,0.41189237341451135,0.37316017220967074,0.3140225931808311,0.25380371461487117,0.20653276305078067,0.16146562916410628,0.09420083211773086,0.006390160096900396,-0.07951161667918248,-0.149393433555069,-0.20087123540124086,-0.2336136137833492,-0.24077539292793051,-0.21170181866613158,-0.13914986774584925,-0.04554284215617454,0.019251761046188934,0.038510336570287636,0.02699298532591887,0.014453809417242917,0.009387469758137496,0.00761329511762402,0.003997481773888031,0.009321040591601071,0.04775263547930059,0.1298222747649403,0.21897794396450787,0.2714433079945558,0.2724665414255093,0.23087466130039308,0.1309516794677436,-0.07672511528936694,-0.3441379050407682,-0.5136052301408326,-0.5728698319001503,-0.5628758186387742,-0.4979155127473291,-0.3917802894716001,-0.27104616603784276,-0.17243502593483642,-0.102845841464431,-0.05959091565113132,-0.03499036699364261,-0.019435209103997493,-0.00011541889962558477,0.027014360940518012,0.055848508878040715,0.07006775337823079,0.039337617849203255,-0.0493877103970419,-0.15454860654111885,-0.22709410661254437,-0.2866720465497079,-0.3464291878036958,-0.4014364160549176,-0.4410833689632763,-0.45304770847993586,-0.420174630022945,-0.3356883923906597,-0.22838008951139424,-0.15976640331488376,-0.16748426339826183,-0.23537436252480334,-0.3162947086962464,-0.3739565978435394,-0.3854286755712819,-0.31368791860822665,-0.16458124679138544,-0.05746681186600571,-0.06366175744986602,-0.12111662789280248,-0.16742423464104733,-0.18754186352152488,-0.17523501619812773,-0.12531139756839635,-0.04445810386815735,0.07187036831412828,0.21526924961586855,0.3546029478657084,0.4606729964778003,0.5278302757898211,0.5543129140305038,0.5468329785389562,0.5190069575298284,0.48626162795283995,0.47131072150387887,0.4769785583597349,0.4860224367684909,0.4868291315407972,0.4718054974440723,0.4331273551101964,0.38131173969696297,0.3316469368946738,0.29878074393763077,0.2830455474134841,0.2668514670454657,0.23557763619920824,0.19422201227231692,0.16099187579043914,0.14817929152055725,0.15623596514222582,0.1829172877518305,0.21466205011252487,0.24172875761702023,0.21008592284130717,-0.054621521488842736,-0.44480400655603414,-0.6705622439172364,-0.7939068824346435,-0.8567909461210589,-0.8540611630470855,-0.7899809996931191,-0.6924132624844047,-0.5918260048715117,-0.5132431892149927,-0.46911382177961186,-0.4523732824044833,-0.4476926094333527,-0.4336153477731944,-0.3919894802182936,-0.32230431323374537,-0.244393990959972,-0.17789631029086683,-0.1263781044257584,-0.11840883281600693,-0.15983540200914576,-0.23347504220749243,-0.32706097583952115,-0.4468293702775421,-0.5696183834076111,-0.5402947618043038,-0.3375576142964005,-0.16298409573084255,-0.04224162671449634,0.044912160086263905,0.11266314464570806,0.17383095614425528,0.24462283541583993,0.35311715227095086,0.5093168563285442,0.6802840349863079,0.8174113361138713,0.911831927763146,0.9652263706649624,0.9768599999138269,0.9571073563233135,0.9253683577871319,0.894296616592445,0.8654888642584793,0.8250323902397253,0.7375921371894212,0.5169287283620124,0.21674714611238927,0.06472963939642522,0.06904788703498047,0.1440533989779266,0.22743064036065003,0.28652640590245443,0.3033653362747546,0.27402447117388135,0.21845187016774165,0.17010840111520967,0.14028626344770917,0.10813486855356974,0.060958301889957885,-0.0004488583944915396,-0.058508952385586024,-0.09292080440675471,-0.09123973594355922,-0.0519077772416471,0.016003974914263724,0.08768381581929759,0.12238132239347158,0.10029463231231878,0.023794843704142338,-0.08352231267260908,-0.20062594708650863,-0.3081659514408239,-0.4024340965983377,-0.48354161039482796,-0.5311537342603161,-0.5244799579669128,-0.4573497116280885,-0.36272341362153365,-0.27910874945407316,-0.2302031508015533,-0.21726378690619103,-0.23037208808477616,-0.25236652584320224,-0.27862649119079874,-0.31973777608728,-0.37914802495444155,-0.44666142687729005,-0.5044716377870835,-0.5328016303427936,-0.5391756997709204,-0.5445416238885487,-0.557413016067011,-0.5492578470146448,-0.5060252723224801,-0.4710706665947667,-0.46920663279288966,-0.4983474877986308,-0.5308677365441627,-0.5416243850933286,-0.5258197626101094,-0.49319495090675564,-0.45825524590096167,-0.43122558520073523,-0.41447077339241045,-0.4048610891997542,-0.39685900531443213,-0.3933924240270149,-0.37950654237148645,-0.3472975068307582,-0.3015697901374682,-0.2528055189843568,-0.2004092325628994,-0.12977352178877474,-0.026184552799388472,0.12048794744556492,0.298820836634054,0.46062351229182424,0.5790159957906794,0.6642897782976055,0.7135819481585512,0.728308017677116,0.7274638220912947,0.709507720864163,0.6682689071372322,0.6022164919292804,0.5250741780430737,0.4588119790071101,0.4196586852202906,0.41522770158532685,0.4346016299411937,0.465586210986193,0.4991916140949801,0.5282992469800228,0.551076025629252,0.5657604056595398,0.5706795466693475,0.5618129071777418,0.5386070861089937,0.5146606710075969,0.5039441656537335,0.5092478450232855,0.523196936103796,0.5265853393161897,0.500654871247847,0.4307148405131543,0.3064517336695531,0.13005881347023943,-0.05885687342215101,-0.20973226084799615,-0.2993185635671108,-0.3389532114353915,-0.3433043184934171,-0.3281266242159709,-0.278521704734948,-0.16864992314640298,-0.04564306705465859,0.045858553273371926,0.09833005869705831,0.12697704274186317,0.14817774143906876,0.16188847613805887,0.15477320137415612,0.11949706501565778,0.07000628617129218,0.021303029034786574,-0.025896296474945527,-0.08257988274391843,-0.15774227980022507,-0.245605202038916,-0.31835251310686535,-0.35836524321763397,-0.37135093016170617,-0.3759725130968412,-0.3776229674227603,-0.3697038000855062,-0.3463960708727508,-0.3125558461231448,-0.2805349693281327,-0.25218283340312847,-0.21699260480088695,-0.16599230947822427,-0.11074543425332144,-0.07434582643952961,-0.06084972917720327,-0.06079130962103816,-0.059516708530784626,-0.04787034410346688,-0.03342574626006696,-0.028156819937269328,-0.030973377337772345,-0.03517773025823219,-0.0349192760635726,-0.025009140153088777,0.012376346874410409,0.08839032481778762,0.15488742971746902,0.15712050130871683,0.1096986630802265,0.0603080311030219,0.0370147646599834,0.050867092823090994,0.11159302162401555,0.20463809298327537,0.3071479824895765,0.3917137188494694,0.4376824125531357,0.43924090711294167,0.40602470430356485,0.3510393189657583,0.2929116663251757,0.2556642386469019,0.24745838716242527,0.26290062412506293,0.28134405568503523,0.2946937399019488,0.2950132915242859,0.2709913440206496,0.22305198325808945,0.1713853282809536,0.12695972035001934,0.10316847740419872,0.11977156361605695,0.1850656681968767,0.2885350339564336,0.39306752575103227,0.45882459962216826,0.49005424137311837,0.49619024308387816,0.4807739110439767,0.4410861374739323,0.3763877705648021,0.29215096183140943,0.19814643105896856,0.09545253930425054,-0.050005602223520115,-0.322496536837238,-0.613049157978425,-0.6157652150885211,-0.5836383125407919,-0.5869270094392024,-0.6068067751701264,-0.6155910358185195,-0.5856949054505679,-0.5292933247079032,-0.49536480879645245,-0.5014542159105784,-0.5257171683504305,-0.5378734293356635,-0.5264795723451362,-0.5123416282598026,-0.5149654913883832,-0.5258286943295658,-0.5204446730597542,-0.47648742288260787,-0.414842677061511,-0.36068449292461996,-0.3376910256041208,-0.35482009039685114,-0.391855077437104,-0.4224053296032814,-0.42860469411611635,-0.40105591964488385,-0.3223357888025592,-0.18845072320941028,-0.026192992485553755,0.11665590495287531,0.2208736334575893,0.29473883954089863,0.34802913485996484,0.37181154274453204,0.3645190966472038,0.33826173183009856,0.27558898422688505,0.10965190112985326,-0.10184026983182076,-0.22298105819006228,-0.2825148771772143,-0.3119552821514393,-0.316420650970945,-0.29264896846587546,-0.23642181627475828,-0.14571851965322452,-0.028737762603436866,0.08333985530069046,0.13376729566931198,0.14652550713886148,0.15670324276224398,0.16244366162252444,0.14427798220667404,0.11134132150761517,0.09302064949287174,0.10761561299378726,0.1454553711713938,0.18899255770701556,0.21639036505913525,0.2311063285642285,0.25759008061295,0.3021332503403794,0.27362167456030423,0.21926368851991607,0.20412006600782237,0.22243405694112373,0.26635132410358653,0.3262631680741551,0.38780160718790757,0.43708860832667995,0.45340548649001483,0.4350555687684792,0.3965190782155874,0.34619437739866404,0.2804245812730563,0.20511791796665324,0.13086973528437726,0.06342315696951174,0.00951257865331834,-0.011055187691166311,0.008311675303377295,0.04012448613756534,0.06631465253492894,0.05633911341390703,-0.02562440979475128,-0.19844913008447262,-0.3964345547537931,-0.5138204762939632,-0.5473028991485451,-0.5295053107401565,-0.4878852893951206,-0.4438392894866736,-0.3864515789933292,-0.3164338488985272,-0.2456586146544733,-0.1861198580157825,-0.14738597769562287,-0.1316936386304704,-0.14357215655497718,-0.17659773528234676,-0.22176915607049635,-0.26261703058583413,-0.2867165120699771,-0.29512706095680413,-0.2913029632220457,-0.27719908064023846,-0.2620415886625057,-0.2560876554958193,-0.2563446070105312,-0.2523552207220866,-0.23535942733079548,-0.2027312232170105,-0.15604781919390462,-0.09348650346502288,-0.010392402981298678,0.08216376811878578,0.16124232447563466,0.1906010164686146,0.1728915614875544,0.1346552224548067,0.10605684298552619,0.1040820654419754,0.1350262333997534,0.20656234242424312,0.3093945845684884,0.41291662398179113,0.45413313422040197,0.4104176862478835,0.32518239978563557,0.25254504559603963,0.20396956724257748,0.1737860865993549,0.15621528403146606,0.15843491082297984,0.18432584707458222,0.23100968649104764,0.27222796028287916,0.2873180892439256,0.28143286599527706,0.27771340722637816,0.2840725895548851,0.2931698336979684,0.2955085752978493,0.29668615902613465,0.2879403402812233,0.26948863147111535,0.24828144265519803,0.23196096270383454,0.22444586325963492,0.22485761996816064,0.22620533362068526,0.22080764282118576,0.20513789215967138,0.18256796098175368,0.15628899161024584,0.13133752103944585,0.10223401470145753,0.05948780454451607,0.0013406228828560377,-0.056549373005245034,-0.0906280695734179,-0.08907849911990037,-0.06389191024724693,-0.03343258990478458,-0.023964155020923226,-0.06427662155110307,-0.1817281090953829,-0.4056649216841593,-0.6691437743738684,-0.7810000522474556,-0.7462567713971147,-0.6664920070386738,-0.5734451495695946,-0.47278465425555966,-0.372186927310441,-0.28114259836494626,-0.20429028826324597,-0.14897228529003106,-0.12547895861309083,-0.14104785085452928,-0.1887263982952189,-0.2585619360025985,-0.33012815120055056,-0.37517639732125785,-0.3775826695285903,-0.3322601432134316,-0.25216578702471726,-0.16651789941205358,-0.09547534890015255,-0.043874969286557576,-0.013798192775703898,0.008044936046920153,0.030649108932654344,0.05755293902062126,0.086449617437257,0.10715806452215018,0.11132222534344556,0.10918605208248912,0.10195149190753257,0.10186116445295011,0.11185724943435506,0.12544047104739714,0.1336700176276365,0.1382775780759153,0.14474973553970816,0.16888406138886644,0.23652120600856735,0.3782524516240001,0.49663508403524875,0.48584405972644235,0.44519003224509224,0.4267212430558173,0.42820350115286926,0.4349423930915251,0.42404756174105196,0.3933535194326194,0.3672748520358689,0.3628291527557849,0.3723623227116949,0.3708673918585194,0.34537265154595814,0.29335314579268496,0.22325167494982218,0.15827786933075463,0.11527466577515114,0.09250692571320891,0.07759504177566719,0.06658541936839484,0.057356495904990014,0.03762280017476444,0.011070241545538134,-0.004263397435913963,0.010914339317079434,0.06630773574298653,0.15329529681058843,0.2722312865603776,0.4270558917995197,0.6119473053422693,0.7826727047460693,0.8901575221680579,0.9322403188888916,0.9379300636312294,0.9251504975396513,0.8940659687752782,0.8242268097974521,0.6481760218301701,0.21856290329431724,-0.31891665851340556,-0.5753772625024091,-0.6406154098195077,-0.6220659372341719,-0.5595823158236616,-0.47261819238836694,-0.38283343667846176,-0.3203785787007668,-0.311171815002923,-0.36181389278315174,-0.44621657518004326,-0.5163429892001077,-0.5436694270597036,-0.5404716040330556,-0.527760539055336,-0.5131091463703743,-0.48571867531399204,-0.42823783909180346,-0.33209575592822355,-0.210285959112885,-0.08815060583171455,0.009241222665045006,0.07328436742685415,0.09881970026201864,0.07548564666279,-0.0019188266995399956,-0.12906351195185015,-0.26645540055196637,-0.3764851134771459,-0.45560895569881393,-0.5139813756332162,-0.5583163918546358,-0.5983539072095501,-0.6335902526706086,-0.6502877483774807,-0.6347910881690998,-0.5792243666089985,-0.4954582490407017,-0.41415769575009437,-0.3643546727073558,-0.3398751379864234,-0.3151654628113139,-0.27551890454732325,-0.21709543152806338,-0.14640255900687577,-0.06332418068197267,0.031288805409777944,0.12895482595566438,0.21862614825481802,0.3015491639580152,0.3648739507217049,0.40197435281611354,0.4048518343094687,0.3869719899826899,0.3651280268853595,0.3567738205596445,0.36153786554312206,0.3746653303247095,0.392705632359013,0.4157139200262098,0.4404295852394436,0.46173079541895323,0.4670547697884905,0.4451738925404156,0.39455080798412456,0.3206518364633708,0.241763735698715,0.1958928847729902,0.21322571533862494,0.2778042795453127,0.3488690186924885,0.3867840897356483,0.38666601560034575,0.3622128125019804,0.32847884879842265,0.287839299051559,0.24777104197420363,0.21641062173999628,0.2029486652326064,0.19509025523635964,0.17250327428283063,0.13333986145793156,0.08435812941879897,0.034934064444478004,-0.017031357628718352,-0.060632834232054865,-0.08228514742690679,-0.08227708651065291,-0.0649471310642579,-0.040674316301533425,-0.021920727471730635,-0.013044454435232208,-0.01641110876030024,-0.030726052987614997,-0.06465377588857601,-0.1134840243025355,-0.15217121478522658,-0.1579863805224304,-0.1337332949191917,-0.10987449931763696,-0.09777506849012846,-0.09569738030198764,-0.09214115596276734,-0.0718456622995449,-0.02511461023270424,0.05618857123961829,0.15272843238070338,0.23674124518393422,0.26622108868153666,0.22980566803017158,0.1391561138690451,0.020663342959988822,-0.0825837419298162,-0.14114961260913997,-0.16651276103705873,-0.15686192643986682,-0.10927749291038276,-0.012681004945742235,0.16790416643753098,0.4335518802749322,0.6718470926315356,0.7679410465786902,0.7468940170536534,0.6690730553421741,0.5867855727521178,0.52033100354142,0.4706621735885988,0.43339025951200005,0.41519456693682505,0.4191256641436422,0.4373749008858922,0.44160168419386886,0.4006725100107273,0.31662310369860647,0.21207867797100977,0.12131714476863341,0.07154832713162358,0.07366230744001191,0.12708921290644457,0.2060282144635256,0.2725848753152365,0.3041737797642276,0.30048573489272346,0.2573353256809274,0.15554531567554758,-0.017256318555407917,-0.22375486167416447,-0.40530813897505336,-0.5327807684704211,-0.5891614373392675,-0.5669737064272219,-0.478660747891759,-0.3472103189134572,-0.20543887935588606,-0.09455226456036514,-0.03754515678483482,-0.02551860066403918,-0.03613028694226524,-0.028902416348289058,0.0012417136744330044,0.04125270232228856,0.08224502855746468,0.11763991489757225,0.13915354228363724,0.14109132451188844,0.12314072704034883,0.09299075857932645,0.04490366885223144,-0.026969808872037402,-0.14476045400420096,-0.32202233454637136,-0.5132550883745458,-0.6257567866378908,-0.6614235472765035,-0.6588705655169157,-0.6423976347380445,-0.6141535086305907,-0.5703423849364552,-0.5058475816778375,-0.4208081097281961,-0.32909871930223267,-0.26399596961009514,-0.2444772025262761,-0.2654968831895928,-0.29777745070010714,-0.31307189043387224,-0.30204044546983255,-0.26280847472200336,-0.18924554029940166,-0.07116742134830249,0.09411739753427045,0.28391170145474687,0.44747616528526063,0.5373098745081079,0.5432109311775346,0.49737493501801516,0.4425002594258905,0.3994780759098569,0.3716979279722518,0.35426839716619696,0.34329554211135416,0.3346195235672969,0.3309673615211691,0.3277863559812362,0.3331176525499116,0.353173497982123,0.3701984403584309,0.3576006489012367,0.3317341187005484,0.30712797652214496,0.28434163379894406,0.25721183843279266,0.2331906405404774,0.2188928003237488,0.21280807899620402,0.20871918226584968,0.20555638842736462,0.2015588991038475,0.19085429374477927,0.1723431650491311,0.1615084065506454,0.1903345196047238,0.26900795905423686,0.25469079474613265,0.20444325790481138,0.17906654921658918,0.16485382216940883,0.15516897569971685,0.1453290446465588,0.12793011431677737,0.0980031704777388,0.04726071230899953,-0.016201184462131306,-0.0689387699122895,-0.0931441232642486,-0.09638606319156219,-0.09136943228043125,-0.09713627757626417,-0.13881124480741833,-0.2267462747718678,-0.30973197482075193,-0.35479823208354816,-0.3908020288217691,-0.40561319530916684,-0.3560609942269395,-0.26401020515681173,-0.19197699504335586,-0.15946586668331225,-0.15966304756957647,-0.181364155746992,-0.21866990360573627,-0.264025801862825,-0.29268458971860806,-0.2883834915473088,-0.2529880307665306,-0.2022097506304942,-0.1371836140746186,-0.06473207378839158,-0.0039343357368281495,0.030090987152670133,0.04704067687497682,0.06106057930552695,0.08593693024865898,0.12488527589719799,0.16049518908830207,0.16826682669926468,0.14873036322010055,0.12352704996860524,0.10061696661345361,0.07577544361526675,0.04501963576681195,0.01967905032362321,0.0049269270339547385,0.004803862373260732,0.022844016008635303,0.05706316407384866,0.12116480466549841,0.2155653572722874,0.3356953453413004,0.4657373676620151,0.5595102230233561,0.5945980809808511,0.5708235638471885,0.4864156857778057,0.3445765836599948,0.1781524685777261,0.03087429010112375,-0.0689209588846499,-0.12377371210715729,-0.15003590700784547,-0.15590130538118663,-0.1399825340694655,-0.10453935603694896,-0.05480832612984193,-0.004720657572626455,0.028826474343337447,0.03394262676525462,0.00016033845856809818,-0.0558427822502736,-0.09911495451845544,-0.11180197290213452,-0.0997526845868016,-0.0783121404502045,-0.05963476935136169,-0.05021517886511516,-0.05116334282547813,-0.0646831237103989,-0.08079897584919565,-0.08857650593359775,-0.07619801739042535,-0.043886970361987514,0.003758173899608461,0.06592245683538339,0.13981210818063156,0.2254010097193698,0.32496624348632175,0.43951879102383035,0.5640459654617407,0.6812094843877383,0.7682009420022456,0.8207743920019899,0.842631132531842,0.8365930073840065,0.7870198846424399,0.6504627414946164,0.35423135714952547,-0.06416111180604527,-0.3978380195354417,-0.5884347334906161,-0.6862005391900287,-0.7256207878320262,-0.7172591653296906,-0.6819350816326126,-0.6389466300232517,-0.5932281745736909,-0.5376351684210481,-0.46675454135019917,-0.3786594505353404,-0.2806444043666675,-0.1861340137252369,-0.09822028917464705,-0.008626419177884866,0.08315868196481639,0.16719753858363232,0.22759979908316874,0.25314759892531197,0.2510740319688882,0.2299883076977681,0.18491527886013773,0.12485128590165726,0.07944522680118428,0.05817200524695309,0.04292127903406415,0.028691747363235504,0.010763598132968186,-0.03356451998797927,-0.1386441186240014,-0.27740798922430376,-0.37616109518765106,-0.41503666160616015,-0.3841346903722499,-0.3130148180284992,-0.2531813782532292,-0.2245619658428985,-0.2183111292002483,-0.2182632252430269,-0.21217561894558806,-0.18682845810968252,-0.11480255416342687,0.02968821312701808,0.1895112450975488,0.2869519754435326,0.3246177353960362,0.3285670635309484,0.3152397166795573,0.2963475060416102,0.28094839061135596,0.2750950403618986,0.281959782803089,0.3039407512606124,0.32319903735863564,0.3236190269622547,0.28949826187169253,0.20654226268749146,0.08344056171335303,-0.04107346551039231,-0.12445199584132882,-0.15286047798900732,-0.13859754611610697,-0.09484933454332839,-0.04278315608391464,0.003757893641182159,0.03383533455368902,0.023206901295223313,-0.02570031860443854,-0.09319384764425721,-0.17543225421226974,-0.25448363828153725,-0.30791101590769,-0.32635067413940894,-0.31090796507692886,-0.2714034387140862,-0.21851320609052519,-0.17213129560822812,-0.13768261141745403,-0.10994317470532043,-0.07543469814783882,-0.03812227032596796,-0.005056043500924703,0.01814537735290167,0.026796845299469303,-0.0009769715063634428,-0.06378982644689958,-0.13665707751301004,-0.19980500260076822,-0.23730117907258055,-0.24744236640992523,-0.22782932176662235,-0.18310439896171224,-0.11898184839040729,-0.04193999758830108,0.039380982449257404,0.11304671454491873,0.15161661630506104,0.13551870309209418,0.07971417901995752,0.01580546381046366,-0.028837473536436536,-0.04607918182522996,-0.02775701431746146,0.028301601567380118,0.12056109825886978,0.23140485137582445,0.3294906336701811,0.39426204585205005,0.4277929906143726,0.4461395795489473,0.4797823799130448,0.5456489513143254,0.6284435529787585,0.6679182975694811,0.6433131917601008,0.593976679423593,0.5391080102936663,0.49241331133307137,0.45703471274629853,0.425529862855133,0.40280364811675445,0.39520374875980563,0.39091118250756457,0.3907786370527034,0.39442324943302864,0.39747379863008847,0.39315820476638735,0.37669707256772117,0.34526370944266105,0.30900104106254206,0.2817941081484265,0.2689522003707015,0.26567869534765187,0.26700957727159896,0.2708269953403053,0.26930195778498783,0.2624177283842696,0.25353402752878657,0.24849899236233422,0.23848446318883387,0.20371172160516732,0.13617932242880024,0.04937340072045116,-0.05181866400189682,-0.16363687510990693,-0.22120284100568732,-0.1709901122285219,-0.10402393991353616,-0.05561076789902977,-0.04876745307545057,-0.09414456722740319,-0.21628933769622666,-0.4455996418836308,-0.7003698678758151,-0.7983527276838047,-0.8072138974361616,-0.7894437418843109,-0.7443485250256843,-0.6585152849910159,-0.5416496802781248,-0.4318633786984933,-0.366212972844676,-0.35289828548048524,-0.38170515706870717,-0.43334111309325263,-0.477211694142729,-0.49014788985748625,-0.48137276419342767,-0.4692433801014734,-0.44453477942452047,-0.3921614320170808,-0.2960501821741162,-0.16939313019438768,-0.061805500528160924,-0.008739657022056594,0.0033990169462331126,0.005348631399649668,-0.0030112817840659877,-0.024708113451128808,-0.054441514563775106,-0.08928272191941687,-0.11782740042449306,-0.13159937357899198,-0.1233385720670637,-0.0952711270910049,-0.05050552379739553,0.0029983493330656735,0.06424156283890727,0.12625744204970737,0.19482444327292553,0.28502687434257085,0.4025614557186088,0.5290982892962465,0.6253945634297355,0.6651190816113134,0.671512306546971,0.6733177456502663,0.6785367096386359,0.6824712448137432,0.6627726107990998,0.603688478515776,0.5062349202905337,0.40393445010002965,0.32640159793817775,0.29151765079396935,0.2953885047123761,0.3109569976101046,0.314373949193146,0.29526652840534673,0.24974634708233273,0.19562359266621965,0.14898127060829167,0.12873266233008468,0.15136271502481805,0.21310691381428387,0.28242346017809167,0.3271348351931516,0.3381854785384273,0.3247640701181445,0.30074221029287385,0.27174518787813245,0.2466797198541423,0.2244551524240408,0.20486442757918846,0.19563283254858935,0.19787468195990657,0.20555644774436244,0.20899646347849443,0.19123094434623786,0.11561912694668879,-0.13197465486362395,-0.45593329807639355,-0.5689086594342624,-0.6269128240035435,-0.6632343610510023,-0.5938955880339503,-0.42589378450949283,-0.27535321272253416,-0.16663095545279888,-0.09165277217225289,-0.04829108874268107,-0.050062438222792674,-0.1037814175331044,-0.17177873347057174,-0.20593766607331987,-0.2052924449661815,-0.195259110217165,-0.19622151605807528,-0.22153296102271333,-0.28183609681450633,-0.3709609008537033,-0.4266740066802342,-0.4127512585811907,-0.36947774774685566,-0.3185351446257576,-0.25580673651504754,-0.17862438212254997,-0.09212437872565912,-0.0028530802765589815,0.07382019346330283,0.1178311805523958,0.12400133133729577,0.10165336198643285,0.06299134994103546,0.02400789127945322,-0.013857854136492124,-0.03423121414143365,-0.0327695717071554,-0.008868348574112608,0.029389507347166464,0.06355729496969494,0.07736596879068969,0.06802324690491843,0.044433599047122414,0.01590607988386381,-0.005110032694812781,-0.012829135032863315,0.0016219165028540834,0.03690443551432038,0.085542272572587,0.12786489269550083,0.13750985884357741,0.11514777798284308,0.09605924486845874,0.1254163077540883,0.21744980504600278,0.3301745056636268,0.4047584601982768,0.4191906858614896,0.39097912677177354,0.35238676651716205,0.32542463654694204,0.3125769956977506,0.30370681696497004,0.29226941986841953,0.27536100639626154,0.2524802101417956,0.21014863417129892,0.13786820941876543,0.035522468982389574,-0.07913451299862756,-0.1874272685704779,-0.2928053482538666,-0.3915507728836362,-0.45103344053296185,-0.44449993795868803,-0.37682325706718456,-0.2731024785525519,-0.16944095139052445,-0.09476417005131967,-0.0488575158499735,-0.032226321718921404,-0.03912945193216214,-0.049572071045675146,-0.048668729921614445,-0.029650805980289758,-0.006711676267290587,0.015553614341665628,0.041083612093318754,0.05586110464554594,0.04303771173355686,0.0002629692151471759,-0.06087439959001213,-0.12515356791591148,-0.17355697908791515,-0.1846968881456486,-0.16241431319633384,-0.12417924604582727,-0.09623739166417282,-0.08775670511284721,-0.09565950863906089,-0.11467598352598071,-0.1304470885463971,-0.13444277751683084,-0.12208015366274129,-0.08839298025462337,-0.03477429565383114,0.027251068475871568,0.08374604821907072,0.1326101412078076,0.18810592796110526,0.2524222796320142,0.3195063636769906,0.3925292964505238,0.46796821220745427,0.5327609293447654,0.5757170090582019,0.5686514573387381,0.41256292658147464,0.19682584373525489,0.06736023163799121,0.005522061743718864,-0.028283448479572586,-0.05252818972062553,-0.07112912609798862,-0.0801128738888025,-0.07643223212469531,-0.055518160217780395,-0.014679962966404487,0.045332970436068466,0.12572062526811006,0.21459706223200362,0.29640877601199034,0.35596646084066624,0.3864932688444257,0.3800369779204472,0.33679539467986314,0.25836415172435756,0.17195215547591935,0.10230583621367886,0.08081686553701335,0.12283005485718373,0.2102760306539416,0.294175802035714,0.3489171252918384,0.37799612028740515,0.37243521456271017,0.31824038786659997,0.20331258932809404,0.01901006870740017,-0.20117026094038468,-0.3706810169454507,-0.45681243005389766,-0.49640795542347316,-0.5574737121228512,-0.6509518520410847,-0.6869486003190983,-0.717630691560175,-0.8061572445889509,-0.7731521864027098,-0.5939713098065734,-0.48800051877968614,-0.46269353099282473,-0.48316259877863976,-0.5164039483962203,-0.5280479204780839,-0.4791121511626406,-0.33546752912582817,-0.10895134872404906,0.13278146261264226,0.3476304880724192,0.523601166735425,0.6581249384682663,0.746036511825843,0.8002250129151528,0.829137665110496,0.8317321848079822,0.7994850800895305,0.6957560098780771,0.4152680506955174,-0.08744384857775528,-0.4895170679603142,-0.6747213719443761,-0.741676882820641,-0.750931065980649,-0.7246276158891147,-0.6734119910201094,-0.6118982169859735,-0.5536641087183078,-0.5072181521789068,-0.4730484972741388,-0.43619984921220517,-0.38117879512890307,-0.30692868565442927,-0.21197952343650342,-0.09832382934318595,0.025111542625738836,0.14933220297471586,0.28773381086161925,0.4185065341693262,0.3950584370167382,0.21869557817576382,0.0613261135440214,-0.03840652819547334,-0.08144765742066262,-0.06128869064898203,0.007737213611848131,0.10856782948911206,0.19481928969182113,0.2276773367846018,0.2121198640114514,0.17740847612821936,0.15671358502015845,0.16859487976822535,0.19966510438087737,0.23458647118150464,0.2680510417059369,0.2956865806261683,0.31688011890239165,0.33001833197185226,0.3322162431470588,0.32461725568330396,0.31128408635360694,0.2972545919420751,0.28944245370444643,0.2941945236244252,0.3108922173814584,0.3282362531524111,0.3422419173540685,0.3498805682333575,0.34556993501520905,0.3238653090916433,0.2815433858930235,0.22935143938745267,0.14791526460905732,0.03897827559376393,-0.06673471491497959,-0.15383367362057956,-0.1970898694559469,-0.20327585842744536,-0.18926147297348758,-0.16355967090207396,-0.13278406611901938,-0.11316995325127804,-0.12136403675602193,-0.1574117892095358,-0.22242347143938487,-0.3169678870017447,-0.4110231803907535,-0.44972474479118063,-0.42767350333640264,-0.3854446485583853,-0.34456055912444533,-0.30833085527207027,-0.2880919308959546,-0.3086151713898754,-0.3928842759478015,-0.501826279710588,-0.30561866906551016,-0.13870387968314812,-0.056320041967131786,-0.010151400403813111,0.017539582067501974,0.028588965396059336,0.019016993790688386,-0.0028886274120477648,-0.012530318112316734,0.013961198704793603,0.060118576532496276,0.09176207332685302,0.09974625088455491,0.09341067955307732,0.09043533551005667,0.08843944687481274,0.07880572706170284,0.05464676902401011,0.018973442170307213,-0.020415562382002064,-0.05121586222767305,-0.06742493513262075,-0.05652616040261931,-0.0005391776009316396,0.07374039592774874,0.1253929371735302,0.15806827645920699,0.18287579772058113,0.21124433859448738,0.24999127466634533,0.30039078399551145,0.3568579758517882,0.4059056481842728,0.4317669169084793,0.42538698513398476,0.3878796942640539,0.34088234630644737,0.31054873507464964,0.3034476354063893,0.31254161141526926,0.32852371476614195,0.3484073691009416,0.36902392685432456,0.38469623150059923,0.3931520789031594,0.3962505126355147,0.3884412806900336,0.3682085435662353,0.3452125697345739,0.3248432664303301,0.3174547128075618,0.32775292109998977,0.34571305234827665,0.35877578929229353,0.3610264133926412,0.3421509965349537,0.29476389872498937,0.2613651314406981,0.2761753072772007,0.308433881249216,0.326360876557257,0.3219096345992512,0.295615106075489,0.24741629928544762,0.18339569794449695,0.11591028124674255,0.05659532452586332,-0.004556122945232594,-0.08533753612680119,-0.2019542064077061,-0.34436140626286027,-0.48313561826335677,-0.585258442572852,-0.6368097505793298,-0.6381715465921517,-0.593042048492526,-0.5102463849985908,-0.40734203279386316,-0.3251434474874671,-0.2999434181815231,-0.34511701528800104,-0.4086323187971517,-0.427413154767157,-0.4348004838508276,-0.4454582007088312,-0.4605182614949066,-0.47681241790459944,-0.4916109164537507,-0.49667690449657964,-0.4743243677883227,-0.38984217260445203,-0.20717177171043707,0.055075943421363814,0.3404265425043148,0.5639857539658051,0.6418187594670228,0.5777011118600325,0.41206795217775677,0.21417347504581832,0.04786340807397076,-0.05788521942439291,-0.09284011430941438,-0.046210984440943424,0.08486017055256688,0.2480281291441927,0.36030795138423816,0.4161733435156162,0.4622935058232798,0.5172446010683671,0.5665078812652804,0.5872962629645907,0.5874295936078329,0.5789628858209906,0.5671185888408206,0.5478595297233075,0.5218565080013797,0.49310502603457423,0.47379367743714573,0.4632220550372153,0.4510788669144844,0.4322732409526794,0.40087632370270476,0.373759759396027,0.37279954542711363,0.4014378043117656,0.4404403360491866,0.4672180792210617,0.4740947244676732,0.4631326980283533,0.427119415894336,0.3516894644530876,0.2156891517285338,0.020643341624222232,-0.21120524646732894,-0.4333024726221729,-0.5816109404618921,-0.6191641074435759,-0.5405624774430737,-0.36293347967827905,-0.16444178259245554,-0.014158329993345006,0.0619703671887143,0.06153115805411968,-0.04477067862712553,-0.27121541574230756,-0.5148976901948672,-0.6372794121069792,-0.6321803927614417,-0.5507748124388869,-0.4632938167172767,-0.39474051936105653,-0.3450495383042137,-0.3091003760948632,-0.2836978544924074,-0.2690712475436292,-0.2564683926119316,-0.2478141201982674,-0.2287897195606223,-0.19562597377594157,-0.15795852588930884,-0.12845846481303444,-0.1228538114453757,-0.1421423018211691,-0.17578936457310512,-0.21110009440145572,-0.22728514795586238,-0.22628260093805477,-0.2128824223464551,-0.19369111890597435,-0.17362416214716864,-0.1535997314950009,-0.12946432246277226,-0.10624372005236266,-0.08526568086897149,-0.06332180855355383,-0.04431750739240101,-0.02134366214957929,0.014183670597988576,0.05788223949652922,0.10287215053133131,0.14826848809099058,0.20069031296699938,0.25983296314101934,0.31160420002436434,0.3414813812705189,0.35900905415449724,0.37167450461191304,0.39535778830955115,0.42791438870211473,0.461126578557171,0.48057998461147766,0.4764823080748854,0.4562660202651058,0.4325332915753429,0.41166568022082395,0.3959287272051647,0.37660788275135476,0.3523307233601482,0.3372053913664997,0.33682497788929133,0.3439942570271935,0.35018883311668086,0.3448748844639682,0.3178923556288865,0.2670452086387587,0.20077014183314168,0.13654171754840871,0.09481057332777064,0.09468330620919979,0.1279620030393846,0.16243255020054773,0.18004913257955857,0.17853525717392596,0.16201937596814614,0.1331825682533466,0.08908168824093426,0.0396397572505515,0.011102795558081776,0.01082717428168096,0.030300719029092045,0.04527628896255649,0.03236092747623323,-0.018395210577866264,-0.09978392592085962,-0.18277439651831806,-0.25137397212789225,-0.31285710325533433,-0.3695014018805992,-0.42501909967792745,-0.47740707923957787,-0.5194243893304531,-0.5354620295895686,-0.5121185592842757,-0.4657210657532442,-0.42525956580644314,-0.4068747321377273,-0.39960913118451474,-0.39038154424076743,-0.3665846877821087,-0.32353727882509997,-0.27706142363412056,-0.24173568203085588,-0.229699911602593,-0.23719748594356715,-0.2513513902260469,-0.25624572015304614,-0.250089315639053,-0.228710580251649,-0.20897215064750804,-0.19771832629834202,-0.1916463022167893,-0.19628631140206007,-0.21150577378560625,-0.2260995760329989,-0.224891058299724,-0.1863504056959253,-0.10226687399528693,0.0019753441609652225,0.09569452858831853,0.17042693476289328,0.23925738707568547,0.3280997292058386,0.44053577063638494,0.5591526851775385,0.668442906148807,0.7450751859583576,0.7708903981490689,0.7527245144792284,0.7035139550804318,0.6342614578083179,0.5487676360569824,0.43887080960851876,0.2938451271064137,0.14202002839257588,0.021983466296175008,-0.049701608089480986,-0.0819885998563954,-0.08961592987246678,-0.07540504354714907,-0.04389266274911883,0.0030858229338891537,0.06903322683620025,0.16341919940201963,0.27610527916526906,0.3788774614027567,0.46051851498283236,0.5268234042576858,0.585884611327287,0.6447743714833234,0.7053455074696613,0.7595536395201841,0.794121469361104,0.8021487199922842,0.7726002723805321,0.6616464013624704,0.3191423059562533,-0.342241043187761,-0.7343560608736871,-0.8550773425404761,-0.8910287675084967,-0.9036153587347688,-0.9055287689777389,-0.902667476807364,-0.8908102113780764,-0.8670918675001931,-0.8358474536637964,-0.7997734577707691,-0.7461943626839522,-0.6642675769433747,-0.5523073581692483,-0.42428825119515234,-0.2956300442706711,-0.185347380820052,-0.10858141291605272,-0.0832516989632592,-0.12834800881309996,-0.2545892657638074,-0.4032747473252163,-0.496830434878743,-0.5267735224219402,-0.5102071527383152,-0.44967252128210206,-0.3464408065627029,-0.22490199650521828,-0.11519096346323689,-0.02296984873668088,0.06867436535259608,0.16037979325504914,0.233810531223312,0.2697076405209725,0.25847725493782203,0.19636215792560224,0.09366328851203859,-0.033348313274226445,-0.13779467267869877,-0.18826689760658227,-0.19810183642467902,-0.17932167909443533,-0.13595262699391195,-0.06571985028502332,0.027227706730113026,0.12702858505575446,0.2097667633243916,0.25280920634935855,0.2542875660348802,0.22737049979234883,0.18881960125976574,0.16001904089507327,0.14886482985000432,0.1566336717663922,0.17649688895270793,0.204351490097445,0.24195368300526787,0.2878393752973061,0.32864286762825246,0.3630239834341841,0.3793385660101709,0.37234017393993896,0.3530834107201482,0.33793173945998695,0.32278392664595973,0.3139494282147575,0.3216695456494373,0.34700377697292667,0.3825083618152273,0.40736029437536936,0.41804905924598934,0.41731944962326617,0.40907654268749716,0.3898485158035243,0.35436421337567653,0.30169225033563185,0.23938759769382761,0.17908538147070555,0.1370679353454416,0.12602362540608855,0.1420705241604442,0.17866851832229125,0.23017427744595115,0.27794216832993207,0.298312892099626,0.2426339005289253,0.07078054181343266,-0.13750597977769344,-0.2860269248616343,-0.3841499272998203,-0.46592538308724385,-0.5270892101945899,-0.5548500148907022,-0.558188130780856,-0.5605992846554673,-0.5683121267702768,-0.5642316390106564,-0.5420726623643198,-0.5144214609186958,-0.48881593645519084,-0.45876188733273776,-0.42281929758278164,-0.38007423021060827,-0.3178917248139975,-0.23724931164272378,-0.15290818478743803,-0.08784613354879149,-0.042756191671639854,-0.018679445085276997,-0.020557222770707838,-0.061621764094388916,-0.11784089919506123,-0.14749246730003202,-0.13004557062867952,-0.04065779758682395,0.12841521574804823,0.34144140332497075,0.49580725962314354,0.5638558041793488,0.5802689468593889,0.5354678379255485,0.3661308799682832,0.14933487838570067,0.02711632980450707,-0.003925602875722343,0.018091641416497738,0.06260578434790146,0.1036531752857133,0.12480981431961212,0.1255620760406643,0.11637764600231384,0.11326343455305468,0.13044888431354462,0.16610257922439753,0.19440025917093462,0.1941536567573967,0.16824875359627398,0.13438062472444842,0.12853076654977585,0.18380071239695667,0.21999816085616203,0.23724807345869758,0.26752125471347854,0.3115856275963172,0.3703667246996213,0.43641813610372326,0.49190940176995146,0.5185225731405235,0.5146363131231699,0.4837821222951785,0.4287456431484183,0.34955149308254213,0.25464076853484563,0.16569760515537205,0.10133924996595826,0.05252025888044124,-0.00433496001384678,-0.12095783572786845,-0.34228987581938625,-0.6000724798977711,-0.7424269349748659,-0.7914981253392199,-0.8163664202506442,-0.8482630281862269,-0.8865836812427382,-0.9098023101771379,-0.8769983153936396,-0.7733679093470044,-0.6444225227797266,-0.5473088882989127,-0.5026721120644414,-0.5046476710657636,-0.5313383482777589,-0.5631305701289165,-0.5807158741395507,-0.5797578892487545,-0.5527685287710731,-0.4994712333795003,-0.4221112739853151,-0.320730083040747,-0.206916341307039,-0.10574534670036059,-0.032462466832371126,0.017623906227916007,0.052670636440372565,0.08185264238433497,0.10893310060691659,0.12486386640482398,0.10755608569440298,0.043818711319471834,-0.06549090792659279,-0.1883614563109441,-0.2743830501340545,-0.31546509355244323,-0.3215259337550016,-0.2984477478335664,-0.24424211745438065,-0.16304764569900176,-0.0775659790811294,0.005247257588698433,0.10514522295802241,0.2165964589920241,0.31280682126617954,0.3691461004496529,0.41104524003809667,0.4607672837514486,0.5056107301078949,0.5275117738157222,0.5162356716067599,0.4856835121688355,0.4446584461021646,0.3815389763351715,0.2736657081353418,0.11582331586828783,-0.05175207638925688,-0.17487577891709621,-0.20415460218047501,-0.12275598415557375,0.0655436508151621,0.3119969236983783,0.5365195851330481,0.6981546737877169,0.7994987490744694,0.8619620306794858,0.8988903282966058,0.9221412760454816,0.936705454195009,0.9436047386044255,0.9434374592383346,0.936392224888432,0.9211082792358922,0.8909654073641231,0.8297920990657149,0.7035640010844315,0.4648421307957924,0.09152367868793217,-0.3684852315631412,-0.7141641442236811,-0.8596508671104695,-0.9117056875089276,-0.9414431981845897,-0.9651599721197276,-0.9802665623225879,-0.9843290174074797,-0.9788695604601856,-0.968384347781148,-0.9515795163570044,-0.9209177665552967,-0.8767898422873239,-0.8239784543063841,-0.7625362502832427,-0.6801747397419174,-0.5764657370533075,-0.4702083566690918,-0.3777980971318796,-0.3071234281651992,-0.26365654456777043,-0.2573235051100871,-0.29705594646743083,-0.3879202445525511,-0.5081423890498623,-0.6018022364854438,-0.6343151324698585,-0.6282812024210079,-0.6142980548414916,-0.6010358939361068,-0.586255634591348,-0.5637515408208622,-0.5290573081673705,-0.47313624984282554,-0.39440798294411167,-0.3065492261983865,-0.22205493509050278,-0.13656112992646874,-0.04297159939697928,0.05996591930293417,0.16951580600410324,0.27023956361718027,0.34202210318519555,0.37180512394080123,0.3550347464317957,0.3073274130127165,0.26822617530729775,0.2908473646975498,0.4097627285094474,0.5953468650504962,0.7380178834153717,0.7841784054524739,0.7687474789388034,0.7222675191649753,0.6486008848895682,0.5608546958775189,0.47941584115602603,0.4209645232729256,0.3850131319126426,0.3688107144084737,0.36189661342548224,0.34392282737833224,0.30289954189993995,0.23040371008391153,0.12670869177131439,0.008782790090297726,-0.0965293828956368,-0.16613868147161182,-0.18272708863487955,-0.136865478292207,-0.037120828215277714,0.08788821196738096,0.209094578520731,0.3079248400925086,0.3816131201086831,0.4288952594760646,0.4468202466293601,0.4369658553831657,0.4086438734456333,0.3826480961458649,0.37101157208554525,0.3664349973730058,0.350079261303337,0.30971796134107377,0.25522451842623867,0.20665926520418304,0.170152332266123,0.14596705727670958,0.12515694283395273,0.09914530838240534,0.07563651067799752,0.07618344566128696,0.08920132061190959,0.10308943627294198,0.10801882753805137,0.09814103666480502,0.0698223620302689,0.026372486316591247,-0.02222218364004323,-0.06607833064558646,-0.10897269814498722,-0.14486363708579583,-0.17232608523459494,-0.17788870159815073,-0.14828505704119332,-0.08934043588242808,-0.019853890385384692,0.04739112417726776,0.09407176622622418,0.1260122965498566,0.14559286499831744,0.15110537988254064,0.14778593605083717,0.15488914915218052,0.19038579248014295,0.2676709162519382,0.3757820600009565,0.48761830427511105,0.5743398013949831,0.6113516026376803,0.565222249112233,0.42764204340639356,0.27087351406807575,0.15573594580912264,0.08951956295864441,0.06391443331922203,0.06637195026238434,0.08526522539091591,0.11452285999429047,0.1541874051309946,0.21331868855581965,0.28028796889315777,0.33339950047125017,0.4140510752601502,0.5528327871830486,0.6121012145135654,0.5488716516672609,0.4507773119992859,0.3021852222389241,0.10058437062301837,-0.08457752979762392,-0.20813148879757118,-0.2995500166953776,-0.4094692515152011,-0.49166046405798863,-0.33771911740262944,-0.2297533320365791,-0.20791534238472759,-0.24668733243935997,-0.3460531712532957,-0.4925099025715148,-0.587368393973213,-0.5838122543829188,-0.5692497002965393,-0.574323563989946,-0.5795099051524576,-0.5666547700615938,-0.5352565634293261,-0.5153404967577236,-0.5266384532106905,-0.5538294346238835,-0.5593590753119887,-0.5269337685798309,-0.42373769828842006,-0.15398136467211168,0.3523905754399894,0.7511679323643532,0.8947550828632221,0.9356924930643168,0.9463116303399104,0.9452400981897633,0.9383696231773994,0.9271954754751306,0.9115043127003386,0.8893689608645466,0.8523869767987209,0.7779977994011057,0.6078587603154538,0.2447553661886152,-0.2560043613959685,-0.6168491820951115,-0.7797623833470777,-0.8390519894720619,-0.8437349680576481,-0.8031620746303367,-0.698184051183054,-0.5096649315089253,-0.2945446813705483,-0.15078585815819132,-0.12312513688526806,-0.2156955848518252,-0.39159167977845305,-0.5590394933150337,-0.6660049889640739,-0.7186978098733606,-0.7397324650847077,-0.7436904074407017,-0.7440123181868062,-0.7468334887609959,-0.7503382263511487,-0.7397978218476162,-0.6952442051072656,-0.5824718785907322,-0.3559201251919058,-0.03002851835053425,0.23806195040538847,0.2890903721486249,0.21812251726645254,0.14461441830362293,0.10884599754515172,0.12033752142776098,0.1832717049613141,0.31046557970177396,0.5003167388659838,0.6703428837788031,0.743514664857994,0.7439649479695052,0.7156317659696284,0.6846920946178764,0.6704210400731442,0.6722660101121499,0.6791030718372315,0.6740291969311065,0.6591873231194024,0.6439719417672485,0.6282727584357307,0.6065116763661638,0.5753657880169739,0.5308376977044261,0.4662017825914445,0.3943595397848422,0.34256468328219886,0.3114719179315553,0.28497386779121936,0.23608183621962667,0.13843601821013343,-0.015076786692517953,-0.20930393924334953,-0.4011903805455351,-0.5494640090009453,-0.6371626375480446,-0.6709203690774015,-0.6616154569494187,-0.6176438495781668,-0.5543518175846213,-0.4943518618902088,-0.4585236836089024,-0.46221410001338176,-0.5053427893987942,-0.518726570259856,-0.31568048435089563,-0.11430448820884814,0.022256013221014663,0.1329940092334685,0.2158051405335254,0.267832316353019,0.2875356352211681,0.27755896010394826,0.23618424479201605,0.17016370767727496,0.07816612793898252,-0.035698904164129505,-0.150350517463854,-0.24557311172305146,-0.30097123352149546,-0.31225549267056485,-0.2827463181365462,-0.22656982337538206,-0.16380889626730044,-0.10140946325188845,-0.048433436802123385,-0.011632659861880066,0.019316212967994184,0.052733670732738235,0.08228137689953295,0.10038038584097195,0.10643331169336792,0.10851488965976026,0.11467601388627471,0.1363016877074353,0.1766809595417684,0.2281874849856057,0.31644509380943536,0.47096033692693157,0.6548044003994813,0.766820535957557,0.827478625001199,0.8623092611504788,0.8102441113585557,0.6738284640475913,0.5503404926281638,0.47506822155236383,0.42839030197217265,0.3906140861720961,0.36212900722310315,0.3463791673977426,0.33688536675965214,0.32423051016594057,0.3044317703933537,0.28353403807706695,0.26591345883322587,0.24515961762449678,0.2130266567363456,0.16151689234910901,0.09621612196398045,0.035369212380025536,0.005558312989508728,0.03107860821976174,0.12075083860878968,0.1559215821316393,0.16373137519724146,0.17040523266674784,0.17659870929080035,0.17803595051447124,0.17286570854807262,0.15814389692796743,0.13634670082740638,0.12376915595069421,0.12976356368176994,0.14977718789634326,0.1727540591755402,0.16791503705671965,0.025448000018463014,-0.1611031738911644,-0.2570712094509638,-0.33596927592205317,-0.4213674530990171,-0.5143746120057078,-0.596525438994039,-0.6338090440085523,-0.6207570951040882,-0.5978186476322443,-0.5996474737736341,-0.6306896212442918,-0.6687219737248137,-0.6789642888315648,-0.643626651864888,-0.5681334251317095,-0.47921292717085867,-0.4018597854669893,-0.36225768377298134,-0.3654028781759337,-0.3878541498761945,-0.39841203973627964,-0.37700050809528546,-0.33052889254974527,-0.28064895829471176,-0.24084286003073105,-0.22831715805173802,-0.24077618637572376,-0.27051270102282493,-0.2967150807156043,-0.30898007135280686,-0.31446869279269746,-0.32019339296746846,-0.3174214170707893,-0.29740478532258274,-0.24970109655663478,-0.17273307908404348,-0.08120008294675947,-0.005765331805010307,0.036372054106556445,0.052307552741703296,0.05831976137503571,0.06233555585864553,0.07411449598286209,0.08482664446396831,0.09418171060600738,0.11646914792699402,0.15716424389552403,0.20405971680374987,0.26028102897418515,0.3221931702107031,0.3826713546349982,0.4191968317028451,0.4247815424114304,0.41764291855253316,0.43034242502041226,0.4454415926386154,0.4482837792308347,0.44230472863281944,0.4387733099568383,0.43896729019157205,0.44760995566456785,0.473446863349595,0.5202596250033917,0.5802953026242196,0.638078705216269,0.6924681255573408,0.7430855381777904,0.786937353746439,0.822676846003942,0.8535808653564778,0.878332973775288,0.8927984454331837,0.8931038947402011,0.8706805575785697,0.8036933769493503,0.634926685926489,0.31556136950149816,-0.003927657621790569,-0.17500896417240022,-0.2430016614662022,-0.2794220095498017,-0.33345234090661563,-0.4475016687278257,-0.6525329768422021,-0.857078029203982,-0.92190963419058,-0.9163204025749726,-0.9036403771613437,-0.8977049537969354,-0.8967748881892085,-0.8934563340872114,-0.8628762393533065,-0.781189143850377,-0.6808522506051811,-0.612174500088928,-0.5796868596511537,-0.5746533354650107,-0.5865329192251842,-0.603388622856644,-0.6166368812250604,-0.6177833158606836,-0.6011299293568335,-0.5626421643163779,-0.5149329352566333,-0.47601726966540486,-0.456402761965403,-0.45539230926265867,-0.46241584993311846,-0.4595031086460327,-0.44297429095092294,-0.4156430504735594,-0.3838316066572974,-0.3431447876624565,-0.2849935415708919,-0.19964625188436377,-0.094610300168403,0.001264786569496098,0.06471155735944986,0.08952328234823383,0.12561498743018892,0.24672059525170298,0.4806484056164908,0.7305046215076467,0.8856922542381319,0.9553582153764976,0.9678352974054003,0.9441012850370524,0.9118601968629472,0.8926706053778488,0.8861937416880945,0.8817792610799123,0.8666448022736025,0.8222198578515383,0.7067047084911441,0.42980267628189844,-0.029168417806226563,-0.40753103669617036,-0.5844748564663476,-0.6227379554968292,-0.5447890152448718,-0.3176822879534116,0.04551864735591279,0.3684058037189491,0.5430868002346644,0.6058537555135132,0.5862745097869045,0.46501725061339516,0.18234177605404286,-0.2023721057961244,-0.4620764146787554,-0.5217057109827606,-0.3842033793382566,-0.14003076717934346,0.05890407069909199,0.16590433212772332,0.1982123987945785,0.18308480237777738,0.13642479807519103,0.06597175063031573,-0.02093503888080517,-0.11853836365284688,-0.2269133234656602,-0.3385303262178332,-0.45200990446619244,-0.550129052571798,-0.550815923554122,-0.40293842704150223,-0.1796770467524669,0.0622111956077704,0.2574473199210256,0.36862154801013436,0.4036167620800337,0.40000933837925,0.37140811900466886,0.3082503689477383,0.17250887652368632,-0.0582407017332567,-0.2810222091932098,-0.3960459375707401,-0.412495025899039,-0.3654951810932349,-0.300110270242108,-0.2693313530977531,-0.29074556344901914,-0.34307926125721433,-0.4016682865619057,-0.4508912810329335,-0.47260488885882673,-0.4672476255163646,-0.4421356836130698,-0.4156819275934439,-0.40146075599623426,-0.41556339409849585,-0.4672868636094229,-0.5351435633958734,-0.5860359469078191,-0.6062965692894445,-0.6037845248734734,-0.5871814441482969,-0.5634325995135443,-0.5333151749643165,-0.4699796188750797,-0.3284552841634751,-0.13504885720458762,0.02886709035407733,0.12891175697666463,0.17371477864155166,0.19211016997531685,0.20872436185528115,0.23667185651855577,0.28220251171307786,0.34778300423140196,0.4180718574678431,0.4910468142511164,0.5587399725612127,0.616279676569074,0.6560480729169406,0.6650883410822421,0.6445658572851733,0.5947043004239481,0.5161833041017835,0.4121215057417222,0.29657669623989485,0.197482974526164,0.12887202103897008,0.09486205655603794,0.08706175084598398,0.0984439619783606,0.13420901754381662,0.19783312908562348,0.28016034871689743,0.35487552559612345,0.4065096697542979,0.43319273165651445,0.44554760993995335,0.44545429399605513,0.4321907902395822,0.4035033397304455,0.355480741118591,0.2938456685511666,0.24654149428720148,0.22630914036407668,0.22576722203931415,0.23415826220611954,0.23405026432034215,0.2187155227161822,0.19619843261988035,0.17795983486104944,0.1752379626566202,0.18508255611122168,0.17878878908920964,0.11974016141563039,0.006138374215326467,-0.11867879654908339,-0.21003239929592793,-0.2524413584104533,-0.25930554528901706,-0.2563063981258525,-0.2776189749720791,-0.3274819849564607,-0.3791317277758887,-0.4049337518832017,-0.40628384990406263,-0.39144688220744295,-0.36939828817503634,-0.33936811171079684,-0.3079879325135593,-0.2837720937859329,-0.2780509243835036,-0.29845101823513576,-0.3425298168748304,-0.39492988051199907,-0.42829677164405866,-0.4300665761680217,-0.41431521561505924,-0.4087900450377387,-0.41015422299889326,-0.419221985022076,-0.42551200940045525,-0.4235714488989602,-0.40544089873772254,-0.36147688113133014,-0.2835994397807551,-0.17975508842347332,-0.08246369354721526,-0.01881241210306674,-0.000319448745304172,-0.03108067029140669,-0.0629270276016786,-0.05138171820293966,0.0006938779517854561,0.0790668754761417
