0.4393231732322879,0.3929289761302967,0.3467789499944964,0.2956173692310284,0.2376052080229171,0.1833786205476888,0.15209216941819398,0.15103629508265548,0.17764081002072313,0.21940326419599984,0.25395991198456613,0.278650734167719,0.29347175824187194,0.2960714013803155,0.2857667613408029,0.26457172608018775,0.22551099346524078,0.1678598525893046,0.0864353121025717,-0.015267401696917643,-0.10452640399878402,-0.17912973309072766,-0.22350817192507594,-0.14315038261848406,-0.04676886046092339,0.017379655983416627,0.06886059882640003,0.11221155177198827,0.13935498324344964,0.14222154306793192,0.118160160123009,0.0421674531994964,-0.11088534231732704,-0.25155038826231296,-0.29887099668505757,-0.2832919458311577,-0.25031849348877955,-0.2161242247003194,-0.18750918520260626,-0.1683648914329743,-0.1618024442390543,-0.16983133608786102,-0.180028721086249,-0.1784104361701824,-0.168586901019872,-0.16594212122094468,-0.18172662431426875,-0.23003486034379914,-0.3153875482396376,-0.39836985241852013,-0.42636086539017265,-0.4126786531634319,-0.3764125444097003,-0.32196523196147797,-0.25005376858708933,-0.16445918796907408,-0.07714886973291876,-0.004640404266586278,0.04420384858727559,0.07111554960269362,0.07912063728003471,0.0766445007188487,0.06090420780739848,0.03748766921416399,0.0170896620821614,0.019695053969558382,0.06953618010159875,0.17345888006883473,0.3008763579828024,0.3967124193918062,0.43848235775164,0.4329211419449546,0.3878152233831435,0.30790391517466054,0.19645206856820285,0.08467362749432727,-7.450146263873082e-05,-0.047394645063169136,-0.061486116328527296,-0.052291315391250925,-0.03187250380021713,-0.008897694714465717,0.013928234572457602,0.03199686748812214,0.04863261697365185,0.07801274557210325,0.1317801046569462,0.19969598791182128,0.2500947802936716,0.26515734188325335,0.24840208378329032,0.21705685369267838,0.18605795911112588,0.16389051374287678,0.15725385943781367,0.17158787749544238,0.19257818701171725,0.2002873495285935,0.19341916440659015,0.18083216861918466,0.16110899948601515,0.13465541355726401,0.10309197501710636,0.07123644265020004,0.04442987002411469,0.026219627684422313,0.01431738012073544,0.0053190758813932626,-0.004812347859710545,-0.01732840004644306,-0.029340593357436773,-0.037892796791546626,-0.04174420207782388,-0.04325939278059639,-0.04749832742068767,-0.060549236288215944,-0.09261382971590021,-0.16208920499503945,-0.21558989362267394,-0.15827071534469492,-0.12454838617290115,-0.11346635946758454,-0.10922633150353551,-0.10497666839594096,-0.09866642656048691,-0.09040613192323399,-0.07812109482044212,-0.06235673604022855,-0.04782012832861338,-0.03997144678634171,-0.043280782325176105,-0.05578603039729748,-0.07182291592658745,-0.08254726159562784,-0.08390128170335309,-0.07768751411718268,-0.06592340214299715,-0.05188444526098138,-0.03520903172156371,-0.017819912234654685,-0.005441832208172509,0.0010576940613830706,0.004259779819523708,0.011719997128308856,0.029828941461859545,0.057165277015157626,0.0929186367818548,0.1336707858570536,0.17300048045553634,0.20859285686094306,0.24152192963847954,0.27075568399257216,0.2958576981578484,0.31495857660876225,0.3241288040142492,0.3168255721744439,0.29377624040823025,0.2552719498983828,0.2123880422549433,0.17744088541752284,0.1635161844853732,0.17108176302006645,0.18986398329611795,0.21202245768037709,0.236679445933399,0.2592794088024833,0.27933974288200314,0.2929750428972549,0.2867214974028454,0.26125440094800306,0.2218544918054252,0.17713906463222337,0.1357034652036548,0.10266465564181826,0.06671256507677391,0.020180043786570366,-0.042747222018972325,-0.10583068342379555,-0.14974021537683768,-0.16930315862773815,-0.15883203900971873,-0.11542189947988454,-0.05486529384972057,-0.004604393723805265,0.02776712350358793,0.04043780955735079,0.03863229478815676,0.025574668617670753,-0.007591861552154414,-0.07531666351236853,-0.18454672750303477,-0.307459642231337,-0.3942885001982065,-0.45830232961469664,-0.5240094742095737,-0.5739634576299633,-0.5618846827692847,-0.5060322775569223,-0.4668765080530451,-0.45601873951721966,-0.46211971435047905,-0.4596580097298834,-0.435469601708496,-0.4147792332370897,-0.42055734127448124,-0.4389766232848287,-0.43439027673996583,-0.3960790893135976,-0.337734371417599,-0.2748265234510012,-0.22498219004824407,-0.1929553664371477,-0.1757321681656519,-0.1616257337689348,-0.13379533124009374,-0.0733724534243093,0.010243134255094492,0.09411682073573908,0.1652335758363089,0.21650951147833855,0.23999949318795383,0.2404173436327992,0.22794516873901935,0.20492487071973947,0.181917445070742,0.17188818929663002,0.18544512279930547,0.25020815653745154,0.4150329261681986,0.5228596080153176,0.48298551305188553,0.43723920248791237,0.4037937075681672,0.3696786585747652,0.33018332183189153,0.29838588015084383,0.29348576385189923,0.333906497282964,0.425456985476779,0.4703648686499462,0.42674600262779216,0.3801466167139104,0.3426973504296292,0.2968031209912827,0.2281239609723068,0.15011912577649014,0.08876100802156278,0.04829381654533993,0.02078550320303541,0.0006152272142032941,-0.014983494210485008,-0.026315973022191567,-0.033960085921628864,-0.03516211697695945,-0.028975471977874735,-0.017008055308441124,-0.00917664519193153,-0.009740153606773966,-0.021335240914112187,-0.05717170821321184,-0.14479180452472826,-0.28895575318069955,-0.4134442959256739,-0.430119064554177,-0.35986408481593885,-0.26345226298658647,-0.17328506287116996,-0.10477155005032004,-0.0626435273937345,-0.04470794821155518,-0.044170151429645865,-0.05509835392248385,-0.07063654437888771,-0.08554221064733719,-0.09860507157581815,-0.10831545279536353,-0.11198450354160198,-0.11288754641712877,-0.11870957730588691,-0.13155769846821033,-0.14508531788260456,-0.15311061685252292,-0.14893336995508819,-0.12638527668132454,-0.0864254765282911,-0.03850472515272626,0.008430564775028463,0.046630732192070264,0.07080394380211716,0.08104208261067754,0.08153585167241127,0.07409849432940813,0.06148572556050648,0.04506253450553855,0.025964468522422846,0.004655557238239279,-0.020344241430047594,-0.05073425354098608,-0.08766277507845906,-0.13268635421956826,-0.17708198383305865,-0.1616810163337881,-0.09499812119793091,-0.042155563424465185,-0.0022424583239828502,0.03352943633226341,0.06562540946726421,0.0867904182461648,0.08870179205183003,0.07026937624101695,0.04603608628286179,0.02805151860431126,0.025541361226654347,0.044796515144086245,0.08854331802600389,0.14479476387182946,0.2011048348332384,0.2441504096068297,0.26377661372400873,0.26633345188236296,0.2586726523111842,0.250535482204473,0.2497483773682287,0.2612697586922083,0.28765724755947575,0.3255140232147188,0.36243574256003297,0.3787776095181344,0.3675723013850204,0.33621281371561784,0.2945750965619344,0.25128520482742567,0.21520521356855044,0.18273857236575955,0.1484952772223366,0.11814591799124768,0.09907928557202002,0.08839974555177986,0.08071423802123193,0.07340288667035394,0.06994960710126545,0.06902128311304638,0.06684247028769212,0.05965649510412957,0.049569200943323254,0.039740708492918435,0.026496446012619072,0.00012502797454355032,-0.044507844680338804,-0.10177160746209094,-0.1642265340354756,-0.2146635721405004,-0.24038220536327334,-0.23666173854265363,-0.21773193505692756,-0.2032609451884697,-0.20297866207714144,-0.20835830499629315,-0.20394572513096001,-0.18292649178396597,-0.14552035993058254,-0.10258302537827521,-0.0650215748529737,-0.04675005815253144,-0.0630062848960228,-0.12425138103103871,-0.22813771067987407,-0.3404225514862789,-0.4106693229697898,-0.4300758758321155,-0.4225656207226223,-0.4011172464506661,-0.3680663136735871,-0.3203988150359221,-0.2544553118045652,-0.17467597131810758,-0.09104002587165498,-0.01294742946808082,0.0376630880706873,0.04164046807667975,0.007307808644036506,-0.021999543917874644,-0.020439095803720077,0.01595415122583832,0.06751363116520782,0.10336428708114949,0.10437854383663867,0.07911197264155281,0.049955545834189354,0.032771381198910036,0.03384091061880001,0.04796940886427149,0.06921115375598393,0.09360085188885924,0.12026707937873836,0.15768268032253727,0.22519108167497062,0.3233817538038788,0.3861557965993352,0.3583657582444657,0.2992544924600108,0.25289681450913787,0.227965418766104,0.2305501268402402,0.25959992151350814,0.308904497315472,0.364333514942176,0.40146429523042765,0.4039083171828647,0.37118993807168893,0.3114188078227774,0.233725458888766,0.15244725967511116,0.08526840921080103,0.03903268542850309,0.007882314345738333,-0.016922325825945824,-0.030922460121464716,-0.030062275160163777,-0.017818052949161767,-0.00521910259364351,-0.002156038447663303,-0.014732955049175812,-0.035858463157548245,-0.05405094886639389,-0.06328329965432716,-0.06263737215560013,-0.05705073872493455,-0.05336839079886323,-0.054653596157392105,-0.06252903681552463,-0.07973613597468653,-0.1108711211536183,-0.1611276738629592,-0.23282282580571426,-0.32006353699655604,-0.385231921206016,-0.3691339995570079,-0.293066793586076,-0.21348494688007966,-0.15642074023285596,-0.11743001801026962,-0.08590581134709246,-0.06279740491072776,-0.056553091831276825,-0.07935438247440305,-0.13781448971181198,-0.219479425718996,-0.29409201098777926,-0.33072310167548613,-0.3199320846422957,-0.2708409608715681,-0.2066563719005307,-0.14564487561084322,-0.09227427669983997,-0.044018222646658285,-0.002594288315137823,0.034779818287166545,0.07304347788891821,0.11672155329540984,0.16768626535682793,0.22458614515393266,0.2850102924125939,0.34917796899642295,0.4097871997890612,0.45787567529678214,0.48804695158634687,0.4920401412866081,0.4694267438051981,0.42041112532954217,0.35615193304672477,0.2920153855651832,0.23434189663313237,0.18236775592106597,0.13757911439161635,0.1063088040574839,0.09274007329101126,0.09985640218495313,0.12650864132387726,0.16413941356838666,0.18168436572326382,0.168628687152473,0.14889672815387064,0.13101362431114763,0.11539158469642892,0.10270062591130777,0.09246610287564401,0.08227464453824315,0.07123610755063062,0.06421428914545059,0.06529085562110154,0.07806670708482968,0.10470457204728492,0.14230789692019596,0.18559239589805293,0.22022227488621918,0.21638800437703903,0.15355855378600577,0.05626175100100965,-0.036914902502447194,-0.10052499240552043,-0.12339083077185159,-0.109462726510279,-0.0735813429511336,-0.034826605643547094,-0.011927228510155513,-0.008108205339905016,-0.02341047335811385,-0.05192083230426526,-0.08850207581628323,-0.12769713896281357,-0.17117705500752092,-0.21671659850279407,-0.25400835187336096,-0.2737102872591252,-0.28022066251951977,-0.28177057304236097,-0.28005492279548067,-0.2712808913106455,-0.2533095526767076,-0.23471557483922775,-0.2272832112090276,-0.23157780576350986,-0.23963238339547122,-0.24333523684995936,-0.2416563082384033,-0.23874024292547044,-0.23635438641170517,-0.23063374702106829,-0.21999889244082602,-0.20655464363970336,-0.18785366670417328,-0.1544935686439476,-0.10689486608782754,-0.05991289823326394,-0.037007440894714354,-0.04844178144555873,-0.08820945464714286,-0.13439138661438219,-0.16259239179667018,-0.1634850876146796,-0.14017975667525356,-0.09174628457955741,-0.016952372000787464,0.0772444235936498,0.1736380794029031,0.24741643128864654,0.29261567689847257,0.3252612784278388,0.360539698210188,0.40280090033753163,0.43984418457445235,0.472646591816057,0.499169104907319,0.5259025618184627,0.5521765087021582,0.5738395720850581,0.5779838332309164,0.5645559049671933,0.542269944367326,0.5197472766753495,0.5021768612155452,0.4834088631792933,0.443482408073453,0.35858587206347153,0.23140047141602993,0.10774414302495865,0.023437767649201264,-0.02035379020155839,-0.032656786485318445,-0.023145590079243054,-0.005427120989599592,0.008798725953313956,0.014040704427510022,0.012600840522279179,0.0076708736249868495,-0.007714412176324043,-0.03809487750511863,-0.08594082702655373,-0.13322311055649896,-0.16318115983118103,-0.18750059749048015,-0.2169005022410319,-0.24646175303850829,-0.2273598412996824,-0.15271423258501018,-0.0863525369156536,-0.04466900690565383,-0.025871074671598257,-0.01700627195864187,-0.016449939360711943,-0.022435349386373364,-0.04512257026276668,-0.11032685347257712,-0.24276940948170753,-0.42982575446811633,-0.5754963552996724,-0.6256771243899067,-0.6115089818900845,-0.5618405886096969,-0.4933773679820868,-0.42305017876620604,-0.35330554856735896,-0.2842516949778785,-0.2261732920491257,-0.1846230663262417,-0.16082382801670803,-0.15341231670731068,-0.16322283868252957,-0.18336041636406472,-0.19442473709401434,-0.18832978575252443,-0.17795300378618828,-0.16554845238249058,-0.13926138577821884,-0.06286839383452528,0.034676118081521275,0.1004611747900409,0.14979442068768112,0.2008514893849348,0.25254988967755504,0.28818499124600233,0.31674106288240284,0.36394302733789113,0.43774537794634405,0.5215954002120368,0.5730711292158375,0.5689549233848197,0.5312533760752346,0.4833194261622912,0.42849506717992325,0.3653007654343805,0.29750178701868163,0.23089265248023616,0.17521939632313124,0.14957680990642117,0.17476689341599244,0.24835056508075495,0.2986948076344612,0.29100165886264673,0.251006340363646,0.20044953591738268,0.15275580120144558,0.11774245198030221,0.10308774817975,0.11179219305446779,0.14154690182328453,0.18161226661021523,0.21950921421709535,0.2407187584356665,0.23506725988942542,0.21435390693538411,0.1927461729002606,0.17443767982585884,0.15824947785402657,0.1382330712670263,0.10336196774513627,0.047221498922260345,-0.0189793826286418,-0.07547854566095874,-0.1014117897687561,-0.0996064847760511,-0.09201464452071575,-0.09775309561611518,-0.11929422113250054,-0.15267748930302547,-0.19419776966843585,-0.23154886793774743,-0.2685286460707783,-0.33342515275031503,-0.4039120348672639,-0.4437472071917435,-0.4771632195841296,-0.43318083454569906,-0.29692875784769357,-0.1925708422730285,-0.13331323306964787,-0.10612905303418334,-0.1030556101322566,-0.11941873232478976,-0.14230227958140965,-0.1653346819173769,-0.18567144794471444,-0.20323137271999564,-0.22058244764586385,-0.23501682242266236,-0.23600320580860956,-0.2100648578351415,-0.16359166001884207,-0.11413931218002162,-0.0769353844230878,-0.06566437866742904,-0.09140877012201885,-0.14543503093115373,-0.19728414797363775,-0.22829389533011124,-0.23192929496794532,-0.19435766056487858,-0.1170937649741863,-0.027507632757759744,0.03924082526259839,0.07304732892048908,0.08387420132730762,0.08413928985341662,0.07889539918647998,0.07916845890891744,0.08793988966970955,0.09998935198077348,0.11295023430469582,0.13408648568569792,0.17339726545847106,0.2344061850419675,0.3107461872468347,0.38114319790263107,0.422624815958705,0.4249244522303988,0.39917700221578695,0.36388912889595415,0.3261652200193924,0.29127947901026574,0.2642316391704058,0.2540805539999036,0.2593829641626688,0.26851150558863385,0.25804146662074784,0.2240158579351514,0.18490378573589406,0.15281805034450133,0.12262635796000701,0.09053481531611086,0.05399086302109296,0.02271699229267058,0.011685435553133613,0.022643445489327355,0.05398972694602177,0.08756704381730593,0.10270362714901062,0.09571775328994234,0.07157474832584443,0.037021688641427734,-0.005002321695118021,-0.05559725413447769,-0.10689832467478669,-0.1350494691848004,-0.11555979481734806,-0.07322444851004123,-0.03508793606495679,-0.01930682865615347,-0.017301900914364864,-0.012668694014849474,0.006771126478576655,0.02906326227018993,0.03701203679172578,0.020291269297370303,-0.02622205412740241,-0.1018457396684057,-0.1892292556529505,-0.272171159635286,-0.343944503563929,-0.4055463171848661,-0.45852807795137007,-0.4956990730572642,-0.5092915404419026,-0.4929212026023332,-0.44916476070628863,-0.40154483594310464,-0.3671846977224743,-0.34726069741555604,-0.3385198118422522,-0.32859650670693663,-0.30515541335069724,-0.2700366962255201,-0.2220641511953491,-0.16921895489740882,-0.12288666642258811,-0.08287325131217968,-0.04574254487818222,-0.017547517349357316,0.0012750184985200787,0.006349094363900938,-6.503777084767234e-05,-0.007332923840576971,-0.0006025597047056115,0.02435573206996667,0.06579172656805476,0.1172195038694395,0.17218807384457652,0.22155999323765305,0.2580882511696553,0.28547700439417506,0.3169737460184262,0.34610038939728516,0.3656605175042412,0.381929454805512,0.41737142691312035,0.48846039084742854,0.5553398832701765,0.5226228509117691,0.4382402965929503,0.36683067672175607,0.31706346449772954,0.2827492350707268,0.2564719181070992,0.22901002440027776,0.19583298434956928,0.1597599021583669,0.12550434032546223,0.09393002133535867,0.07350296928047481,0.07925457607550296,0.11931446553453125,0.17414809957600683,0.23108717162232362,0.289860146365247,0.3436809103912479,0.37146179427068376,0.3429570554182076,0.2627113464897077,0.17514868673004247,0.10854785914102007,0.0636134471069081,0.028554436640207185,-0.006899219015632841,-0.050296617869011524,-0.10418799347506806,-0.17339472970811068,-0.25235195938654814,-0.3263672641460606,-0.3754497896891382,-0.3972439420781465,-0.3879238342435108,-0.3408638606550878,-0.2712612134474247,-0.20554659101189843,-0.159089587468214,-0.13395370608202284,-0.13468812582165762,-0.15029676735333022,-0.1660247087165655,-0.18188978575653356,-0.19422733131851158,-0.2017953217819441,-0.20812609035498777,-0.21903968069124108,-0.23416810709606198,-0.24953951487809473,-0.2596020911410859,-0.26388882020986437,-0.2662666436351049,-0.26375302817107443,-0.26439236438765595,-0.27165849547252446,-0.2778116917330167,-0.27678439388960063,-0.2687007285471373,-0.2564943941935648,-0.23921731359742746,-0.21147282395433917,-0.16486901031831586,-0.0942511059457802,-0.009948095370606593,0.06455256511701646,0.1181284768431124,0.15197371804470333,0.1759310190556964,0.19857235694718747,0.2232394151504903,0.24731490822744104,0.2684366908633654,0.28436140997511955,0.2919477237299852,0.2714018191778668,0.21414328764598034,0.13486943590498424,0.06119728314538811,0.008994674403375954,-0.01121903870481994,0.006229836197486643,0.07442005770115562,0.2088890231593518,0.37308765794051896,0.4895113193113859,0.5443972549249697,0.557734727180714,0.5468804865711739,0.5213346580100092,0.48692602648583677,0.44558113720275083,0.40151851386893,0.358057289708249,0.3205248121530592,0.2829446285618501,0.23699225582500338,0.17879874165525125,0.11095059479078968,0.03789583768234646,-0.028930135286385883,-0.0841495038421184,-0.1370221379961524,-0.20523904427572912,-0.29304585044393544,-0.38652971416776694,-0.4669790578577444,-0.5322533853509549,-0.5581557202943501,-0.5053649517363584,-0.3834676442741719,-0.2894773865984563,-0.2791651871623701,-0.36047991829021736,-0.543698798873777,-0.6820530594860328,-0.6615346638525119,-0.6668550131659365,-0.7259934434972187,-0.6134487892082667,-0.339987584217786,-0.18673957217938944,-0.1203928143778816,-0.0938470520534055,-0.08711130369484517,-0.09223123394457783,-0.10516586721463174,-0.12101383817757175,-0.13559915900107117,-0.14919898757644875,-0.15777452187606983,-0.1506625633772556,-0.11367491984153055,-0.049172438564723274,0.02822091489266755,0.09375662286084784,0.1287643595825715,0.14099594543006644,0.1253483453454452,0.0769989141345241,0.01880397751699233,-0.01612215523037731,-0.02551788193527562,-0.023589015456455212,-0.018534125859082706,-0.010956951672587674,0.0002632379379199429,0.014554047919123052,0.03219013736140566,0.05514921869462008,0.08532426407516133,0.12310429584458503,0.16733231994639092,0.21830240826793096,0.2760650093996614,0.3289355916307608,0.3182641761891875,0.2352269684594525,0.1994326882721935,0.23431957553061727,0.3298711720632805,0.4716075139965706,0.6114573076502291,0.6884712959678646,0.6895986952539029,0.6286576036763215,0.5090716137437016,0.34366009875343156,0.17896823975878248,0.05293657380797593,-0.030114727677596678,-0.0765954388814983,-0.09712822186628904,-0.09812114907838258,-0.0823721973878668,-0.056927954934182415,-0.03343372378459824,-0.01780415991813042,-0.013699216441241797,-0.02090040187740984,-0.04402365308614823,-0.08864881418131292,-0.1568259894864886,-0.23831327164791113,-0.30504477541682096,-0.33865291564285055,-0.3411315059681914,-0.3180165586895752,-0.27638693222103844,-0.22864628858534133,-0.18189774903270434,-0.1460694378435501,-0.12645386345696302,-0.12973919847113685,-0.15832356520819346,-0.17079718595578058,-0.18195181175510863,-0.21063552282205902,-0.24347530968678815,-0.21675052656369057,-0.1365051743731711,-0.07368107734648173,-0.036736670592290493,-0.020446166311724488,-0.023158256123480107,-0.042264503388597045,-0.06844809090152922,-0.08162160892481901,-0.07098088776787097,-0.04898181897218514,-0.03310997918812008,-0.028979737388177267,-0.03393270903937699,-0.050478335820840534,-0.06716500828609653,-0.0769141158128549,-0.07122414425352691,-0.0433399967821826,0.001047544652245791,0.045789244800814304,0.08432214060810554,0.11774009958929794,0.14748292007579863,0.1644116364903584,0.16447200955535154,0.15939620735514878,0.15770827190183812,0.1447243421828053,0.11795536636252428,0.08841713506879587,0.07402896203480115,0.10064973670015034,0.17170075289758235,0.26173451449658897,0.3370337773185015,0.3773246124105678,0.380623525500585,0.357315249519631,0.33126609671139234,0.304533869529673,0.28975054275960216,0.2958582406270571,0.31863885651654505,0.33483175465165144,0.3311446741736381,0.30729832692432774,0.26943746673415675,0.23144184236094462,0.1979724142124308,0.16412488901570604,0.1276928144306009,0.08868598600319935,0.04464082068825588,-9.227902964821702e-05,-0.03935223286798574,-0.06381119376714031,-0.06068636008202774,-0.028987275669519426,0.010434520884225201,0.03546757459568085,0.03471254617634689,0.011556660213504138,-0.014012601906476303,-0.02447808881929577,-0.01386252221181439,0.011937156108782598,0.04355343731978886,0.06761689875671142,0.08331021917480395,0.08994941949068411,0.09398926344003583,0.09441847341894681,0.08826617361926802,0.0635524925574111,0.012452552280287146,-0.06368744949773875,-0.14232162247953656,-0.20229085010821674,-0.2507249210168792,-0.28971561563504283,-0.30554203463342255,-0.301146733788741,-0.29158351159172524,-0.2783957444397525,-0.26023547011143483,-0.23931716915122292,-0.221845756482651,-0.21403327281126847,-0.21661630875768048,-0.2247858524112661,-0.23346140466313994,-0.24149285540031012,-0.25496063404579006,-0.2788326840026729,-0.30909406069463297,-0.3280299854536791,-0.3161511884860151,-0.26276673450206384,-0.17778215528646263,-0.07856942512517448,0.019704695200482555,0.09823345992599525,0.14273811133980904,0.1540425254563628,0.14657913101084358,0.12839691436481757,0.10650907504497543,0.08198496707078601,0.05400578888701966,0.027271352114622005,0.008366439277832429,0.0006479235973109696,0.0049435234033380505,0.02056114799019302,0.045969119567697815,0.07679932049772402,0.10466802732533698,0.11627854593268135,0.11171508574833201,0.1128156141305908,0.16272912216893154,0.31856192868939914,0.49068533065230774,0.49441322381018027,0.4657571587608465,0.4433807221562224,0.41745960284597544,0.3722502912085425,0.3012076046238196,0.22872353122962855,0.17601653504154588,0.1457358034302125,0.13545016392282425,0.14096946806572944,0.15384405897475265,0.16600747441577154,0.1698589575344393,0.15973229778328152,0.13938572755936518,0.11492617256402436,0.09047441225253049,0.07201516998294442,0.06616055047960953,0.07251623789104195,0.08692983334766234,0.09747951997049509,0.08350598873106721,0.014900717037997157,-0.10552250465673214,-0.2222923513122197,-0.3274435188927114,-0.46458377275662693,-0.6038176285264037,-0.3491365441227856,-0.14425592805274057,-0.05923613290739977,-0.025621400003443925,-0.025937629786600764,-0.06739807160975782,-0.1583086518238837,-0.28128698657985085,-0.37088442096661844,-0.3952271856962988,-0.37435765565904827,-0.33348827177894014,-0.2904965314893335,-0.26336753047657213,-0.25684521754124645,-0.26733905702257305,-0.2920389992940534,-0.32248712471165075,-0.34352452054198374,-0.342531995489308,-0.32547430643558295,-0.30321044419730886,-0.28190636682789744,-0.25781942577898576,-0.22026747248812456,-0.16660363854150115,-0.10564156092551961,-0.043705737157996444,0.013158471653526654,0.05436680014324159,0.07056595566770107,0.07556217420677219,0.08340244083211065,0.09993276733423052,0.12881827313118968,0.17526721152626693,0.2363773723014605,0.29440856754645084,0.3205985388078673,0.2658545393943256,0.12468146142436982,-0.01184271211290736,-0.09037394213348836,-0.11491316101486258,-0.09765150283879918,-0.057360536120717114,-0.015060096929242815,0.009608878025298745,0.0035613193385722395,-0.018997586622005406,-0.029250322231538037,-0.012052755378108402,0.02911421097082955,0.08409695998915714,0.13779187114016397,0.17202554149308905,0.17706262740788997,0.16442947624630383,0.14970658093066008,0.13513880725159821,0.12144220485107964,0.10864594039209936,0.09760426125169193,0.09010316742702103,0.08658896768982274,0.08793348755405027,0.0943394919692738,0.10691046509827705,0.12679236001937438,0.1551093070347973,0.1863829556649803,0.20376998231656074,0.19089075989553536,0.1594895439041229,0.12264593444867428,0.08001880363373985,0.02845004815701619,-0.02752392825290995,-0.08068454646206333,-0.12908427561796137,-0.17489149411572757,-0.2062944167747218,-0.2090106706729655,-0.1821572860216824,-0.13226070038457857,-0.07966401209429552,-0.04880019248638038,-0.053025797503590544,-0.08896596705544242,-0.1410394411421917,-0.1729838629948011,-0.1714859941330467,-0.14373877621449546,-0.10897326212819668,-0.087431523177755,-0.09883008853538511,-0.16123535216199647,-0.26179567800034914,-0.36104528349770404,-0.4321177904944417,-0.4710485119105613,-0.47144453987816315,-0.43285935306747686,-0.36414019131756575,-0.27936213645647273,-0.18519929715056196,-0.07646849582648024,0.03839752668404083,0.13548020579866166,0.1965893506099838,0.21878948804394732,0.19526850740725848,0.1327667723035483,0.05000014631612315,-0.024023785156239798,-0.07931623914179797,-0.11448773640689223,-0.1331760308369711,-0.13563678682314007,-0.11689961674755141,-0.06838330588958333,0.007157217798802103,0.09264321394806913,0.15769260217229383,0.1866292330668891,0.18770073803285772,0.1738042303480495,0.16024748487596574,0.15829853434560678,0.1784031206608782,0.22188135347330937,0.28882885367562033,0.367125044310827,0.4320484610856199,0.4556193966013214,0.44850949389556116,0.43263455195655987,0.41846834003250305,0.4042806011020341,0.38378522368324003,0.3490310939026543,0.29040467168307504,0.21264896560386842,0.13731283725534577,0.0852594428399869,0.05973852133601792,0.0539756425957276,0.05780243902028677,0.06853814837225533,0.07970275439518142,0.08684956794289651,0.08971715997935659,0.07865288354199987,0.03572015624026954,-0.028735122998616632,-0.08635676786499263,-0.114285807155804,-0.12958094025208572,-0.15286693694589576,-0.20403900026748878,-0.30693284664079795,-0.38296752935554307,-0.34414196603295083,-0.33000266907076736,-0.36242555446163327,-0.4465275370589059,-0.4896651441480635,-0.3423451464385355,-0.20923456967681792,-0.13273928119588635,-0.08881434754247564,-0.06829863460269074,-0.07808229743096225,-0.13104254159904002,-0.22194845135993044,-0.30344717134248533,-0.34306960926505836,-0.336909790856627,-0.2901746933599592,-0.2291306820502361,-0.17807956625386623,-0.14120514034095705,-0.10908753159725812,-0.06235319579382253,0.017980106181494482,0.12270009335287148,0.2097447130514908,0.24872546372838403,0.24674641541645626,0.2154427565757592,0.15212663787692737,0.051428826440386835,-0.055383923084551104,-0.12691246996151637,-0.16075182378265182,-0.16671220970624964,-0.14928040982603982,-0.1135135805323671,-0.06620303264124379,-0.01917462372357067,0.02356866890015162,0.0653424312354297,0.09942785629212894,0.11866754352380075,0.12079867963435964,0.11312793679092575,0.10537277184860497,0.10351779874768292,0.10799069566405779,0.1257382048207971,0.15895360858032903,0.2012645785373741,0.23432075063915822,0.25355882442925043,0.2704643739466829,0.2914831749249046,0.3168459637157063,0.3395358500649462,0.34785557826839447,0.339158675047993,0.3221726522717283,0.3159106885536801,0.3245125118838461,0.3402741166751757,0.3453213360222717,0.3331720239574056,0.3108857094985261,0.28347509162234996,0.25734032570484866,0.23269319924112317,0.20821005848085658,0.18950318641619218,0.17452768360914694,0.1515719339605407,0.11321955040563106,0.0584322611992563,-0.002276659196227116,-0.054768252948176305,-0.09371592292263238,-0.11921756979010485,-0.14140110590122262,-0.1538475997042993,-0.145999534208069,-0.12591505248627097,-0.1040871202140022,-0.08735851043850186,-0.08044442397501352,-0.0862388119237162,-0.10569509693320281,-0.14227180315955318,-0.1990992501891278,-0.2718458115604225,-0.34541760450174425,-0.4020718323237465,-0.43455939676167504,-0.44245120046971514,-0.4307899994856452,-0.41483587630669533,-0.4062132344280859,-0.40459081274499814,-0.40440070684900276,-0.39672584139766226,-0.38444404453649883,-0.3703740909126908,-0.35089067655374817,-0.32119993055436374,-0.2785044906200829,-0.22883107064868732,-0.17474150551770706,-0.1180596394730649,-0.0622659783681498,-0.015968294325316365,0.012530916992683295,0.03163548297704824,0.054838780898627024,0.08414509032319291,0.11421988307299945,0.1543053141846917,0.19795426054524493,0.24526486496379746,0.2967139730436074,0.3511500169763372,0.3999968543567856,0.41299704690261607,0.3645209711988988,0.31016902482032266,0.303618340046389,0.32427104162832643,0.30829270459062813,0.2618033186021092,0.22000965468785982,0.1890639090172882,0.16823677970302445,0.15907713598466386,0.16968450089575043,0.21271030786504508,0.2961283462077727,0.3662092987255045,0.3330656247678885,0.2816922365541748,0.2473708899206516,0.20243471222255063,0.12796097988345234,0.06423429066045246,0.024540338254115793,0.0019171979614686207,-0.011880547228791057,-0.020828707941012835,-0.025339177666815624,-0.027159801525159122,-0.028388448049528153,-0.02886880555304697,-0.02918014572713214,-0.031171473794368403,-0.036343971325773994,-0.045901474378066416,-0.05968234570203066,-0.07008781577604925,-0.04974418039757417,-0.0262465511907127,-0.024694108910388222,-0.04064204584500316,-0.06463405850975973,-0.09112549594327794,-0.11664528165799297,-0.13857231559847372,-0.15558010046162987,-0.1640761325503486,-0.16585032640614597,-0.16556878075172532,-0.16440367543838733,-0.16030551213974167,-0.15164427617791226,-0.13806867638159248,-0.12188969106177196,-0.10718717551583468,-0.09628052720848716,-0.09162954028894263,-0.09087205544034145,-0.09002173095263521,-0.08627140756262491,-0.07913039072441638,-0.07141659884503687,-0.06448131166624013,-0.0582370097916031,-0.04894530668535952,-0.03696993078366188,-0.024764801866519602,-0.011089719913372249,0.005511355970523135,0.022865892451297953,0.03840733519179712,0.05021012891490619,0.0583141924904118,0.05956412102928371,0.052891537479612956,0.039883315867754045,0.025365906114674562,0.00849617087631737,-0.0038440540182497185,0.005597995757375483,0.03813461569218897,0.08045109055228815,0.11364511824439118,0.13890021914072012,0.16472576378665715,0.20331320334051425,0.2637288983467976,0.34638978456725616,0.43267048232756483,0.4787014224523055,0.45860363526771325,0.40724097339777154,0.3630530744209533,0.333910422308578,0.3084362287035044,0.2853052002486842,0.25704476541201654,0.21997171540294547,0.17444018137685016,0.13448147592036697,0.11722181886254351,0.12502225081662965,0.14901082781967304,0.17707284686800284,0.20241795385244185,0.22241409765812398,0.23457342194749858,0.23150554339233664,0.2066463550535382,0.15878695704175586,0.09705522751978808,0.036778707622208105,-0.01530670341381656,-0.05834248483366653,-0.0915151627458027,-0.11238982716955273,-0.12201602459148911,-0.12345736050324822,-0.12660507871653232,-0.14153057518150042,-0.16874762963178744,-0.1973985785732943,-0.21684291323022908,-0.2217989800184958,-0.21428799627468106,-0.20020616418676024,-0.18650473018872066,-0.17980155563856792,-0.17614177411293946,-0.17622728705347956,-0.18007383830447649,-0.19121150287322267,-0.20854361026386153,-0.2365859837117659,-0.2722091948001328,-0.3083471348759856,-0.33318275589175184,-0.33063034405768765,-0.28115436938928895,-0.17275881167796675,-0.0517854276303823,0.012741808380237592,0.023130537659682673,0.004798927241109065,-0.024610313637979806,-0.05124956924171496,-0.06053037520226693,-0.051396060800633955,-0.04295657835451174,-0.04690927088429071,-0.06651060103325773,-0.0957347772500005,-0.1188319375744445,-0.12535068035482316,-0.10610505845973171,-0.0550274257645211,0.026331563062080114,0.1368383748145648,0.2758207219102367,0.43414433404873065,0.5860171056706664,0.6885853665205023,0.7207600248162698,0.6894246415124926,0.6090067363223751,0.5044413909046713,0.40216284541619096,0.3176915523301582,0.24669505718758697,0.18257696265491824,0.11943942473474696,0.06110929527798521,0.018070613557098974,0.0022202357689139335,0.012225921053018719,0.047924639727841764,0.1054396614768934,0.157870473398856,0.1786711824141272,0.16507154550110234,0.13769859897706835,0.1133143725029476,0.10211750141123034,0.10334483834314731,0.1035015658934365,0.09781348303183583,0.0857746089770939,0.06985028716980023,0.056238031841097505,0.051867423489437084,0.059809352081756514,0.07596962309235782,0.0892868160498593,0.09354547077075688,0.08921850225907918,0.0797316919023485,0.06428857137742716,0.04608009730686222,0.013427995496932025,-0.046579740398510226,-0.12503146977122181,-0.2051686720370669,-0.2795502944365355,-0.34516439708147684,-0.4051289615156803,-0.4660767129007309,-0.5302854769996346,-0.5525112910863125,-0.4916881897135175,-0.38741467979766586,-0.28761688218525683,-0.20625575394951845,-0.1459457362639559,-0.10820276613955503,-0.08823833553143408,-0.08317539206248922,-0.0863985644116707,-0.09029420969299533,-0.09219339522272661,-0.09201066901434903,-0.09278686945083718,-0.08267442251424428,-0.03308472002084071,0.04218736586267954,0.10528376269622924,0.1544596173706318,0.19250159065404807,0.22317131733837733,0.2458305551857274,0.26247612741952275,0.27483091538430476,0.2871005066482068,0.28757800215515517,0.20983179569169508,0.08076439838966619,-0.020408660488594816,-0.09332300884390017,-0.1432503289736984,-0.16689039706542505,-0.15819815474840113,-0.10646072211628624,0.010999028207564434,0.17802535819766357,0.2682647518822283,0.2629932929691829,0.23287076673787144,0.20568636770525095,0.18607999622665058,0.1767951654611179,0.18078942531311548,0.1975876964144794,0.22349747444275195,0.25092361754733056,0.25069186106778757,0.18778580407223416,0.1149464435632574,0.07425915146743613,0.059672722501081084,0.06372016103396966,0.07853665484511907,0.09703393367714548,0.10869739677300597,0.10122007644275098,0.07564698976984277,0.04928774639147016,0.039179482504313065,0.05037781217057,0.07665465135132418,0.11132262023815666,0.13141731470477358,0.1223536706843207,0.09980234934766395,0.07636147004465181,0.06125509715752958,0.05720723948289889,0.0637802845731253,0.07509919745433764,0.0745657586253085,0.04934398137410086,-0.0026387402704656114,-0.06371768251670722,-0.11865195223121855,-0.15433039289078435,-0.16829860646221292,-0.17436844409192506,-0.19645906854801,-0.2573742981593712,-0.3642042418395593,-0.4965044248670257,-0.5951576063767382,-0.6066735119112693,-0.5383616731355892,-0.4469665615459903,-0.3687014596944389,-0.3085196258284712,-0.27018630008622074,-0.2525958706694439,-0.24928608649098974,-0.24596498253981952,-0.23587509830346376,-0.2195386125189393,-0.1961699273988853,-0.16239531677373267,-0.11485653620964774,-0.053476471560919725,0.00633088477257245,0.053187434790968005,0.07790253876284725,0.07345107055764197,0.0397608327697463,-0.009024227933242835,-0.055907177655659945,-0.09022997874726266,-0.10890075807765646,-0.11064488485740041,-0.09358682475252897,-0.057234825418770494,-0.005330905166188944,0.05208379180557185,0.10875547607770458,0.15681022763682256,0.19981200648552613,0.24581484880532145,0.29261992753918814,0.3341250484643274,0.36364823037991917,0.3866116168018063,0.402082325884669,0.39685666494566046,0.34819170439267605,0.26001786315585806,0.17211596113058603,0.11657428248258057,0.10627871241885106,0.15802459037858835,0.25172727395062766,0.2609154410536575,0.24272989157739555,0.23620139576136087,0.24137579953706195,0.25076415506337574,0.25822038118929114,0.2623737060948597,0.2598269605223514,0.24895638408355716,0.22448230855780654,0.19290532423057274,0.1608102267014265,0.12718177109164927,0.09700594684646785,0.06369106845109977,0.0228432070472173,-0.02927406827947067,-0.08670091269745453,-0.13398821596733107,-0.15939788682708853,-0.17647267765801453,-0.19423800532689314,-0.21456341779355756,-0.23199496441964107,-0.23835530509534905,-0.2255315171397817,-0.19186147935178113,-0.15232513509462006,-0.13052110278393922,-0.13860582925434173,-0.18139896556801613,-0.25652797890633317,-0.343367653551643,-0.40783381965189197,-0.43456365515033596,-0.4370161096807013,-0.4099040030346396,-0.34867053252227276,-0.26193467624531525,-0.17692603965112713,-0.11741436463416836,-0.09345545042147985,-0.09762088044940956,-0.11504280220032381,-0.13054574832973945,-0.13936395560055134,-0.14512933367629793,-0.14723818190188215,-0.14845327485574,-0.15015688954449416,-0.15511075812451489,-0.1632711350794073,-0.17046371438227828,-0.17131900443771172,-0.1561648620194884,-0.11342821338260002,-0.047059291091709386,0.019201450504813266,0.06786381519344611,0.087489491882814,0.08484908602637956,0.06590264658369017,0.04813227794186166,0.04266030980453413,0.04671812276069487,0.04935575050221199,0.05346367384385113,0.06658918095793799,0.09942711952082835,0.1686759533355989,0.29019873778199107,0.4431422287211018,0.5499362660994778,0.5839911776335989,0.5727578845707981,0.5362724064969586,0.4915836677819404,0.4432163102500718,0.3868070492274187,0.32258524319622023,0.26019558644455404,0.215578498171633,0.20201029016304708,0.21599741114995638,0.24605943335519437,0.27783299580719534,0.3007663003108896,0.31032196055727235,0.31404715862257954,0.30392120544973317,0.27991066508734586,0.24571801347931418,0.21133707263245807,0.18262553145150454,0.15884675252441766,0.1418570972068281,0.12908973824199294,0.12219846341621468,0.11332574635949326,0.09397589759257165,0.06090258857054712,0.021547921060307354,-0.0131420353001333,-0.03715282491421879,-0.05114496861977853,-0.05776657819558937,-0.05796390561018007,-0.05858812230927826,-0.06746351334604075,-0.09028926162410031,-0.1269901254453426,-0.17103558768598467,-0.2151631199051026,-0.2499829787081365,-0.26711882437223955,-0.2550618665221934,-0.2262160036498388,-0.2171974541022632,-0.2380296746557905,-0.2819770717667005,-0.3387065039061711,-0.3884362611153418,-0.4110622213262222,-0.3956406535961647,-0.3421325865914646,-0.27571863478452513,-0.22711208957938708,-0.2055734558000209,-0.20641462135013072,-0.2141876933496979,-0.20639152208897235,-0.17027743459377534,-0.11212973266627825,-0.04497685826316987,0.01619585785688423,0.06157081219926497,0.09077946040082932,0.10795754107584686,0.11807679990979779,0.12145059845215528,0.11079559169097447,0.087374009614725,0.05807813952159881,0.03808594934630039,0.03353623541434012,0.04322970185229063,0.05801273648609074,0.07489087593720556,0.09032067281281615,0.10269871842477937,0.11292593276787392,0.12205873240947822,0.13104469030018234,0.14184387314158478,0.15282230288567777,0.1628947348138581,0.17156708794636755,0.1743718076210211,0.15926437184067027,0.12807618772659468,0.10789112908407739,0.12068867214400483,0.18155569019508533,0.27046035936294427,0.31905127981816955,0.3243399621255988,0.3101255730696834,0.27912472475118333,0.2166281532682577,0.12700876036773787,0.055045280534245775,0.03163043821230284,0.045489435881684095,0.0685298778719394,0.07896987853831013,0.07621481947162127,0.06085977071847612,0.029252051188044453,-0.021342651763806748,-0.08385090822642866,-0.14798463532728223,-0.1806852584312182,-0.16209189923606615,-0.1315905635025129,-0.11054934444910894,-0.10239723315104061,-0.10387874955982443,-0.11406769524065194,-0.12571807039718355,-0.13565134808829485,-0.13874557566565512,-0.13355066310802602,-0.12033792931199411,-0.10355771133355067,-0.08337689986463995,-0.06159872844006281,-0.0446101308285016,-0.038151007414972356,-0.04507478040660975,-0.06550732648932399,-0.09655187115143926,-0.12710247907341884,-0.11763920551129727,-0.039375854857938215,0.028515814421116045,0.049131274977757045,0.0395931955473153,0.017202247653095002,-0.007665752690387308,-0.028848231157328454,-0.04664086091679706,-0.05869036222942398,-0.06273620938046086,-0.05909671086793953,-0.04759180401674206,-0.030248207159482832,-0.010281457956993943,0.006835547250140744,0.016626631208821636,0.01909758964018958,0.020349777093277746,0.028658244122035752,0.047190185667066585,0.07333922073415773,0.10072508509829976,0.13265623750301292,0.17132643139709539,0.22393376208861399,0.2863490775744631,0.34557109742369896,0.38368266024945336,0.3906712508504206,0.3702442223867517,0.33284588051499736,0.28714045293159146,0.2461514262106761,0.2226747259841826,0.21764276267861782,0.22802330692852074,0.24360025821130718,0.2621151466364892,0.27794687345791513,0.28877239634221824,0.2956576365307077,0.2957131831297809,0.277194857143787,0.23675868941711972,0.1817800646912068,0.12706090906524922,0.08342009357377644,0.060698751150995274,0.06010445903890987,0.06731660050216204,0.06785543009206782,0.05560657114520686,0.024453976088177683,-0.02239967703804207,-0.07626759076549809,-0.11862058697985306,-0.13195815175221415,-0.12895396863825767,-0.13344866875724753,-0.16550916567865503,-0.2270196245399432,-0.29652936890782566,-0.3489615253158678,-0.367871561225878,-0.3461034462915673,-0.3008606979842887,-0.2583549138869844,-0.23187173554435822,-0.2209548471302683,-0.2240184542196813,-0.23305137985521848,-0.24321070884546386,-0.24613370001867257,-0.2399073524810235,-0.22644425511745023,-0.21518728261406128,-0.21525510824825195,-0.2273095990838668,-0.24371025882032038,-0.2545308202423522,-0.2598749856878109,-0.26212494913875467,-0.26509701828976,-0.2724433710228206,-0.27887035129058624,-0.2633688852958359,-0.19413732785913765,-0.0834657056556432,0.017492848174212247,0.09825066411175425,0.16142526103187152,0.1966890828386009,0.1780110771084024,0.1187880015075598,0.06257992596141322,0.023574499983009648,0.001964761579232968,-0.007076221735784731,0.0006165886276712085,0.02545583112902467,0.06422017954651538,0.11024601525441675,0.15625763009068758,0.19430197144066974,0.2198264260634246,0.23581807956290357,0.24711546098865814,0.23894162263031632,0.20148727816175255,0.16159676597533407,0.14080804985841774,0.13975465532102355,0.15525148815930973,0.17890474473133405,0.2024656235807068,0.21456155826980472,0.21361649184442405,0.20739280248649603,0.2054288740011348,0.21089137000664232,0.21767496184193394,0.20826242099955503,0.165310997643892,0.09826950477230842,0.04145826541986468,0.014682175768267474,0.01799592711999568,0.03223942793577998,0.04094941547042247,0.04296065753601762,0.04005943817674814,0.03236263842342678,0.018056820281216343,-0.017766874149468564,-0.045708660791233015,-0.026435152717726305,-0.006702059487474502,0.011135320439487421,0.02704929079867615,0.038167092660865584,0.042598458599147244,0.040774660344415556,0.03374418191285882,0.02216413705378118,0.006141058124283322,-0.014685100464389181,-0.04045840408055851,-0.07350014686569356,-0.12187779919173704,-0.20535260676823086,-0.29806136748208817,-0.28923816740656944,-0.2643109719674147,-0.26260496057482496,-0.2692496710681759,-0.2726707259883511,-0.26835521819214186,-0.2584510254667857,-0.24577523371953702,-0.23560812039637133,-0.2266911889400552,-0.2173908540167156,-0.2077542035261781,-0.1938064495856888,-0.16845784666088268,-0.1325306437352069,-0.09594911844039479,-0.06861893136712943,-0.04992780949015425,-0.032956043499577474,-0.010630118682481775,0.018088086365117124,0.038825216528167915,0.038256810760227876,0.019634040000709573,0.004908441455531142,0.020242703682620718,0.07301562131982252,0.14418906726866287,0.21082839313721458,0.2675018208275136,0.3188624965030275,0.3655253336526549,0.400355625955897,0.4183126157655292,0.4141500233969539,0.3900273439201303,0.35432308465086404,0.31373494797207213,0.2762037916872104,0.24944271979689198,0.23283919716914644,0.2106049190692135,0.18429971217381913,0.15336491824775259,0.12431230162166106,0.0960211268924656,0.07239730395099488,0.06044886000525103,0.06267338553162351,0.08110399691810534,0.10856526622464188,0.13121163734563507,0.12885892462575604,0.09089442687552568,0.027627037520538286,-0.04560102460320934,-0.10649461529997153,-0.13870716911592662,-0.13042383666775434,-0.07926269672129788,-0.015394101615797278,0.026743916615652327,0.04255884280275571,0.04639982016839088,0.04554005180411654,0.03978349576260845,0.02653934798133891,0.0017198846765112989,-0.02776439231981619,-0.05505284525375008,-0.08177704460823276,-0.1063298453099037,-0.11674399952322519,-0.11659919914256317,-0.11047063364526807,-0.10703804577433682,-0.10942246989477729,-0.11975026391305701,-0.13983320479420638,-0.16754300871919625,-0.20145001527606093,-0.21705257431015623,-0.17481791755474727,-0.11658760942831953,-0.07914831440858693,-0.060449578124281006,-0.05261412939326064,-0.048919033139866355,-0.04634355800884068,-0.045613762767563786,-0.051903795325227584,-0.06271831304153747,-0.06743888615215643,-0.05145977344857799,-0.01141767668215458,0.044208119792163846,0.09864330400178904,0.13655074251658783,0.14919054982402385,0.1332982617079119,0.10592881991267185,0.08386235869828332,0.06553167916603192,0.0415848460433285,0.009162953142102578,-0.020443681739078092,-0.03129876642220763,-0.010550989635234768,0.04568607699798096,0.13048437780865757,0.2163710306543124,0.26534978031111717,0.26430498202337177,0.2451436739007672,0.2360656376366983,0.2404940127802447,0.2620350196809536,0.2945684152126457,0.33123815704957565,0.36721799665109656,0.3932174442158618,0.4019565717406006,0.3923586537195783,0.3772891638582319,0.36743916454961273,0.3627346981091744,0.35003384429312967,0.31352658863829735,0.2523312565055666,0.18500693084212444,0.12659960180572602,0.08728651796236588,0.0599241245424949,0.04084277352403202,0.03396695633437338,0.03588730645174563,0.042745927783966936,0.04887263749936129,0.05536631060365733,0.0680784246197846,0.09226224177404105,0.1303566115182422,0.16842010215382167,0.16750179397974624,0.08269491280036372,-0.1094556677168362,-0.4049499193201246,-0.6700112360951593,-0.7734067922337672,-0.7846257507934513,-0.6278633258065704,-0.387609249040514,-0.2308399131678191,-0.14968735263570648,-0.11227858670685886,-0.09971859419383458,-0.10192592413454371,-0.11431444940008242,-0.14074507983331105,-0.19096833366746022,-0.27590353239677345,-0.38462017603138643,-0.4761405111704878,-0.5217075833592008,-0.5229759116361159,-0.4818288192043193,-0.4051273261291524,-0.31273024186740583,-0.22367092218572582,-0.16021933043488726,-0.12929303387087632,-0.1268082345229113,-0.14252401716921903,-0.16180792113781411,-0.16747159677568452,-0.15892902141480353,-0.13618383679654694,-0.10465297458520162,-0.07024642015850714,-0.038676902687768966,-0.012895174325488801,0.00660897812700749,0.02281961460478294,0.041909693471643916,0.06293477018585954,0.08787613167815408,0.12349186409239596,0.1770544115700652,0.23334528443026617,0.252512880445526,0.21799327199570584,0.1679995743264028,0.12724994986130525,0.09941003451075416,0.07982112385777934,0.07250162387014161,0.07904303521646974,0.10390219517940337,0.15134004612776658,0.21886379204827944,0.29090592732998627,0.34980796201694947,0.3827853150596744,0.37597189011198473,0.3323545127670396,0.2889575630163762,0.2713096243314262,0.2763692765466734,0.2891863506587574,0.2980571461422417,0.29668863693330916,0.29167852004621925,0.2832047962607748,0.2717055278717723,0.2561934535293086,0.2319022707807754,0.20083384430542112,0.17520412564955493,0.15833963094538236,0.14571501049966756,0.13314603672785813,0.12113590248533185,0.10897046125371633,0.09324213396799691,0.06896040944637548,0.03912460833971186,0.01390171921481176,-0.008428462013482588,-0.04661809388259287,-0.12186284585158699,-0.23013636540360496,-0.34120971086010105,-0.4284131923794856,-0.4746795117148926,-0.4794776846194515,-0.46340764306504867,-0.4454246242645448,-0.4258400320279264,-0.40209813141556117,-0.3758172345264547,-0.34802446452560093,-0.31384124322334056,-0.27697029286913943,-0.23610238718760673,-0.19136022699517508,-0.15409785166382234,-0.13163741661253875,-0.12306403967625086,-0.12833125795523462,-0.14413583185022122,-0.16428332708108592,-0.16815120791650154,-0.14418257703691828,-0.09551089778155476,-0.037102186633655575,0.012594655738685005,0.04641053381969811,0.062434063321667836,0.06275564289635648,0.057738482502480516,0.05599263955544947,0.05859449058803789,0.06178616120121077,0.04812798754125103,0.01420882063349412,-0.011649180745564012,-0.022694410224636214,-0.024108217973453097,-0.01916546679304656,-0.010918215231703722,4.704669147971084e-05,0.01421912459266171,0.031825416606653424,0.05297823405879942,0.07863703032321209,0.11275849251990068,0.16731406862644121,0.26595325474783843,0.4302695389333058,0.5330291707463062,0.489289790465642,0.4372074975951954,0.403917492119032,0.3702742926754021,0.33035929606640735,0.28388476019163517,0.23028784040067227,0.1737989663162816,0.12922853869545495,0.11080289131671722,0.12277555975618591,0.1472451549628758,0.14006799724570412,0.12455078429688592,0.11520812376714934,0.11150720597525392,0.10361498413265641,0.08259408823610083,0.037685091251839706,-0.0332849956336137,-0.11697915699212862,-0.19310585597324048,-0.24475838522409257,-0.26695772250383737,-0.2676105715352711,-0.25632003495073824,-0.24521103013291976,-0.2468722590775585,-0.2702304325761969,-0.3102296278061992,-0.3505197862233956,-0.3804376873182202,-0.39174421946419963,-0.38999673191340306,-0.3827719878757393,-0.3754925574531525,-0.3640525279486076,-0.34001195461936506,-0.30136002631217357,-0.24866502262541837,-0.19563927880631982,-0.15475217597526192,-0.11342305195665912,-0.06859333210690288,-0.0285368754199292,-0.003783031462435372,-0.004431587809366966,-0.036423574220685026,-0.08918941646741839,-0.1531085069803047,-0.20905213468087475,-0.2390904910022867,-0.24151690552332605,-0.2356959816489848,-0.22585611161554453,-0.20997167794179228,-0.18180345612344115,-0.14321059589287755,-0.10219937847694177,-0.06515033687067973,-0.03499257397198871,-0.010904587539200308,0.01117277475743711,0.03141181756969974,0.04838756951314373,0.06142405133079605,0.09547579553393906,0.16295782307960885,0.2547003265289857,0.3490754359259412,0.41783402321618424,0.4467673958745352,0.43981551180229206,0.42163527258460937,0.4003889220368522,0.3743540605226844,0.3355435979636578,0.2718140261534326,0.18227367077412746,0.08516294387173179,0.009047229124295677,-0.03611147816098051,-0.051289019388767655,-0.03768235794099643,0.00960872556394355,0.10267800389411899,0.23106239475908638,0.3172588055101825,0.30929186656571633,0.27086347879827904,0.2462948945011245,0.24272438514175185,0.25936883270247824,0.28502779785214843,0.297680491760257,0.2778586698625234,0.23815123761706666,0.2021107749980212,0.17677618361537692,0.15866570776113215,0.14125467040061823,0.11962910292965931,0.093142783728635,0.07090402800814137,0.060419452580568064,0.06061627191152608,0.06466875752635243,0.06614777052831942,0.056116147946302083,0.028043964811966936,-0.022884478609082194,-0.09764603868352441,-0.19613753891273156,-0.30044458176438016,-0.3842239420839601,-0.4329649972369596,-0.45078588611279286,-0.44930471298298086,-0.4341365407126355,-0.4140330290676571,-0.40443654483090336,-0.40407727121085174,-0.4019447074073352,-0.38866640629940896,-0.3683568417088151,-0.3488034561170149,-0.32929895797304987,-0.3094745587138268,-0.2824580784185915,-0.248170180974503,-0.2026191228404791,-0.1506861725590837,-0.10330968176160595,-0.07240498479534287,-0.06478332768254222,-0.07096989320613926,-0.07601811905540005,-0.07203402413039056,-0.051630070582594854,-0.014939451745391484,0.031757862842968464,0.08712266026439631,0.15015628700339764,0.20306486309669225,0.22528533535891207,0.2071334781313155,0.1538571860024266,0.0998591335626026,0.06923523064524495,0.07031010957546532,0.10609838899824513,0.18129456985232717,0.28670941005531225,0.40649165811080956,0.5178863449023856,0.6020690210957828,0.6459144822869085,0.6425053400927566,0.5804394920036618,0.4541459950727262,0.2991434534768429,0.1795318806250503,0.12206118645896533,0.12809722054301156,0.18330022794570747,0.2614562466100419,0.32746074370294176,0.36662432505471226,0.37650231992908095,0.36506368251345367,0.33652355843054654,0.2890416801771731,0.2182386186500133,0.13530590979570356,0.05016543979182708,-0.026847136472706704,-0.09266300669720225,-0.1403050476506654,-0.16432873850827645,-0.16457282194381584,-0.15555630978360477,-0.16369262393882758,-0.2042530975660601,-0.266182953007031,-0.33069279122190404,-0.3895869466750825,-0.44450650087069576,-0.5009457408635736,-0.5562550880619156,-0.6063745227133434,-0.6494066830487485,-0.6638560415164074,-0.6126649489416671,-0.4971884881384778,-0.3692945626992096,-0.2723862162184445,-0.21354108117108822,-0.1900802864298187,-0.19733514608391983,-0.233253069774244,-0.2870611509083914,-0.33912587172476116,-0.3771575344312789,-0.3906377514382396,-0.3808517498422295,-0.3502507668922797,-0.30745436771724005,-0.26029171144798824,-0.21008776434755705,-0.15585322099484894,-0.10295957438421877,-0.06824676379685732,-0.0452792763672604,-0.026314008019219362,-0.006310800616278173,0.015357073268583177,0.04161549625501628,0.0711990629049609,0.10635159177847074,0.14028529092859268,0.16090731205554384,0.17069834142446758,0.17913073282865344,0.19460939500743366,0.21558676470907936,0.2274978033616587,0.22867788085617607,0.24064784501370176,0.28049133748577415,0.34285087186702334,0.41271240067774634,0.47991706248922344,0.5372358650508081,0.5809680591125083,0.6066207332699427,0.6116231042308437,0.5995999272195767,0.5638023052676711,0.4910134172306251,0.37920775200060036,0.24605630307611825,0.11774434700672773,0.0178390922081207,-0.044000596040399284,-0.07687316976121102,-0.09427976011208246,-0.09800683853558749,-0.04294529606302056,0.11969393007505877,0.16044396575793898,0.1769014240563335,0.18790273472346447,0.19470489367202962,0.19523921290352994,0.18783097014773034,0.1722514558701768,0.144822029559567,0.11151554317559788,0.08197515531670013,0.054499781113190565,0.029936874589949307,0.00986195256908526,-0.01592495375242045,-0.05712163751561667,-0.10983482167722233,-0.1632060636144971,-0.21407691603700812,-0.2595676622080127,-0.3032063910757591,-0.3388370157624819,-0.36063874745559416,-0.37329526281878134,-0.3827272744056324,-0.3794605726858917,-0.348328342290066,-0.2903626105754956,-0.20901590198631578,-0.11884448242531108,-0.03884835388931335,0.01080802787147159,0.03507138355917623,0.03990549190062792,0.034915306350018056,0.01616209383056871,-0.020565156628678426,-0.07199274240439657,-0.12343362443812451,-0.16207153789716197,-0.1853351250762101,-0.19732656945544721,-0.2026476935461952,-0.20378051191168783,-0.20028187314952237,-0.19369218065618035,-0.18265653648168015,-0.15973471515363627,-0.11239404317239181,-0.05286278021799337,-0.00206054683528327,0.023222922617569863,0.028364248244596643,0.030302088541669735,0.03765923469582811,0.05713289719711897,0.08938306892658988,0.12116758142698404,0.12252979911276603,0.07439478769994541,0.0058640575061300205,-0.04862140586277864,-0.082939465253672,-0.09860606672137275,-0.08798397302245392,0.011737283195012457,0.17288161443378408,0.20426213878726598,0.208423587528394,0.199912598563197,0.17868470455661872,0.14462688698140067,0.1039032968424857,0.06304184340260968,0.032539790386737176,0.018078555088930956,0.025166081467951382,0.05858926812250465,0.11563203483509253,0.17441648283606287,0.2201108222875725,0.23951770731233588,0.23389292760692804,0.2096578851647995,0.1780679710494518,0.14484023400369625,0.11232001328162448,0.08200208079449142,0.05574917066323219,0.04051306118973284,0.033285070641142694,0.032424281348038056,0.03516438589789088,0.02681151807209647,0.002946097888853303,-0.02880930886735652,-0.05023926609200197,-0.05504784774486628,-0.04553845847948317,-0.03284721577166768,-0.022158775310213027,-0.017698365358434512,-0.016981749024590303,-0.022185815501694583,-0.029026015948338743,-0.03411600145439021,-0.03735182620638628,-0.0466051464286501,-0.06709130730975227,-0.1055458463827699,-0.15614250129669968,-0.20538823277817803,-0.2147362915285873,-0.16408031742262572,-0.10735387271378224,-0.07973753201306641,-0.08201850092984203,-0.09965102962644275,-0.1155917633489465,-0.11969100125826725,-0.114079609361762,-0.10506658329328329,-0.09754281496166602,-0.09387688289583027,-0.09173161229286797,-0.08369606670568593,-0.06931267156363514,-0.05336051585648621,-0.04242324204649329,-0.046000330742288854,-0.0708144545329733,-0.10959576800822605,-0.13607476827455084,-0.13875565225274006,-0.12372336540941485,-0.10466740474196931,-0.0824911011504421,-0.051010378688158074,-0.008132918274051623,0.042113194097221134,0.09010678829491892,0.12621135888404006,0.1400718357021762,0.135177760690831,0.122287498385794,0.11290501325953237,0.11029468499478029,0.12012695471292077,0.15076975094189932,0.20973482291576123,0.30181114249294316,0.4107637918167511,0.4677775505605691,0.4431126721810391,0.39109331649709,0.33834990941448856,0.2937663159242274,0.2615654337088024,0.24500260772570434,0.24224512263349893,0.2504478750304466,0.25861524674155095,0.2526395120737163,0.22954826320971977,0.19620728447926608,0.16558856929613816,0.15058691679196243,0.14630259347288224,0.14751539635881947,0.14870207940925517,0.14601792619146953,0.1367064033929244,0.12445863646356943,0.12059888115018928,0.13266907003797898,0.15848136131276613,0.17387224964239148,0.15827195180512146,0.1167501026243736,0.058504280923752275,-0.015262275297570236,-0.11863382064018595,-0.26989735278479354,-0.46787567410642783,-0.5965112782835383,-0.616365777674856,-0.5976961624920065,-0.5642897028291216,-0.5079350952468042,-0.41738800264559384,-0.29884239467102675,-0.1844501157420341,-0.10766525673347878,-0.07058723445262487,-0.06071034243125877,-0.07156265106339517,-0.10381229340611425,-0.1584764509826178,-0.22160370264420562,-0.26904471935895313,-0.29413484640766874,-0.3033348048241856,-0.296826805228698,-0.2674808018606093,-0.22840853900528954,-0.20247030744635863,-0.20397997953450644,-0.22237555770969747,-0.24160492575613987,-0.257151232059795,-0.26684681759333745,-0.2757064014825884,-0.28189050539399907,-0.2768586391387814,-0.2535291222100949,-0.20224157418733194,-0.12339579165664637,-0.021522256756686814,0.09858712795258809,0.22446243581377096,0.34764107589023224,0.4579862394555669,0.5249532331321108,0.5401092828100507,0.5124626273502333,0.4545269557608023,0.38421174754606635,0.32546895892876876,0.2871168135650983,0.2628559656975703,0.24435761665893727,0.22750599665599627,0.21678779125169248,0.22422259570603542,0.24395842522393243,0.2713405501943657,0.3081304127734183,0.34913285084281853,0.3841040171543323,0.4051167178705138,0.4139104228228485,0.41678865791333497,0.4170803993815176,0.4111011498799367,0.39200224440382986,0.36211648627084997,0.33093748560740904,0.3028513393390637,0.2643761833923537,0.20169574315352742,0.11184212020692737,0.005284070118000039,-0.08360976290214946,-0.13325671322139654,-0.14626315031856235,-0.12944582727304832,-0.08744688260137443,-0.030395362853938943,0.018387288518625748,0.049743898161548034,0.06160961082225699,0.0536296370483389,0.03312996877477424,0.0038039364995335443,-0.03460311251246387,-0.09532207219288302,-0.18952720251225727,-0.30672288666100866,-0.43339008429145115,-0.5285704975555872,-0.5488712179783404,-0.5074966838788666,-0.4377103596036351,-0.36011137317525344,-0.27864644377202946,-0.20120170023667922,-0.13639460091680894,-0.09653345476030079,-0.09051268205210065,-0.11797137932073758,-0.16989749422357922,-0.22560033958717132,-0.26724712586384197,-0.2850481472485522,-0.2774513128622198,-0.2531656879610071,-0.22594448037329756,-0.2065497478861241,-0.192612439492569,-0.17533184056169154,-0.15571718678275404,-0.13045330154463566,-0.09657626724539123,-0.055125833723307024,-0.015411374897901283,0.009115978416976546,0.0011338306516504226,-0.03214935015886644,-0.06592266863260082,-0.08541733286646225,-0.0761523236688437,-0.024336166883514188,0.0729034010784041,0.20691661134141873,0.34198041039899385,0.43147794696003966,0.45949851580803625,0.44260032747066363,0.40853761931962823,0.3820809541813421,0.3725944692832677,0.3745853758307582,0.3793004378158203,0.3838790776781589,0.38591084250620966,0.38576427321920853,0.3844459557632999,0.3854576882118661,0.3849323837197538,0.3791366550050005,0.36379584557704414,0.3433584256049695,0.3202914892134738,0.2952872361776553,0.2647292526851153,0.2186377390966864,0.15376264786935595,0.07737306249522984,0.0031298512702816824,-0.06427340826836889,-0.12770876944699983,-0.18190574965024353,-0.21056261701820883,-0.20916896307044028,-0.18720500602537996,-0.15821234969489031,-0.1252112873453281,-0.0903886561877454,-0.06555532225395717,-0.0584178803147916,-0.059927902882988174,-0.06274513001406018,-0.061381156640721905,-0.060919110739277284,-0.07753031919293264,-0.13226437491201648,-0.252702089057759,-0.4540073768406503,-0.6185234645020254,-0.6445372871321592,-0.6316976172079556,-0.6318846471691917,-0.6381392572870678,-0.619100768783861,-0.5546845740603257,-0.47149818434919294,-0.4000467992544232,-0.35236389541942087,-0.32125739161761924,-0.2949599591698301,-0.2681494535761263,-0.23587782930764967,-0.2001338307810456,-0.16069358275520076,-0.1179971226171625,-0.07135678312364341,-0.018555081938022862,0.040699982583065,0.10628672056329033,0.1765052406670429,0.24302463547962883,0.28848374586438963,0.3092003257364773,0.30063513497760513,0.26709635297200945,0.2157177127503758,0.16470595440321034,0.12086837663081534,0.08900814051459835,0.06983102497615433,0.06616553291369237,0.08044303553464265,0.11938081270166304,0.18491043038228944,0.2690118156413415,0.3493575896345552,0.405889914619743,0.4297347023420934,0.42780625730597366,0.41008285570334807,0.38644911437932156,0.3725178496207893,0.3562357654182754,0.3161917774187735,0.24682316288929956,0.17462474385653154,0.12341572017595207,0.09974148464284735,0.09702582937179716,0.10659293238263293,0.11560266064934821,0.121931751719102,0.12488419024961012,0.12671974172786069,0.12796134975184964,0.13334924611064822,0.15118480118349498,0.18850964244130788,0.24070332880536152,0.27475723188239104,0.27069549869568355,0.22884734748036412,0.14897205144576467,0.05073425562371349,-0.033395967904449625,-0.07979893591070601,-0.09176796980403941,-0.08135891707566777,-0.06629583702745505,-0.056862439968904395,-0.05708821640522724,-0.0692608135639792,-0.10057178448494243,-0.16528057475925023,-0.2799096934620828,-0.4478030405647774,-0.6137425255598296,-0.6893006626862819,-0.6692630384553824,-0.5885406528874483,-0.48643377601407434,-0.38802158313350826,-0.30182705317277786,-0.2506972985184809,-0.2457116773218085,-0.28897915963294185,-0.3513172812620268,-0.36805802545143973,-0.33581674846349463,-0.29135965988777435,-0.24615330991671328,-0.20448808736922958,-0.17158409029146265,-0.1497806567860357,-0.14035610280967847,-0.1405909731043069,-0.15092759530673017,-0.16543349713065736,-0.16810960621339202,-0.1303804559149533,-0.05769455177404168,0.007683942973729638,0.05751341359141233,0.09889177451046804,0.14523451163634726,0.20337903557850381,0.2715866222360808,0.33557769249889075,0.3829674934201893,0.42154404883610636,0.4669038657108772,0.5129943163413668,0.5562925429322044,0.595152868616944,0.622670547138712,0.6222246244994507,0.5893211002678591,0.5358161522897977,0.48504137635869815,0.45305912381800006,0.43733915238612614,0.4274846680921843,0.4156496130466765,0.3972302412014256,0.3717386758266656,0.34022684462162367,0.3005745307604289,0.2632833445134055,0.24360492188519775,0.24259289734908548,0.25349017821987635,0.2658335307175331,0.27459731837938234,0.2736135261054997,0.26354995781140245,0.24258010406727748,0.2159494851303736,0.1790613523238784,0.1256648501069892,0.05248932626305102,-0.029994223369844513,-0.10016330780114376,-0.14967817663832925,-0.18554390745206337,-0.22620311980128446,-0.271450838950308,-0.3205517432634152,-0.37618205681194883,-0.44454323223349246,-0.5079942600014459,-0.5513551943466971,-0.5602053648396509,-0.5186901539487219,-0.439702098380523,-0.36526646001196644,-0.3256111401961373,-0.32086619565463037,-0.3356602532311991,-0.3604534456740562,-0.3828684369748528,-0.38601997978202196,-0.3639038538897071,-0.3255282642427206,-0.28838215819081503,-0.2567701728987345,-0.2327351427022346,-0.22049341051576093,-0.21982132346490268,-0.22634310630665772,-0.22695568571450583,-0.21114642751890392,-0.17664308854940514,-0.13141789222052244,-0.08758653633497934,-0.052987237243912105,-0.029039957497591903,-0.00883143140490221,0.009393860548079279,0.02612482526017237,0.03613085159538059,0.03446040399977871,0.011591256521773828,-0.012887489602496874,-0.023530903164199313,-0.017253061799564318,-5.702387859007047e-05,0.024753854999464586,0.05414888961826678,0.08216248630259296,0.10289500885165674,0.11665313425327738,0.12410156099400138,0.1275434138899296,0.13207075760407183,0.14364591015340286,0.16522622893105887,0.19653488805180797,0.22827067573036566,0.2479073434076371,0.24953365633676114,0.2374338471789055,0.21898976429218991,0.20432918247514006,0.19777528917034137,0.1974755596135733,0.19529175924103023,0.1777999026434514,0.14536929326835912,0.11519452806487128,0.10140525393694462,0.10959359343480671,0.14268467460109796,0.19463296430537055,0.2526067077904761,0.28879893532765044,0.28868606117955664,0.25168639056475334,0.1823789970946976,0.08885097394164848,-0.022810910237380414,-0.14023665775949878,-0.24459211938786704,-0.32038238950126485,-0.37038545691888536,-0.3920226028282801,-0.3711379617043052,-0.3208618212096601,-0.2687453498657151,-0.2352395019246214,-0.21937420036157618,-0.21474104172909067,-0.20744265008996576,-0.19038379689254223,-0.16768033119230968,-0.1462926648522735,-0.13628779316519526,-0.14796232633100379,-0.17343383464444376,-0.2020067039139874,-0.23034545655968092,-0.25348557814457007,-0.2643855012185273,-0.2586400229271971,-0.24210810203919378,-0.22541723131048566,-0.21499738651884442,-0.20849771852100737,-0.2036664083354037,-0.19755794569284338,-0.18646727804988644,-0.16907620323750938,-0.14719221175746114,-0.1232638732199956,-0.10691488538523733,-0.09385912061474426,-0.07195412464271388,-0.0353574626437892,0.0054875948785145946,0.04046124616597453,0.06168983790534337,0.07807600702178108,0.09998991473234059,0.14558825108201995,0.20909500448756096,0.26826359962148316,0.3040962204716005,0.3107524882735,0.3016876384436012,0.2974845075313071,0.31956571407603185,0.3653486417064703,0.42093529300119414,0.46378596673370903,0.4707285169512836,0.4249167656620952,0.3306379570843329,0.22082497035188392,0.1423673487933378,0.1349674914088714,0.19664536074709996,0.2879448092776778,0.354057289522137,0.3738680481055019,0.3497358658074913,0.2906074643763183,0.21588117278166286,0.15382779805289715,0.1303979869414512,0.14763324813809728,0.19359479779545496,0.2451217429556844,0.28441506134782973,0.3010256541530982,0.294187589800452,0.2629729801424913,0.21391680904731067,0.17138350237794658,0.15404165345956214,0.15468784836584715,0.15797970068699638,0.1509217315384225,0.13032357627677713,0.08440784920015221,0.004728744250409257,-0.09169696383462753,-0.17501838334338807,-0.21934135830337323,-0.22860361883361707,-0.22199065367089324,-0.22691572962898884,-0.250002483754627,-0.2815063413332278,-0.3138791725852898,-0.34454064859702666,-0.3691417016073573,-0.38441793914670924,-0.3895033363584943,-0.37540547828573406,-0.3396001924105655,-0.2891326051481489,-0.23371597271520486,-0.19550925876267708,-0.18054837621528808,-0.17741351365478536,-0.171647741727144,-0.156619891827839,-0.12919907900017377,-0.09421028385519793,-0.06821082824437565,-0.060299268960908294,-0.07227942578486334,-0.08949964713534914,-0.09774209724529727,-0.1099051951633648,-0.14486789217873275,-0.2035978910919481,-0.27876307246119597,-0.36674355935627184,-0.45456328817623864,-0.47712472978369275,-0.38056078944143046,-0.2428055684440763,-0.12558769795999655,-0.03386364669981756,0.030939578382945764,0.05931590685682356,0.036986699488502334,-0.013967546362426184,-0.04571514138503089,-0.043765279339241625,-0.012641381442207967,0.03999968682357006,0.1055437801525993,0.17640035797813247,0.24915973379741005,0.3096406153322663,0.34458721769773254,0.35789793687920357,0.3614802745550845,0.3708309581888392,0.3862206509460353,0.3980350784731169,0.39827295671546786,0.3811147362417838,0.34623590849771946,0.30775353314096315,0.28415795349159023,0.28180202972497703,0.29220069572362956,0.3020192872366443,0.29892432115604917,0.2836583187259269,0.26959357464323314,0.26887051258492894,0.2743090100037343,0.2754727038541769,0.2624224172077253,0.22963637911293364,0.1822595679959516,0.13293572788862484,0.08932391635253964,0.05121660107966943,0.012169198696477803,-0.029637195254304072,-0.07840777909916581,-0.11633581134860593,-0.13331639653243385,-0.1404582558065776,-0.14109993317957673,-0.13180068435154968,-0.11480475907207337,-0.09495195394844608,-0.07649639126143828,-0.05941669849494395,-0.03989616922532605,-0.02607441462264462,-0.026350446231858646,-0.043847456749248045,-0.07418435670810206,-0.11243783714903857,-0.16119090117304385,-0.22015699740687608,-0.2851481265352709,-0.3350142499797277,-0.34215866312941706,-0.2999272180709964,-0.23643966922336784,-0.18679631113269712,-0.16071347163979874,-0.15498784252029288,-0.15729392968544767,-0.16178762606398805,-0.16466088190477354,-0.16234682171391882,-0.15045329653703807,-0.1332214777656099,-0.11339988804723643,-0.08304016935276179,-0.016478399726957808,0.08805968671472456,0.15041474673483388,0.17086829686103172,0.17292016555024553,0.16801212406159052,0.1569336799227114,0.14294109993657572,0.1258579479500981,0.10561758559795854,0.09065010165739362,0.08586331385429836,0.09229967470958224,0.10872409200944586,0.12094537294334318,0.121766772372279,0.11354985703282389,0.10049536533992232,0.08375942100170536,0.06204961135332574,0.03670981251760809,0.010030230976930931,-0.01649475302618434,-0.04356081881157722,-0.06338602299569097,-0.026563977876025893,0.029093882898237687,0.07331818015258913,0.11226497439832216,0.15324529740502152,0.19796195063672906,0.23826526351306457,0.2630184915830919,0.26113226956272423,0.2430695935734497,0.22966234601003976,0.22149616672166636,0.20943861266008368,0.18270268961012862,0.13965741654889124,0.08996305016882088,0.045315000536825224,0.01373775048539901,0.005936686673015057,0.026100964136022375,0.05940145056205849,0.08456439048492384,0.09821213164472643,0.10842807315034586,0.1136137237185765,0.10202802992427698,0.07301302926364277,0.03850131257475551,0.005336070874887434,-0.02785191851822138,-0.06661313619955875,-0.10816924693106329,-0.1485009349953721,-0.18362908508209555,-0.21248520873644347,-0.23373131434357514,-0.25773948695277954,-0.2856942220573202,-0.31559329625101995,-0.34907041011343626,-0.38394059313161544,-0.41601329548383786,-0.43002094861245127,-0.41630991452401384,-0.38516230172977983,-0.3463453621841478,-0.3078760835570964,-0.27272257473662304,-0.2418185175683666,-0.21423662602785587,-0.1843993726079665,-0.14513252794181886,-0.09287174268828481,-0.042885903926398294,-0.014616330677794751,-0.026698580657226148,-0.0821622554230235,-0.14061122917917218,-0.17805906446029188,-0.20353381594252168,-0.22676027796057557,-0.24015120040262666,-0.23342195386247766,-0.197855763397021,-0.13912892751157765,-0.07064545393102593,0.004228908868674495,0.08182581362531942,0.15448275458648555,0.211178398625383,0.23697362645750047,0.2332269136396784,0.21670422598079417,0.19759915565895828,0.17659041662085026,0.15762225671207614,0.14921776376785467,0.15522948292665084,0.17305698580236858,0.1965375020018112,0.2177811532123179,0.23143808603268398,0.23676476428414442,0.2324698365572704,0.22423811946519803,0.2189535581873872,0.2223181524953079,0.24069786734624765,0.2801720338712347,0.32947325274549505,0.3623875123238629,0.3606695271140811,0.3317406123593462,0.29335589822412805,0.2520079772045128,0.2033891876457163,0.14630829508116894,0.08677795746934548,0.030539422524698774,-0.021531861474400213,-0.06999238552778432,-0.10844425697021685,-0.1369642465904015,-0.1559625685440849,-0.16791936035940577,-0.17590845071501604,-0.18312107440932945,-0.18378977447058395,-0.16478115641033564,-0.1313981893170293,-0.10164858851351218,-0.08522369881612131,-0.09117282000673828,-0.11142060017051358,-0.1383273389279327,-0.160057588771679,-0.16999523440255154,-0.16276472096480335,-0.1418963137509075,-0.11376887184765028,-0.08866303969081833,-0.07359709648739789,-0.07893402507138637,-0.11150771242939743,-0.1695402061337893,-0.25052592026368586,-0.33254862241369954,-0.3885360062795867,-0.40417633882566295,-0.3857240995321008,-0.3515572558404937,-0.32158879434457394,-0.30749812057543624,-0.3042428009556717,-0.29986196135207144,-0.2855325129189058,-0.25142809496076257,-0.1893633155703397,-0.10636018552513532,-0.027364641281149262,0.024281191103736315,0.0503602757268363,0.06284502366298444,0.07167571982549494,0.08966362021053866,0.13006371506015782,0.1831979190666204,0.22256262753623138,0.23088532477643148,0.21468893550376025,0.19044318024882526,0.17000720156439156,0.15978557937356433,0.16226567312626997,0.17792972410489263,0.20254490547688472,0.23220486104763055,0.25468220423159377,0.2694006709628803,0.2812766535930362,0.29617813269222726,0.3152028658898017,0.33785063911741536,0.3682402163949319,0.40071496395692013,0.41920810374307405,0.41279251540863,0.3932117852635459,0.37886313142393163,0.37385007178673424,0.36944940120216935,0.3494262726397736,0.2997388047275507,0.21452267830344024,0.10372216143687514,-0.01144049327434242,-0.11963563284956785,-0.22115318083517826,-0.3200054882098189,-0.4127550981779293,-0.49444729946595756,-0.5487470364986445,-0.5603621474029947,-0.5114572083257322,-0.39985909931628794,-0.28856618095960673,-0.2337679702325712,-0.23513498085605888,-0.2692709839072813,-0.30858708629966297,-0.3315200218712997,-0.3219430530060447,-0.2924050800912292,-0.2601849425268367,-0.2275210000908712,-0.2065592085358204,-0.21561338452689266,-0.2522995887560914,-0.2896806004198597,-0.3045299005087133,-0.2860534490108035,-0.24184524213084746,-0.1897470531443767,-0.13503963173361622,-0.08373993731176002,-0.03603531919767226,0.003481467349382925,0.025275022939847534,0.023773452551265225,0.0019635037274204634,-0.026369025460340253,-0.06677003796753576,-0.11598529559540295,-0.16050879828474673,-0.18216899090136254,-0.17735806352675287,-0.14825900396118766,-0.09547895357639413,-0.026151316251577746,0.03702155937463384,0.07226466168306273,0.06862060994504283,0.03794313353969066,0.0024603502857899143,-0.01925821167784757,-0.015041344979434766,0.057544687316354225,0.33032961705683167,0.36709599932806986,0.3494631970461268,0.3577033532603903,0.35824551991092535,0.3333543335092021,0.2913216993630283,0.2542998361036398,0.23237891437846164,0.22494083891007846,0.2284643517231065,0.24282454147799734,0.27058231520452913,0.31580463896353955,0.3818073560625883,0.3977020677146066,0.274143517612927,0.18228245441860397,0.15696816705681363,0.1801277361148112,0.23813277281810208,0.3091097070111372,0.3460998097831488,0.3276498665702672,0.28701815875770276,0.24083075962896336,0.18034509618416505,0.09482788405346106,-0.01646363830596583,-0.14157059377055395,-0.27354692348160764,-0.3907933257401493,-0.46993480167935114,-0.48829466946792716,-0.44948963214568155,-0.3772364479980226,-0.3104467810439657,-0.2735825955161548,-0.27526357329398426,-0.3075843716323014,-0.3530244478888103,-0.3866531449361689,-0.398827060929746,-0.38960154195106506,-0.36548339878760105,-0.34499165172443635,-0.3285819708703894,-0.30503552728380184,-0.26743450998277857,-0.23171570162827937,-0.21310407522829877,-0.20659281316706196,-0.20830680039175695,-0.2134683262592388,-0.22504189370595482,-0.24694207506136726,-0.27709656702825286,-0.30964581225720333,-0.33646268136206764,-0.3522407735062127,-0.351086715325293,-0.328904722897334,-0.2815432543054869,-0.22032148801732576,-0.16491924503272629,-0.12507053023043585,-0.0996685832446168,-0.08196549062910434,-0.051684476992657866,-0.00881819408584044,0.01600639150619978,0.02067490033818437,0.02819668999246697,0.06565538183817021,0.14985559404707402,0.23794499346794667,0.27880573252312124,0.315032951656954,0.38330042718398377,0.5078605591570746,0.663319972348275,0.5672685912581176,0.3529722474660182,0.23399746712568378,0.1801953922095332,0.16301736710669534,0.15993927522918155,0.15252651119575564,0.1396099615506396,0.1346436052257616,0.14561697328060216,0.1657839101493266,0.18916755482083952,0.210243333600337,0.22145061626233217,0.22038740516890537,0.20754928800003905,0.18841430433500927,0.16790388614703392,0.1528162162881731,0.14352834722814412,0.1378565492028683,0.13118261496494774,0.12038049120377567,0.10097636058980214,0.07104937018419971,0.034931492812832456,-0.0005690233697158587,-0.03232057641628139,-0.05422075272952432,-0.05028604812151706,-0.04555066053224871,-0.057791698043571926,-0.09165736948244295,-0.14067344409031557,-0.20306027642809615,-0.2794411023606175,-0.34245874913225927,-0.3644578254583744,-0.35839586918677296,-0.3488518852176387,-0.33044909316754373,-0.29987478512733123,-0.26221762783276265,-0.22415203224019054,-0.19568268255762755,-0.18663509519982976,-0.19159218335038442,-0.20764758294074473,-0.22759175498383458,-0.2416219373932165,-0.2460900872151326,-0.2438886120759704,-0.2382973077229263,-0.2264615029116526,-0.20915819400294894,-0.18407485617981675,-0.15763114528308625,-0.13813966174269796,-0.12690054048014796,-0.12065479424455557,-0.11300899542755832,-0.09919192041043118,-0.07325644948579817,-0.03088397685966952,0.027157794797536886,0.08130904424139523,0.10766588676348408,0.1118446843180664,0.10811749744685431,0.11015940598509712,0.12791409292756925,0.1669904636927745,0.22776961307833749,0.30153709800405065,0.3572941663660806,0.3573921271530835,0.31505754379116324,0.2660292143883694,0.2131822406968265,0.1612658587469871,0.12104554985023551,0.08977947769079574,0.06362503018957459,0.042736544249257845,0.02909287840108133,0.02271715363886998,0.02109078805107179,0.02134269013788584,0.020970500723476383,0.019404151853572284,0.019075466151006953,0.024083957634161487,0.0378115438893357,0.06341305515541991,0.10582226531308901,0.15351522803806078,0.19079798077423638,0.21446682244154522,0.23178432042677463,0.25345258747892074,0.28168763715946454,0.31457451198400826,0.34123777262609545,0.34833175848375475,0.32546261636200896,0.26873022307468375,0.18920979123677392,0.1043407852990168,0.031440053413385495,-0.016635760058160177,-0.035496618561975474,-0.02831417711540597,-0.009051199159206966,0.0054203861064694905,0.003301719013879971,-0.017838490001517094,-0.05223365015465439,-0.09191281604984397,-0.1224880074837776,-0.1404224577047659,-0.1513139420159735,-0.16742078067226687,-0.19657057950051957,-0.2374589548016994,-0.2824408204900729,-0.32032676301398866,-0.3448479397226695,-0.35415633399650037,-0.34971731577503357,-0.33446619334775496,-0.30901849405403153,-0.26510366862604073,-0.20249183806154059,-0.13157462850428622,-0.06897221058677373,-0.026223419910475967,-0.010477720034428607,-0.01655316947493286,-0.0416037573910419,-0.08566533528621945,-0.14395290739441596,-0.21268175453900653,-0.2831678170008756,-0.33060361156103446,-0.318584658116707,-0.25820324331141664,-0.19670258878725433,-0.152963540227487,-0.12079006719106676,-0.0885310176864849,-0.048587221258695565,-0.00826987947626057,0.026578036497210807,0.055040066199184,0.0806269768409819,0.09899976036780019,0.1024816407372605,0.09434760826198917,0.0843222202742762,0.08134885691080336,0.0850969766289768,0.08882548386378127,0.09556513164255247,0.10766409167828972,0.12275402854112859,0.1434451071221936,0.162186291961049,0.16799295060701763,0.1624030900457752,0.15366981946089153,0.13243286709703078,0.1027461534875925,0.07916194437342766,0.0875596795356952,0.13245095722077632,0.2077704550177825,0.28582090473630767,0.34798256274415884,0.387331402590235,0.40237692548079457,0.39316139113803955,0.36534378765185443,0.3213571892928713,0.27011802268615914,0.22587356099898148,0.20252193281962547,0.2094292924610457,0.23923524431245866,0.2717959588994699,0.2886723941203002,0.27966932081696677,0.2454181008061495,0.19347781453379628,0.13865337184866194,0.09483634738544809,0.0640061571551971,0.03621652486748844,0.0018092206487985139,-0.03876247830118493,-0.07622337669129683,-0.10440016288447364,-0.1343278745851481,-0.1825338470433715,-0.2503795344255333,-0.32768782681263353,-0.41092275847408016,-0.48317664751902883,-0.49212356757640324,-0.40915679404274324,-0.30552551559516955,-0.22377213581144867,-0.16259886383009997,-0.11179539101923361,-0.06578024793740347,-0.028011011087620198,0.0010641995131404332,0.024317558530540375,0.046125958593394224,0.0675455417489633,0.07928075054701252,0.06070846583441912,-0.006897339857901644,-0.0992827045710707,-0.17017255920984153,-0.2201062112667998,-0.255527332716433,-0.27314208135427614,-0.27332382342687156,-0.260795677396665,-0.24117752558810876,-0.21247360689677872,-0.1692115892104271,-0.10859898973926327,-0.03685347233463808,0.033371568152233466,0.09199165650712665,0.12312549978741924,0.12498284088622831,0.11649069388387949,0.10933111356855847,0.1108233461819859,0.11407218749541996,0.11029097412781605,0.08605003564439855,0.046402512866707935,0.004206066809372214,-0.018745546927452568,-0.014122217645021147,0.0053643728718789155,0.0254857148682376,0.04324597107872253
