0.2601287484016024,0.09903971973014661,0.022748529126215267,0.0036732969770627943,0.024063813140412244,0.07884192214617897,0.17296084328028236,0.30174500652609415,0.45470782142002536,0.5981490498906563,0.6816273566841625,0.6891285909823243,0.6377558069816759,0.5479118781108124,0.44221530683732796,0.3420102054658403,0.25577384576499745,0.1682101657242805,0.0792436748036577,0.01205953259554981,-0.024315554792703933,-0.033364126139820045,-0.02533934121110226,-0.015605331497415158,-0.018691849539496336,-0.033881028906121095,-0.05452821687472851,-0.0722544765880084,-0.08619300568370035,-0.09386794885339614,-0.09089927946249668,-0.03195678817769335,0.10869092659834084,0.13971916028952747,0.16246877391508924,0.19226234809042675,0.23200591910348914,0.2847473861427354,0.3616193521313535,0.4778035846541585,0.6365986640130477,0.7876466422864414,0.8689341083833748,0.8781736140798039,0.7592261873359656,0.0020965501319646935,-0.6138643754884142,-0.7373388215062382,-0.7642242457628018,-0.7540379319531223,-0.7223085729264979,-0.6745191494064449,-0.6209853355428039,-0.571908655489174,-0.5216056726065602,-0.45088147812258855,-0.3633617269431499,-0.3056072601354244,-0.29524295341437856,-0.31813354575124064,-0.35668130031126577,-0.3903273153954397,-0.3944737077017798,-0.3561003595403402,-0.2894711064849254,-0.2176212446154967,-0.16630916749380564,-0.14450613337227558,-0.14428324070120416,-0.15465045754397655,-0.16623747512665213,-0.1732850922972513,-0.17782699086621637,-0.17680211595962966,-0.16553315428836135,-0.15085024977494843,-0.14582347849163552,-0.15581811015144928,-0.1730847162940722,-0.1888820270509352,-0.19975758329524357,-0.17384672920284336,-0.034506643097630026,0.31481961448351764,0.7127482373383959,0.8768339570785746,0.9062715715605488,0.8895482582628997,0.8371255733615596,0.728702203280194,0.5606749779162922,0.40038875570064064,0.3242430441172917,0.34213534491199865,0.4014683552425311,0.4268557872469107,0.3938219409533644,0.32006551099141883,0.24023678088828385,0.1906604607477337,0.19326333368240187,0.242138758737547,0.31204741611416587,0.37139417609407804,0.4091326044705665,0.43143614453448403,0.4498022681173268,0.4637668941517777,0.46124087273713477,0.4325034835264983,0.37397618520026554,0.28180314705505877,0.15981776598061626,0.026153576912481453,-0.09668781745584952,-0.18091053410007624,-0.2175962548579268,-0.21837133468060932,-0.20477020951225883,-0.2039853985510368,-0.24944598641713372,-0.3949838399143014,-0.7037559184663756,-0.9203865352974904,-0.8600427094934274,-0.7904439953736172,-0.7501931473087682,-0.7096337067406312,-0.6446975983068656,-0.551224159726554,-0.4697092904684144,-0.4326532394001326,-0.42498263208363757,-0.4207149404042911,-0.40356726966921236,-0.3688068263397997,-0.3254566016657721,-0.28870257304825714,-0.2637540423354324,-0.2421272239874053,-0.20903621253528984,-0.15384255498440508,-0.0873607865129498,-0.015648900055334133,0.053443076871119544,0.1077421728955704,0.12535661781817595,0.08445448150482254,0.016851066265873564,-0.03260959574901178,-0.05490039639010912,-0.05388583305124966,-0.035453085694516516,0.005662940602454222,0.12236736165364137,0.21031358761699687,0.24983162535977488,0.32702129785883277,0.49246870337105686,0.7319259962674356,0.5297816452687679,0.3341216303456335,0.2780025583625191,0.3428761474471983,0.31912327572531735,0.20977523167480377,0.18120739789407597,0.18519062352163035,0.21079102303701833,0.26143426244046736,0.34354059312964486,0.44937979749001516,0.4997801338427755,0.43725557784403385,0.35675633031530024,0.31723687232646913,0.3186031349538232,0.34110610442684475,0.365074697850695,0.37389225733984177,0.36769149873612095,0.3478537742109121,0.3120198520144854,0.2624677614745442,0.21495601492463312,0.19003747650451716,0.19574580458380905,0.2219666001422221,0.2524851751997751,0.2718822396135018,0.2528394779327347,0.1803273570163193,0.06937358473426004,-0.05385549456986379,-0.17187421552829432,-0.28081394924995406,-0.36694907269830745,-0.43632964165109667,-0.4815573065748021,-0.5081401078596017,-0.4879543409455292,-0.37559292326928023,-0.24598323890549123,-0.18011600774991104,-0.17699036768611795,-0.21305931511544945,-0.2760192598838687,-0.34997266131105187,-0.4246798699717875,-0.4800345692111343,-0.5018823126957862,-0.49335700688364875,-0.4713003866903071,-0.44779044676077034,-0.4200810428710386,-0.38679368363062294,-0.3555557337238644,-0.3282688894015136,-0.30989154293561044,-0.30699007288710195,-0.32328070197954195,-0.35665869019644486,-0.39684204708397763,-0.43217908576494724,-0.454843438140641,-0.4643752124267299,-0.46164733206711034,-0.44892867895032124,-0.4313854521447892,-0.41064553582190355,-0.3821571080417904,-0.3366253955390433,-0.26820400396144367,-0.17926600331641931,-0.08966276592465347,-0.025757714674506375,0.004138463185569627,-0.01241499042752232,-0.0672476701101463,-0.12277120328103887,-0.15833596515723158,-0.16207459264889776,-0.11348249254188796,0.01222920227230263,0.20967375075444533,0.41673497904530965,0.5667014855260453,0.6474364573757629,0.6754632879434226,0.674115375490241,0.662271315160748,0.6521991476743382,0.6444601424750023,0.626196302673683,0.5861798120328867,0.5196715207772826,0.4302569748890211,0.3165357451856439,0.1999341866449414,0.11277912367183775,0.06884812869906096,0.0848997410422552,0.13444989851797537,0.1492203437408389,0.1674322396340266,0.19226036221835283,0.2241088127275378,0.2606150578569524,0.2945502131966402,0.3138583917557612,0.3164932654257747,0.303478127916891,0.26943726982675725,0.21212293577862265,0.15668084120995904,0.11044989080622097,0.0593497046529001,-0.016273781747760792,-0.13127143919681641,-0.2889474077941571,-0.48258885628898623,-0.681502861477101,-0.8287036537088878,-0.9052605224654585,-0.8924711266523891,-0.797823541667575,-0.7107167594810297,-0.7049084415308183,-0.7813160324322167,-0.699341170820728,-0.3686760910493216,-0.16493475720244338,-0.042750715037072624,0.060609116098606974,0.17763740187192179,0.3241288654699849,0.4792432052286123,0.6081269844653786,0.6941731821961532,0.7486147891117303,0.7815606756940554,0.7910250499376685,0.7726298227554148,0.7050437563969689,0.5371295869204301,0.18053680204201455,-0.2687422238542908,-0.5471903177938069,-0.6492796563609364,-0.6469560513983558,-0.5784202504779464,-0.47768964329401914,-0.39025612441075935,-0.34237925352730775,-0.3243845051967781,-0.31655811536959994,-0.2968327973322839,-0.25707066887531876,-0.2159680047278468,-0.18767134074371442,-0.1736076153379745,-0.16809028040461976,-0.16649922796188535,-0.15314889332515566,-0.02588035337213946,0.1720841710354325,0.2316993478164747,0.24063516589278333,0.12401566381363215,-0.12646246519214355,-0.3348458038775672,-0.46090115838144236,-0.3314935082739841,-0.0760315287127162,0.08178157070764952,0.18272498023101605,0.2612175784833094,0.3328372757117626,0.3915327746126811,0.3749806326000369,0.29222234267994707,0.22611452887722686,0.1812948814777883,0.14753389096565542,0.12657427666921978,0.12326489723151797,0.14207014740589965,0.1799469418117717,0.22000691040087633,0.24909248696360933,0.26618935483341866,0.27126237848979695,0.2686809285757551,0.2647496585401196,0.26327969688589015,0.26548333437898985,0.2704316905629568,0.26590496723832413,0.22659327003546012,0.1383066581053908,0.05537446672436717,0.004203719163032351,-0.03222015492350891,-0.08039831050022889,-0.184431316686246,-0.4202556171953933,-0.6588558447254418,-0.662268405853554,-0.6393639651268885,-0.6400013354861341,-0.6499033513233118,-0.6529012077550113,-0.6457239656373919,-0.6281134421342566,-0.5961264583922742,-0.5547392900388588,-0.5233799200323659,-0.4984022022746398,-0.46599912649591674,-0.4107820361552822,-0.3389367334935821,-0.2685820128991333,-0.21247307986464692,-0.18429376622511337,-0.18747567243711008,-0.21432765674049656,-0.24664398413160865,-0.26838929580653836,-0.2587856543013385,-0.21483820220322897,-0.14104887559199392,-0.04233341488329169,0.07218591223899384,0.18315421890393002,0.27958552703923856,0.35661922521811446,0.40941906932498534,0.4561302947710027,0.4951707502068627,0.5240298783572147,0.5432130565128943,0.5581568853960893,0.5822354067444205,0.605398955475126,0.6047201392907516,0.5708646700343908,0.5386833726039351,0.517914280338805,0.5054818320975341,0.504867616402338,0.5242446689676441,0.5541919646595648,0.5705537303770427,0.5527800834501808,0.493356283838974,0.39994950137728175,0.31091329593306144,0.25950492413066517,0.2550104834863467,0.2923278734984415,0.35856498212708254,0.43413167510563616,0.48651881037667327,0.5005831656510218,0.48427546454071674,0.45122048776442814,0.41643711396453226,0.38965852623497244,0.3699503539660478,0.35651063248577364,0.34966034380787425,0.3480259630060414,0.3255123500755463,0.25451624033162196,0.13706309786410978,0.023487719137785627,-0.04891311582589376,-0.0837380141887659,-0.10800837315932536,-0.12964214713018943,-0.06021984387620094,-0.014462219826817153,-0.01879797605515689,-0.059609945787292645,-0.13022680179381715,-0.2251927720483503,-0.33477919421263175,-0.4302030116784544,-0.4594761492734384,-0.39147662150322743,-0.297968142586419,-0.2592586542275728,-0.2878488745124132,-0.346627045191813,-0.3982083443848099,-0.42885099555477035,-0.436022996623353,-0.4145097233026916,-0.37189830633708454,-0.3186153123436989,-0.2691316041719426,-0.23605597085676938,-0.22271389958345067,-0.22772383088340337,-0.24885815393007468,-0.2925575495820749,-0.37412888558600865,-0.4881525965778462,-0.41158053973837605,-0.20344295297127,-0.06920183176308888,0.021536438396333017,0.09282004269994946,0.15431574635979897,0.21021656440760533,0.2650737866421725,0.3220128131103203,0.37885997432359486,0.43900235901136825,0.5119032579738348,0.6042008743377998,0.7217174282005313,0.7015893592054333,0.5046248158013191,0.38541043247616613,0.3275441419709603,0.28806223392197183,0.2576637560267527,0.23525710211452436,0.2205032237259969,0.21449039689835175,0.21620282762067997,0.2139942895803024,0.19114073398231846,0.15138369153572964,0.11060273116397172,0.07844849468605458,0.05945977604566923,0.05539198908694148,0.07711846091860139,0.13257040192511407,0.19418719139669346,0.21404545658415686,0.1865760635189475,0.11402067704798072,0.027551964287313546,-0.017871432100633126,-0.01926107242340525,0.015047786190533062,0.10981528905174458,0.23086447850365338,0.1952682778120593,0.1414092692863514,0.10109754222906057,0.07102572809612469,0.04931325023159803,0.03484650760418167,0.013382560758959654,-0.029930724005113842,-0.09140995438257496,-0.16179347848624104,-0.2427157166660531,-0.3126310163609666,-0.3292915924126997,-0.3219102160110852,-0.31217605572668355,-0.29220770847952693,-0.25649474241658715,-0.20453906550347423,-0.14173369646155692,-0.09404826261477774,-0.07707328523339602,-0.09049379518848023,-0.12561870689267876,-0.16193674264907937,-0.17147386454970162,-0.1450968949608106,-0.09935771631134697,-0.05848377818348195,-0.037651797393412734,-0.04134908937840569,-0.06184126026161113,-0.08371648269203856,-0.09819795769954477,-0.09760797012243991,-0.08504281579963864,-0.0684954475273792,-0.05885585235581675,-0.05698966131027699,-0.058454640630370404,-0.061353098917581644,-0.0613169923551339,-0.05939737246165726,-0.0565507962698334,-0.054153442579600114,-0.054483475173875584,-0.047309477804330015,-0.0211701606297788,0.025526710354115304,0.08461715262696497,0.15967493960545037,0.250456918200593,0.3397721488016462,0.4089909543113239,0.4697945177678717,0.5296420558019738,0.586776600070684,0.6344663748891879,0.6539059291238276,0.6424591847408674,0.5999571566065082,0.5189401537383701,0.40365069597315245,0.2761657770459133,0.1668344590882117,0.09397250177108657,0.057277834140698695,0.04238740825297866,0.03994936502214085,0.03880721460057755,0.03144824627716244,0.01790449987754108,0.007213161332289828,0.006818450619688352,0.0148754637551993,0.03153210674149394,0.06455842940031228,0.13299524642046093,0.22242550677414144,0.2620835340724068,0.24813747340325762,0.21210611991596323,0.16707556442572274,0.12447799570778632,0.09046936418244159,0.06807629761010038,0.05265546921199341,0.04161219741866337,0.03777521054027065,0.037453087688502446,0.03222649269235493,0.015288534494004871,-0.012744537425623337,-0.06615689137672788,-0.17093074128281754,-0.33047545962773367,-0.5172544655574765,-0.6347687660398772,-0.5605388239152704,-0.3969684933853794,-0.29952405202558047,-0.2736933300018513,-0.290625626430921,-0.34393864243401656,-0.45290929501457505,-0.6217287329152636,-0.566012017454084,-0.33619193013615445,-0.19693949796005192,-0.11731064635212901,-0.06712602938605537,-0.03875045915549195,-0.03383934146005976,-0.06053933003275257,-0.12615678993252993,-0.21212243714303095,-0.280732373274177,-0.3127152111546082,-0.2997019473280312,-0.24598011003198736,-0.17220074464377177,-0.09731189707098382,-0.0498588260720475,-0.04514347104750862,-0.0642852360200409,-0.07127977285491958,-0.04809081202077028,0.016952701132240205,0.12589874971644602,0.263789633962416,0.3853818400406442,0.4538280676092964,0.46922088187209177,0.4597890373978194,0.44997730513090994,0.44270709506487127,0.4235912157134733,0.3814460436294483,0.331414935208476,0.30273254159329227,0.32599548887924445,0.3904381198095024,0.427088947498305,0.42596710719586245,0.40498122931262015,0.3568917399352429,0.28451646464310326,0.2100392170168603,0.15793529379983498,0.13354215694778124,0.1371132339099763,0.16326665489994827,0.1959305453370762,0.20652351193587434,0.19206191517749852,0.15414503219758205,0.09598059765536807,0.008886386512257042,-0.09867731226291532,-0.195536707606109,-0.2665126875968834,-0.31269929271111097,-0.33683607935341614,-0.3322505208089339,-0.27656657681477853,-0.11495748077726868,0.1123769578991709,0.25452843006849935,0.30697628346861794,0.2931643283310838,0.23695636642237752,0.17475150156239955,0.14350742495195595,0.15361822421410834,0.18659271095315075,0.21053927297493355,0.19159778326610913,0.12238635751403129,0.013938060111690811,-0.11991179699629581,-0.24695888389913728,-0.3485143313179701,-0.4169778894617145,-0.45027781598002425,-0.4448285644903273,-0.3961754902495935,-0.3081833163927284,-0.20471472110874536,-0.11923294429893659,-0.07094177841432685,-0.05826114074106541,-0.06702326296785134,-0.09311734378924093,-0.12682781328039847,-0.1647945566285859,-0.2066967174594553,-0.2519948459273233,-0.27906970910977386,-0.2607817132864882,-0.17423367766221465,-0.01892329191456905,0.1628351229016798,0.36080855466955775,0.5717216077555601,0.7364453349935643,0.7811118127755136,0.7464239891108215,0.6975237765610065,0.6535730143373725,0.6077295141551838,0.5389870822227658,0.4104950025635728,0.17143357339441062,-0.1771259072696309,-0.48484275734990817,-0.653736815791632,-0.6968354639819438,-0.6048945733436808,-0.3610945160778028,-0.07456576677621668,0.11378950207679343,0.196456694924716,0.20531622482867182,0.17313778772583438,0.12064619782042674,0.06307714364128955,0.020597551675681367,-0.0025707414380651008,-0.0036742519867928648,0.005272274481915799,0.014563472437228617,0.011077557200287655,-0.019092187315780686,-0.07806068679078638,-0.13970338821522027,-0.16982203086581152,-0.15208599003854142,-0.08684827301775629,-0.004065533629450443,0.05830084464795344,0.07782479562690885,0.054702467237900156,0.004034500582128567,-0.05148503472530887,-0.09885169286980944,-0.14151472486808542,-0.18751588677013167,-0.2583019899696142,-0.3672602489202804,-0.3547201343532913,-0.23846339684539605,-0.16080222253852616,-0.1043589012606755,-0.05681908416691785,-0.02162442322208529,-0.011314191470214686,-0.03809919245155705,-0.12727518953481654,-0.26045728177815514,-0.35483660816417784,-0.36776458886970453,-0.220780176427431,-0.05497208836879095,0.040956276130937025,0.09261141515422038,0.1136019013924931,0.10019452478173979,0.03812901420171116,-0.07954082670991396,-0.20775375259537365,-0.2869304564188024,-0.31273213798524674,-0.29848340620075386,-0.2663178245927928,-0.22358744779219397,-0.1860714095140521,-0.16107257993172264,-0.14846203040499933,-0.14503149637712343,-0.1504903457983832,-0.1594373702714,-0.15325062371709816,0.035101120214159155,0.1520602801085234,0.19670843458212836,0.24315904854093398,0.3100637274843923,0.42062019717642113,0.6003247541727446,0.8111374696919469,0.8241224554673218,0.6263118636728843,0.425464257086475,0.27109917204000855,0.16530535277046046,0.10653700672243192,0.09927889900960817,0.1507607812412395,0.2433997369361425,0.3019500346051674,0.31481947114686704,0.31938057750245563,0.3188140414009877,0.30279526972366033,0.2543960535629736,0.1763044405924267,0.0928374510667988,0.029055174591729488,-0.006317964782658966,-0.014819111801923794,-0.002540364091168449,0.021510059189455373,0.045574477522271714,0.061773658580507436,0.06906095532683716,0.06452437346184599,0.049831278513986256,0.030831109640375554,0.017010688597552316,0.02951176577346607,0.08653080319840369,0.17898982842290978,0.2441443912853685,0.24361039854272756,0.21242240408420185,0.1821292857901592,0.16117974711479605,0.14189534928834774,0.12377312762183348,0.09533156341359736,0.04369245454485003,-0.02539993138999669,-0.07306716540405526,-0.09556598429695168,-0.11520002515439372,-0.1289124903106589,-0.13166382401172333,-0.12976108391658306,-0.14112403791840952,-0.18438569330456214,-0.25177838753619425,-0.30453141747963386,-0.357642701645784,-0.42715685348664495,-0.4936872019532525,-0.5025084194705506,-0.4252800890731977,-0.3281363880707268,-0.25200120998279923,-0.21053651531149595,-0.22017557684716152,-0.2749575875707269,-0.31473988129016367,-0.3094436020164195,-0.25375716755304395,-0.1554477600780855,-0.04233358405023157,0.05061280251854586,0.11267196589540295,0.146601660031721,0.14752728180200686,0.11106714321858198,0.030715039717545134,-0.07901192007279192,-0.19192257804686128,-0.2818740017614447,-0.32203235065893215,-0.2545409121200096,-0.0518397234698759,0.18132411208941468,0.3793190900709311,0.5455397916788669,0.6755926708379185,0.648748758001778,0.40952701231155353,0.18715262539823757,0.05169500259385556,0.002506807995878319,0.031847229435275855,0.11754950936742366,0.21128238526585663,0.2735758814343192,0.2943717777984364,0.2843996643701291,0.2597379132357239,0.23502041480647923,0.22365028974373155,0.231578682692178,0.24506007583597822,0.25056998908643985,0.24806664247654112,0.2525314746616782,0.2703481089086316,0.2893445985796579,0.2988368579199914,0.2933100557738993,0.2761488491765231,0.251107074223873,0.23294093912489036,0.24395763856285835,0.295006010237361,0.3704711901149582,0.4350279754215681,0.48732050241452374,0.5547159235426817,0.5886481235368966,0.467187289234122,0.30634032548293066,0.18968403139221734,0.10644664030865134,0.0435411969816292,-0.000632592969905355,-0.021405540648493194,-0.01373635909591156,-0.013294822974021252,-0.026382670472563135,-0.04956484442403664,-0.07678771697110012,-0.10475141620466137,-0.1377707658187916,-0.17448663109057877,-0.20140964080117932,-0.19752352043725796,-0.1689662189825145,-0.13892457294390684,-0.11832341581172243,-0.11068671652325969,-0.11339894537984209,-0.12312784460776592,-0.1413280704222997,-0.17172879001096752,-0.21617284965366088,-0.255960018541424,-0.26892516785546433,-0.2513046164245724,-0.21529910088199847,-0.16907639403786937,-0.12197781689141672,-0.07973910288044857,-0.04795102678912944,-0.03201456978089613,-0.03778732925064888,-0.06446549037103973,-0.11688435213494715,-0.1784161427230053,-0.23420534445863178,-0.28318837472721514,-0.32421659562729904,-0.3507214387447281,-0.3492649571634133,-0.3087859144884596,-0.22517134966758323,-0.09026406409940801,0.07835527339947174,0.23096139088672887,0.3148190722276857,0.3180765766869285,0.27478795779840165,0.23456519508413912,0.2343349664217072,0.2969172188837373,0.39917358728467683,0.46772764930887756,0.4995889967561396,0.5118060063362759,0.5061120605554578,0.47688454533064645,0.4316509034571064,0.39061156429802274,0.3710684354247436,0.3697652167861005,0.3840778134735644,0.41182130204387046,0.4428488455908664,0.46313772681728715,0.46533059017100925,0.44306893452559304,0.3945140245243309,0.3153107503014576,0.2141185656965944,0.11347321889022502,0.03604257142730946,-0.010451492776716776,-0.023653656618254616,0.005370424661652978,0.0787066726147971,0.16280191084932855,0.2302131626756871,0.2646849137590489,0.2500060466316415,0.14473024842273305,-0.16805062295426368,-0.7213118542831465,-0.9068813477442981,-0.9080506615900306,-0.8941150146069251,-0.8767015431651338,-0.8501031505516545,-0.8122315310894798,-0.7697658103723612,-0.7288883647846653,-0.6904229641703516,-0.6555183318821838,-0.6269931694315639,-0.5986277645066641,-0.5472990378061477,-0.4468099647692518,-0.2989837804050388,-0.14103493565938532,-0.015670774849179375,0.06403879044505013,0.09706714972211129,0.10292656120972267,0.09579901900952181,0.08771754756332797,0.07340941458839273,0.037397891012220894,-0.034332227381228334,-0.12006374832683875,-0.1657362751620508,-0.15874512149810568,-0.1121940749586377,-0.042938487723280655,0.04083247706187865,0.12111273581969882,0.14983049526951636,0.12736930064338428,0.0968403648099949,0.09659136422723406,0.18916389368602235,0.6731120227713616,0.5092429485527519,0.41925260501448164,0.4170121511891712,0.44256527272079477,0.48703272020230653,0.52866020768178,0.4302474039681293,0.21337691446936768,0.1153473828459978,0.1417278586040115,0.27384663764996603,0.3304936454476033,0.35187292518295005,0.3996943471483114,0.4836098039316878,0.5417074910410647,0.41716992140690806,0.2494946160122239,0.13232011180947403,0.05025721495257155,-0.004164218193579855,-0.0316629754141711,-0.03611404741305966,-0.028834408467155924,-0.017021304836224993,0.001885236145988968,0.026630430635756062,0.03742856444551263,0.0326359347046835,0.028519476324730775,0.03473589865875336,0.05160901776180431,0.07656560636655955,0.10346833066268508,0.1216981252587214,0.12238106410470069,0.09983191226987634,0.04674169747931674,-0.05699563475819289,-0.263153832896369,-0.6222853564879574,-0.8566896817281995,-0.8226122770805245,-0.7573971250179954,-0.707981597452025,-0.6561400841602786,-0.5791917379408876,-0.4801565565492287,-0.38998309327396713,-0.32300954014464495,-0.2569709556382515,-0.16404653831250116,-0.06055189519340313,0.03966296126856042,0.14912227146084317,0.28108646037152335,0.4371451824059919,0.5989438457134774,0.7288394912438484,0.8022521119671773,0.8227472491559883,0.7890645203554102,0.6645012607209574,0.3683473737651305,-0.05756334156908627,-0.38405862550752756,-0.5601811846601252,-0.6507034255624962,-0.6962396523373584,-0.7166993259120193,-0.7293223686742789,-0.7063751985967166,-0.5340648563598678,-0.2846115986376857,-0.1421267420458938,-0.08687990551964696,-0.07055355970682589,-0.06891963489533277,-0.07697698158875413,-0.09696040140647183,-0.12476102511718105,-0.15614028321789677,-0.19331937232612167,-0.2484607820680808,-0.3629379446768036,-0.5062786507743153,-0.028295233482350114,0.10097627395034071,0.1707145835398787,0.23316117638779593,0.29508267970600066,0.3492654714125495,0.37368136990774137,0.3818400207819658,0.4140138315300826,0.47763941431052154,0.5567954793892363,0.6239940732228122,0.6641595450307053,0.6778613053756709,0.6693194119859441,0.6423462186412661,0.5976311306846093,0.5376243454823649,0.474416575258659,0.4290767782630857,0.3946819774304614,0.3410984948575222,0.25259475892098476,0.14116272616910258,0.03283868532442419,-0.042782732197249713,-0.07545304303938087,-0.06103698095434014,-0.01747832556155176,0.04037372903540151,0.10399762523284208,0.15164642540292592,0.17016816831409795,0.1330459126112629,-0.010661527634865471,-0.3006188250003698,-0.5960132053443938,-0.751748599176572,-0.8110291649516665,-0.8319483318604001,-0.8304861390174876,-0.8054948354741108,-0.7529947982202784,-0.6748368832388046,-0.5947707251795649,-0.5473893456761163,-0.5324450848696911,-0.5209659598201344,-0.49914253922170915,-0.4678840012268584,-0.42934890859446995,-0.38792233499578066,-0.34886916427998965,-0.3241255974731014,-0.30953185625655033,-0.29220557924028906,-0.25780330602696766,-0.21016537721531842,-0.15704752732292535,-0.10565262637642327,-0.058625288992176894,-0.013847199545739963,0.035398855896831755,0.093773152076227,0.16403732975992338,0.23382222867441194,0.283178012864893,0.3099391188795836,0.3038886161308416,0.24353606462633662,0.15144776277496946,0.06905445148221453,0.005984380132843221,-0.040261929514071405,-0.07058753708389838,-0.08369999036584352,-0.07482640889015868,-0.015576812089949928,0.19101344049705704,0.4167378951359058,0.41404667241080706,0.40703290787544805,0.4068737519471297,0.3963557497304514,0.3677709007335966,0.3259853406437805,0.30578886016028944,0.3376244973496616,0.396392042905108,0.4101762962052731,0.392664339209798,0.3963094032943295,0.43650800112428,0.47459343175498425,0.4781671912500317,0.4713167089283901,0.4761840389139704,0.4785323817972389,0.44092904328183474,0.3637295333476164,0.2940258124333768,0.25386316741370407,0.21706770559236513,0.17755116606376287,0.1628582926549659,0.1650529708596829,0.16930540431649183,0.16430555706272926,0.14480948574247032,0.12224405691483081,0.11055998306975495,0.12048741519730531,0.13556836055306634,0.13983608025032385,0.11291592185112255,0.05917178373054369,-0.002239889812582426,-0.0640430141053845,-0.12531483099824792,-0.17535489376806224,-0.2088550891660806,-0.24666878953311613,-0.30337609202102456,-0.3786025301185242,-0.4438591442870585,-0.4595092914798557,-0.4299637038037105,-0.391783948961878,-0.369994917237667,-0.3518296862952882,-0.34214228450683737,-0.3569933624644312,-0.38243479876190734,-0.3615074139638762,-0.2663611219553942,-0.18051350105668057,-0.14253670261860257,-0.1490637385802901,-0.196199667099933,-0.2654311417297608,-0.31950278399343524,-0.3279961107883643,-0.27811823927852264,-0.19091702450672315,-0.10021468188046408,-0.009175369698277924,0.08950947826628382,0.20002500792959635,0.3071938024945387,0.38923299926284693,0.4271927717802591,0.4131632537510021,0.3493738822819438,0.24042557546533397,0.11416378370667724,0.02222492593492658,-0.019666072152600227,-0.011900386335720303,0.04314200031156067,0.13631086803921313,0.23815021605126988,0.33182200554223346,0.42417219256533517,0.5109936652319863,0.5424459687756097,0.5101029431297532,0.45854884874296914,0.40728341313269034,0.35494570576180295,0.3043482609940389,0.2693041787560261,0.2547666356025515,0.24903917582919233,0.23309775529484827,0.20290326206037887,0.1674288528607577,0.1384480540957904,0.12008768323258405,0.10949736291125144,0.0961320830429786,0.06592907547204584,0.011505674247029479,-0.07440923884982471,-0.17320307247232758,-0.25248854949555155,-0.2912410318466568,-0.28711766161563845,-0.24205622420566866,-0.17616673889132584,-0.12071459446319172,-0.08823172555860481,-0.07771174544839896,-0.06710181468056184,-0.041609357706169435,-0.0075067787999564956,0.013350760210705168,-0.005228737052317968,-0.07183189074902199,-0.1697968044333843,-0.2838474112451766,-0.41086070259416274,-0.5241131006995612,-0.586926338165608,-0.5787448483653219,-0.528191583016218,-0.47913757271263113,-0.4446561604236007,-0.4165435022651909,-0.3759236370669064,-0.31984738321985845,-0.2570558277292516,-0.2014591352957833,-0.1665357905968334,-0.1510274328591179,-0.14961985290125354,-0.16252194798676584,-0.19474030735213158,-0.24589745179355013,-0.2931758998339064,-0.3161923273611841,-0.30567900778885404,-0.2672756308569434,-0.2196625659579697,-0.18005643253373832,-0.1469597433264423,-0.12382804462264227,-0.12329861507784319,-0.1336407089591726,-0.1303141676759133,-0.09455504115319541,-0.023305939578892744,0.08133857457408072,0.20950739918754716,0.34681928716595295,0.46314586281542086,0.5185738348423585,0.4817980808701085,0.3725055413775117,0.23439671158455166,0.13576831996939134,0.08419986661021893,0.0705240165715706,0.11196077525319037,0.30192239796787185,0.5915897037106406,0.49684134852245243,0.45416176556205684,0.4641751998758528,0.5075639752266702,0.5777051997264192,0.6339200971515306,0.5588860284325836,0.4005614109027379,0.27293449250583574,0.17428104017982077,0.09176939074855309,0.019746539980637502,-0.03601379822729028,-0.03402363978577181,0.03582901503784597,0.10468791310613987,0.1526372759693429,0.1823326369563544,0.19773455237349336,0.20077093008408756,0.18887154786401844,0.15966341356832908,0.11258445382253117,0.053983420285303264,0.0002908248383094686,-0.028705586453617864,-0.0476676781768506,-0.06493921388245012,-0.09278559007830646,-0.12569574213618465,-0.1571740124063198,-0.17169857343060807,-0.14300854156577053,-0.06239387193770813,0.06775927950426355,0.2350855082166954,0.4093133598635309,0.5496178686655108,0.6599378165156647,0.7445076441275106,0.8052533287509736,0.8433026930712426,0.8589992519229055,0.8525814658152358,0.8080930187979194,0.6673446518159846,0.29643360506672833,-0.2178305207146066,-0.5247834739246431,-0.6567862686477887,-0.705798980308754,-0.7094481772976907,-0.6848027371808294,-0.6433386029263635,-0.5945278233658011,-0.5537822954427402,-0.5302476430836275,-0.5215934967145297,-0.5207082006733507,-0.5177160374553116,-0.5040603568384977,-0.47339356029229557,-0.42694357278640216,-0.3750555630843521,-0.33780220826896873,-0.3216483444409084,-0.3044560410271497,-0.26133150604116623,-0.19596503306485916,-0.13306055732327557,-0.08558477458089651,-0.05636590502336114,-0.04769247662510518,-0.05655788974625943,-0.07727413286278399,-0.11261485227623157,-0.1384991430394172,0.04567563488308579,0.08853296908500605,0.11355420509165573,0.13498040939259748,0.15863067001255388,0.1823347635567345,0.1923324559083215,0.15248421909885176,0.06607147085364866,0.016763380706252547,0.011446412695192821,0.02647931885930172,0.05816609800173323,0.08907096575477841,0.10209726771324769,0.0895381923986609,0.0523612930026711,-0.0035136430697279607,-0.05247403639319508,-0.07650234396644602,-0.055023123103688835,0.014998449290361792,0.12712411070352603,0.24293519210960382,0.33014447310586703,0.3819269186857652,0.40065100202467246,0.38652826362742637,0.35033132826540586,0.2965914992977807,0.21993266124757643,0.1168625306777352,0.023130613787452247,-0.029281739571348716,-0.04167059939082461,-0.04969820173008009,-0.07939524967108798,-0.14042932887434886,-0.22646401697131852,-0.31132335710575354,-0.37385883510091306,-0.4071787672960554,-0.41377815475799945,-0.4003119629929898,-0.36728506180466136,-0.31973168691173376,-0.267824446642958,-0.22784619444295834,-0.21798743531040937,-0.2264249296183792,-0.22237454149821312,-0.1817633968776373,-0.11101476329980997,-0.028312619556258137,0.04660817315948755,0.10581004111791613,0.1449366756720684,0.1686278910947131,0.17640598672347277,0.17534008083960434,0.17030518747474432,0.16772900995479592,0.17492034347345176,0.189142562147161,0.20996996593314535,0.24466440341487697,0.2839713576849282,0.29821064816869414,0.25780610473902155,0.2035350163614858,0.16268988451727198,0.14765112492522037,0.1663142778143476,0.23750971565970053,0.34846579518436666,0.44692918220553834,0.5053532562018307,0.5394591901701083,0.5580764395427908,0.5557643513558741,0.5200585881316555,0.45244275187245286,0.3796494819511279,0.32695394765458835,0.29917109065270187,0.2876559043550933,0.28147530177431296,0.2814289509746735,0.2879038273235737,0.307195676543111,0.3428289042015835,0.39222662116228774,0.4486163700111595,0.5023436712321778,0.5387380187709275,0.5510840903978244,0.5367723794179069,0.5037330239654162,0.4618198572547314,0.41723891873071606,0.3463954767230719,0.20938545434881298,0.04411759183411047,-0.06665227812720452,-0.12479698022186873,-0.14630731678514244,-0.10317736121215317,-0.013756581556532779,0.02351281742289732,0.015596595284263725,-0.025433594393983173,-0.08526430346384069,-0.1370067542153693,-0.16433822787439992,-0.16673806538623936,-0.15098028773536715,-0.13581284023690557,-0.12414953522522795,-0.12444831982074388,-0.13175516298834372,-0.14643240217504755,-0.16393520483709992,-0.1931245765604911,-0.23966210625333687,-0.2999944430525621,-0.3603306428649281,-0.4179650528509381,-0.4687008197101682,-0.4993018675883364,-0.508253057246969,-0.49768942218877105,-0.46565534259442926,-0.416997779203539,-0.3622391254134115,-0.30855945671180596,-0.2702748221854982,-0.26463044421526044,-0.28296881276939134,-0.31211228561838666,-0.34384107672990477,-0.36859915899251733,-0.3808128891635471,-0.38457567515162,-0.37632129068591363,-0.3465398544258289,-0.29202089357523947,-0.22300809634829039,-0.1507732327349265,-0.09976111131205588,-0.07965831994844232,-0.08130196118238057,-0.0896715200676717,-0.08978485285614327,0.1417676498831273,0.21253683241810384,0.2429333004589063,0.2856334178318696,0.33779473717394914,0.3984220036051005,0.39521504301197524,0.20922811579970105,0.08038477074050195,0.028039168002355182,0.009772549852196364,0.022299722720822965,0.08786169092498973,0.22657288737391276,0.391047759831428,0.4926127661984913,0.5033300523004436,0.42039028738302514,0.28317001676493425,0.16699777720793368,0.09426498641187221,0.06199424448632033,0.08702580965071556,0.16357870529955285,0.14659171983553645,0.14115088537048376,0.14254330217144812,0.14753200949254333,0.15498827957522426,0.16571480507563244,0.17613438285952357,0.1805105137533446,0.17065840912672514,0.14190817575650538,0.08075124723442632,-0.059213807678988255,-0.3290486502014054,-0.524039304948867,-0.5860677747047679,-0.6343372252878711,-0.6965127084340373,-0.7752928498943307,-0.8613724518024055,-0.9156811876010745,-0.8893171011549599,-0.7975820816764274,-0.6898494488795075,-0.6123271994955783,-0.5772098239432805,-0.5779915330183508,-0.5912351400736343,-0.5903965636484534,-0.566487527993605,-0.508586518522915,-0.406886172977106,-0.27324622838565416,-0.15534997176837126,-0.08718974276272559,-0.061270945558920556,-0.0552465453964447,-0.04127782345998604,-0.009275713196184301,0.027532977271216036,0.04774325708570016,0.05375600039178825,0.05462058755986618,0.05497581431761154,0.04482535891232133,0.007261774283440174,-0.06987817132522067,-0.16598256814468243,-0.26342880098634364,-0.3482616892089698,-0.36620567213438576,-0.2288891955540627,-0.015383735070276518,0.17517661875281781,0.3684182908417595,0.5691315462877808,0.6923412093009564,0.7160364010745992,0.6720824063400705,0.5682305353657013,0.42929567791451273,0.308330924836649,0.2408472027132043,0.23741167098379143,0.3003391487559945,0.41210361309668714,0.4921101014603751,0.4767500213759513,0.3907355645639501,0.2934165906906112,0.22149415366945532,0.1810714816019468,0.16706120997774737,0.16812945609248545,0.16923850938022253,0.16409258973141985,0.15589023927909643,0.13464587972043396,0.08916800313685522,0.015856637343357672,-0.061929947452377176,-0.11670782274403704,-0.13353637823780998,-0.109884634938462,-0.053589937942120636,0.007530117291210389,0.05791579561700053,0.09679312318375846,0.12196700043966206,0.12521224316167148,0.10165870135359889,0.06929330380644862,0.038581862452428665,0.017628225208934388,0.012791417929336992,0.03323958365207597,0.0687534104706906,0.11434580662399024,0.147488306440103,0.15318571198490033,0.1315595389448744,0.09717605433631937,0.0661148974150516,0.04109088742946155,0.013228038348143078,-0.019063553114524193,-0.0632751592714214,-0.1198777151188201,-0.19267166347044032,-0.26505539156268304,-0.2809332838581234,-0.21868543391289022,-0.13749753183291824,-0.06636915834277314,-0.006158032891998925,0.04002514856917521,0.060104025233084175,0.04898593647330075,0.020544448042897064,-0.0022724184498575765,-0.010336789587988835,-0.024640914274331377,-0.07502722466021416,-0.15806485658579347,-0.22539469488186223,-0.24813401868144844,-0.221219839038252,-0.14826171892638546,-0.05277639611548601,0.027216540207735188,0.0701125402102624,0.06587963022101398,0.034208324298801045,-0.005879779055539329,-0.04641012253788314,-0.09250022632033297,-0.13850182976754516,-0.1809940793280647,-0.20887578771070822,-0.20993735930993282,-0.18410769552193681,-0.1440643008023066,-0.10034184011756085,-0.05875484971265796,-0.03132692645103144,-0.009957926851593253,0.018747112784459678,0.055497133609788404,0.09913417031219873,0.14540333436987024,0.19228163820215768,0.25098162416881514,0.33038684313670164,0.4035243849314487,0.4135704825885055,0.39182757036547305,0.37785965607788974,0.3789107835503042,0.39662729912373557,0.42200964719414286,0.4381676368660217,0.42520945179787334,0.37090470533382286,0.29323140129728853,0.22520700753224146,0.17766068141991148,0.1479858197873194,0.1279262861332422,0.10201252438493544,0.05511767729197867,-0.025901423528152598,-0.1431544349568809,-0.27756058568939385,-0.41979115824574575,-0.521017460735624,-0.4047205261035917,-0.23145451994500785,-0.14049562643293054,-0.1102806345066511,-0.13209578691400692,-0.21390246665226698,-0.4280238794035195,-0.5751193159859622,-0.3119475977132304,-0.20331290240407549,-0.15843540411123422,-0.13907350125903725,-0.1311081147220403,-0.1258529116946006,-0.11617376355225374,-0.10303787377242643,-0.09505976965170979,-0.09711532117556718,-0.1133076388295907,-0.13757818671223424,-0.15165148306135712,-0.13530241585393374,-0.0781199468511149,0.02398507084946878,0.16743529002620985,0.33171800264858875,0.48067439920899946,0.5897014759068427,0.6461779321661176,0.6514732567345715,0.6009931660961189,0.4708627430510114,0.21725752580972785,-0.13650181948906426,-0.42552149571526593,-0.5737744425893375,-0.6257319020592939,-0.6135846207321212,-0.5079582628721717,-0.21651330068896618,0.20298477250564992,0.36381730912521854,0.29777982297402905,0.17235136741029336,0.060446541220922384,-0.02545036165736077,-0.08544519189708456,-0.12275504522177587,-0.13907810025213987,-0.1338234086702309,-0.10899750368943405,-0.06858642703371606,-0.02040918149071622,0.021818177213157413,0.050841611399009466,0.07488077122104272,0.10634994106963898,0.15069033742772922,0.20513749674580709,0.2606690024524867,0.3049596200189751,0.3300422274334992,0.33930559883785993,0.336188697863981,0.32548148906456276,0.30958000192194396,0.28348938109366684,0.2476818423197276,0.20598131201843908,0.1648973372964623,0.13595726448046008,0.11306796353931911,0.0782763994178477,0.027879738761480283,-0.032483706145100426,-0.09935477932666187,-0.16534162889730006,-0.22580719098331592,-0.2903286308377746,-0.3533029359490277,-0.40862198581672976,-0.4431150160038065,-0.4171592356411939,-0.30695847960895106,-0.18668784271512584,-0.11050794619312417,-0.07871321772575238,-0.0723880492614228,-0.08095179433081463,-0.10031491630611819,-0.1307759752898372,-0.17402222352132307,-0.2242701737148385,-0.26638921831757667,-0.2827345763705071,-0.28239484823411526,-0.2720091074883568,-0.2574965547124407,-0.23268780669478217,-0.17470213446526678,-0.07216062592946464,0.05036730810131383,0.15441847094988007,0.20793139079143436,0.1822808502352229,0.055646822482408195,-0.1441066333112267,-0.30567706418948953,-0.3722361874816804,-0.3717143603636802,-0.3331770631817146,-0.2722741703229967,-0.20584468135504735,-0.14747873385783292,-0.10210164476641087,-0.07664950839121551,-0.06747249907928711,-0.051974719930665825,0.01430030553105955,0.1320191646224893,0.27583387688985483,0.3917353902113301,0.45137481109638034,0.46974959101883834,0.4736027820766903,0.48863067105070207,0.518911418176025,0.5541293693516667,0.5775255818097257,0.585413892754842,0.5838377103585494,0.5711154084193426,0.5325191718856659,0.48243228768915697,0.4395110055351357,0.41212594298148897,0.40191324252414007,0.40395196835119757,0.4063553117098067,0.39968842540243177,0.3757456956584588,0.33724207097558456,0.2883866432126718,0.2334688795982446,0.18579690099453902,0.16437118520975527,0.16879363575220946,0.19064065936353355,0.21372225067563855,0.19544492863313292,0.12686057643686327,0.04693575450840768,-0.01775753291104573,-0.06916307528218175,-0.12071784765825627,0.02030144729609643,0.0805753155159394,0.10610608015818906,0.11940362947600351,0.12505788742741183,0.12212918713927541,0.10653996572292905,0.07927583018053962,0.04719956530827856,0.018298780369618194,-0.008582627697859203,-0.036502631767143696,-0.07332030987881119,-0.13074836868639733,-0.21484182801816162,-0.2974276604371756,-0.35670515011868564,-0.40603219776060623,-0.4544734319476813,-0.5012831454545039,-0.5399563990169233,-0.5404080052983862,-0.4687711780018646,-0.3441540799626708,-0.239502454524974,-0.19487378671635167,-0.20589304707150408,-0.25970852148984497,-0.3414625363968662,-0.40559049774958517,-0.3741856197975593,-0.27842271962610915,-0.1922565284272634,-0.13760625664177562,-0.11107178249359202,-0.11008922407803877,-0.11440530243996429,-0.1077654455189804,-0.07686282187319393,-0.02914240654270443,0.02766960757833835,0.08837934476471489,0.14153939173827096,0.18719584099416292,0.2417086728313739,0.320240107908036,0.42850270644414373,0.46635235023598726,0.37907470183719943,0.3121322457517319,0.2821881123238855,0.25401824744007045,0.21283310943546813,0.1831395756878905,0.18680482118431352,0.22903855627335654,0.3008146718090988,0.35798245786513494,0.3789289479978376,0.3687626268169601,0.3505949711113023,0.3398469951143527,0.3320818595622417,0.3165483887357029,0.2876580849029941,0.25142829857487853,0.217739458695305,0.1914403383025565,0.17609631362851985,0.17323812525868276,0.18317797048341247,0.21142637991030439,0.260836591939873,0.3109837453306704,0.2990612731351009,0.21336642891342358,0.12886613537067254,0.06689354920793421,0.011230498189441931,-0.055203200772352475,-0.15315019411647512,-0.29934772870758863,-0.48156332130953716,-0.6409760377681076,-0.7295809515870311,-0.7488125845108847,-0.6967986714418899,-0.5648567815905663,-0.3886908006644235,-0.2770541997485119,-0.2927772170882123,-0.39368492764224733,-0.5091940314651687,-0.6065616213017447,-0.647365483782361,-0.6214705857244085,-0.5583505599217593,-0.48237736403401216,-0.40302748601627547,-0.332479202903645,-0.2867456199961238,-0.276130216733195,-0.30278093523456906,-0.35413034067757676,-0.4071152254853073,-0.43181490122959565,-0.41012499549714265,-0.34083812521261786,-0.23577558657289072,-0.11294903035255298,0.0006280054566908463,0.08525759245449534,0.13660750762099722,0.16052829710609803,0.17968571367610767,0.2120160832997145,0.252308069416915,0.2745956813699482,0.25284624161669617,0.16909647194745558,0.04512600767606772,-0.06514424506914196,-0.12238280189685051,-0.11509920663922978,-0.03352202376741355,0.11656172649985044,0.27620816608469045,0.36800867851598446,0.3817375667075025,0.35960719497852534,0.3316622377878505,0.3148092649078628,0.32117975644578306,0.3577383107247981,0.43007491479221016,0.50625004316451,0.523651583929023,0.5074068274171664,0.49440842674400765,0.4806405309296191,0.4551212130269269,0.4111663260804191,0.34761926045647507,0.2720375069124634,0.2049554288114117,0.17488975952139266,0.19000907876767983,0.23911876191595596,0.2929027681119445,0.3288045850712521,0.33677924443949875,0.32231833465414733,0.299015847760574,0.2782609147623631,0.26179043854462225,0.2379253990736889,0.20409574651240797,0.1653543553786542,0.12836791322653174,0.10381529038176777,0.08433236255375587,0.0639486513353175,0.039025307407617366,0.01606515655753566,-0.000226624421222933,-0.0033765485298201587,0.003570413400384505,0.015173506251201653,0.026517149105878105,0.02890880188347093,0.01718875625733078,0.003986703949370274,-0.0034572477515480452,-0.008652669831669289,-0.02598600502865083,-0.059099771902300535,-0.12080688295362658,-0.21914818407374465,-0.35484283293945706,-0.48905217474499557,-0.5535124037106933,-0.5529472557797562,-0.5394565170034532,-0.5268566255603937,-0.5052293769931189,-0.4728511733370783,-0.44075116433617517,-0.42390825588821635,-0.4224374492737556,-0.42484768063363965,-0.4200461777146891,-0.41199523693284956,-0.4095251089848438,-0.4188833845046826,-0.4401678673176354,-0.4756052053083625,-0.5223279938825462,-0.5579597157514626,-0.5527073735339496,-0.4402397548392805,-0.17067830879739182,0.13067201907246387,0.31966492502723354,0.40685633166746304,0.43639305947521645,0.439398553638941,0.43433398581332533,0.43352905794208435,0.4478794239128061,0.4778520192395265,0.510736070211169,0.5355942716784541,0.5437112012088597,0.5187386045136629,0.4472167312904183,0.31852900835023845,0.141618401944016,-0.05437808246186954,-0.227062691915774,-0.3438816990946057,-0.3866437000719649,-0.3619840059607923,-0.2943278681137392,-0.22024375640685875,-0.17310362872980908,-0.15430750320021777,-0.14693238133883696,-0.13726531591013003,-0.12114870611456705,-0.10056782515814468,-0.0722708876176265,-0.02256746646658175,0.07251824504212884,0.20686088378861361,0.3360171165379848,0.40675450513647854,0.39910611890084824,0.3293982837863657,0.22681462082621928,0.12836857059502801,0.058496432945575494,0.013291635547578846,0.015786105028619504,0.03193296207796719,0.04470514838893135,0.055137777301289465,0.06372306055838085,0.06483202969919258,0.049347895402725044,0.001444561606004422,-0.13405903129527033,-0.4258140376447839,-0.4824932922575734,-0.47177278847359894,-0.5285964367347036,-0.5969424742252925,-0.36539189189130705,-0.16400433317052723,-0.08112048419286151,-0.0538215381042242,-0.062124955131028406,-0.10220314144080456,-0.17920454458297724,-0.28579102622029867,-0.3780863475856281,-0.4010951455989455,-0.3662721881015654,-0.30886782987096123,-0.25419168788567,-0.21781530434122462,-0.2078918812287844,-0.22092974726701523,-0.2418931001082967,-0.24598357360465728,-0.21266058693250428,-0.1414592080347644,-0.056526876022962115,0.013355021956343837,0.04955414123684331,0.05324159366129696,0.03981448155384616,0.030450227230390422,0.03759249486601641,0.07547161947473752,0.13440951259541134,0.1826290879082299,0.19779859435267805,0.18610138342390048,0.17191699238364777,0.17345236017588578,0.20244109113912145,0.25252911608014295,0.29850153499321214,0.32484894214840737,0.3350026447742818,0.3386996457666391,0.35079073579842024,0.3799581186893385,0.42500649459006495,0.48086291040444096,0.5410068194178009,0.6022961090981165,0.6661156736939079,0.7233624909157342,0.7702531249242582,0.8072440077444892,0.8328597889300995,0.8434471726181753,0.8368448404946734,0.8095570292224457,0.7493358472217478,0.6129183443694878,0.29341642635944415,-0.23083838309739152,-0.614642799349495,-0.7789303885855076,-0.8403788253806665,-0.8592903795961407,-0.8552409700765436,-0.8353781962819274,-0.7992810753468009,-0.7431931224772184,-0.6671909843489257,-0.5848734529380946,-0.5170194343945327,-0.47101126437311464,-0.44007321475675754,-0.4316232786763832,-0.4374176090399186,-0.4452839137260841,-0.4596630905611649,-0.49647299217913476,-0.5688827894706753,-0.6498846085540861,-0.7026265680094363,-0.7103185100568937,-0.6782368528367947,-0.6099051846082593,-0.5111530014368291,-0.39815206896545335,-0.2961547934525372,-0.22930807075373644,-0.1968206743817052,-0.18177095154882597,-0.1776866438877467,-0.18188946055123614,-0.18591085290511808,-0.18713918356869833,-0.17597708821392508,-0.14576771172030056,-0.09768523919341184,-0.03654895964589105,0.03249975586839242,0.10792647799797894,0.2020939309258481,0.29109974659611326,0.33349814590642635,0.334802719120464,0.34658466118443176,0.42324234455580706,0.600008759088822,0.6739350827907188,0.5014825866297626,0.3806172591993682,0.3230310730227919,0.3048639234963279,0.31852897074696923,0.3052781270417788,0.254162282514711,0.25844119342393834,0.3057285108403843,0.3218090683930392,0.2527923810492469,0.1602395724610745,0.1104210404461727,0.10643149149795356,0.12611240789781433,0.13041304519165295,0.09104707302056134,0.007886915327654013,-0.10722631982066563,-0.24710460462252115,-0.3821301840052597,-0.4659187801840354,-0.479831285502704,-0.41631057231852253,-0.2734092798951696,-0.07566616281728722,0.1058262768960414,0.22428962310417225,0.2779962136652242,0.28045662335500643,0.24979901519662367,0.20754045913307778,0.16447840091761817,0.12590668050807569,0.10087149062264078,0.09841608932677157,0.12584404321595266,0.171795479667685,0.22146335736947273,0.2664194473129212,0.3112616194247656,0.3653377096228216,0.4336142089889665,0.5186247153218945,0.6169945677008167,0.7097465724349543,0.7941475649475087,0.8643929660052436,0.9095967775452728,0.9310341140877288,0.9373129497370069,0.9359129586227295,0.9282612125544986,0.9085958758920963,0.855389723730118,0.6925283678686489,0.17533570108739485,-0.4891386995780318,-0.7181928541613788,-0.788788545373047,-0.8343167908460741,-0.835061881962458,-0.6921963298864704,-0.48908859714511976,-0.37496499871543576,-0.3697351893605261,-0.46458727854848475,-0.6218224489355484,-0.7278488010817681,-0.7466169344632267,-0.7390689195170979,-0.7287745749955892,-0.7000632048042877,-0.6213523223266363,-0.4898249375847887,-0.35915900024108577,-0.26822443335983137,-0.22181105393135386,-0.2104474043882649,-0.21398082623032225,-0.1895795986029185,-0.11859362258243276,-0.05348019837417387,-0.03513757073219383,-0.06073051924226073,-0.09755973134631982,-0.12377163039920233,-0.12660707926742207,-0.09079335994202714,0.020649939800343152,0.11779088988436089,0.1649151455095239,0.20359031778729136,0.2484668189398458,0.30123867765470325,0.34449266036223253,0.3709931110953353,0.38445731617374374,0.38550746559211596,0.37761787697361704,0.3620884160824916,0.3424638012797834,0.3208068499518516,0.2938441259881882,0.2607677717981154,0.22961832034637716,0.21091188588027066,0.19777999713399383,0.17688533838617257,0.14608478137843614,0.10180437006601548,0.04835283540195047,0.0005586950469231686,-0.027554780256116206,-0.03188816592524491,-0.020878811669602176,-0.003681248419547588,0.009731035096963084,0.012472730566600069,0.008365634916077315,0.0035008579721833716,-0.0033257360596990627,-0.005575897297353724,-0.0016982860826326989,0.01392213712960856,0.047467559452899426,0.08962308729464107,0.11164112073959304,0.1198596067271577,0.12538563421023366,0.12220820393433501,0.09236841373403255,0.022326069838667927,-0.0808571190375185,-0.20818108384093606,-0.3512447046538261,-0.44069312413040146,-0.37144524676631546,-0.25533096441829783,-0.18060771983151278,-0.15028589530158398,-0.1545495938295164,-0.18608308372965413,-0.24103057910832726,-0.3019409606774696,-0.33677047831862283,-0.3289625096673482,-0.2823193882774182,-0.20933237478893263,-0.12188733911561211,-0.027777283819301852,0.05971810652058312,0.11988501163645873,0.1405487158978062,0.1252285149759787,0.09801582109473002,0.07342373013342077,0.06956296758281431,0.09014099437317527,0.114857264770218,0.13557347367442157,0.15668793890495483,0.1863451386720751,0.22377036007954737,0.260641295530953,0.2800740466355524,0.27508971935695675,0.24274939621138672,0.18605790057954055,0.12614126137680665,0.08545786430907568,0.08775210490323439,0.16916362080421926,0.3758263836753019,0.5843671846891364,0.6483877909443353,0.6686673129855215,0.6843211729832301,0.6755128031930682,0.594571773239567,0.43984827085910305,0.2833150451614863,0.17357195305579554,0.11792302803539524,0.10522659447954386,0.1271134738284926,0.17610923650977353,0.23661549493755624,0.2876603869737256,0.31127461749697666,0.3053003035050604,0.276160648284363,0.23336696606385648,0.18244299278616072,0.11760553746199898,0.033396728550218725,-0.07137622584416138,-0.19335345482538688,-0.31569825096266757,-0.4131165435381578,-0.4664798788103686,-0.4797729449013246,-0.4614798945612201,-0.4129560254300747,-0.3415484544494975,-0.2669086328316155,-0.21051201355604043,-0.18286180352546297,-0.18207697985956184,-0.19029483673479808,-0.19843983428114614,-0.19811322980144194,-0.18026288888767822,-0.12657269172489627,-0.08322026580158796,-0.08145908809259203,-0.11324810360076601,-0.1651791556654966,-0.2458136111575785,-0.3205839903639516,-0.16675383559850607,-0.06070116863297324,-0.023738092174219357,-0.02435834167090232,-0.06462441248755721,-0.16987139831279208,-0.33235619541332045,-0.4140615272410316,-0.4117110861726466,-0.3665772964819024,-0.24648003109054478,-0.05699399812810827,0.12134553868049291,0.2608161748170576,0.4129691268665455,0.6155073855044267,0.8084214326119363,0.8805357887283598,0.8713077509262326,0.8477259237335424,0.8202439743891068,0.7410667641646015,0.37372199893739527,-0.5707112107281687,-0.9196119823212098,-0.9705853009158666,-0.9635165364445312,-0.93400173491596,-0.8851802216797706,-0.8127202212603162,-0.7183635176189308,-0.6137943645721998,-0.5077478113959181,-0.38555331482094113,-0.2199456887266422,-0.009465508419888078,0.1992015253336931,0.3528355397977351,0.44274469058276844,0.48593913735317634,0.4970128925640828,0.4782076747145113,0.431146919286588,0.36266607922426575,0.2907319195470315,0.23996933237307053,0.22612253158872378,0.2474915668967302,0.2899301121696018,0.3327181194485346,0.35204908346419506,0.3367947363062625,0.2857958808980609,0.22474168580211037,0.17915824244118916,0.16283662985959302,0.18755167872915257,0.2302640499510326,0.26916490689109496,0.2895090906233467,0.293292546438738,0.27637983306918196,0.24051443367789901,0.18053327040487738,0.10957869101939516,0.05046580523722129,0.011234763452474436,-0.019502136639950724,-0.042696389030659504,-0.06275767860210606,-0.06462808221340018,-0.05507769673231186,-0.0516965632612109,-0.07174064599477692,-0.13156872331429484,-0.21661130449617128,-0.29546815258447123,-0.354134234366888,-0.4068745459769855,-0.45192656478752374,-0.46922208008639904,-0.4424030785621447,-0.380416404978111,-0.30853013461303586,-0.2643429084739957,-0.2642111289605112,-0.2828462435575521,-0.3069207554440841,-0.3444132331364805,-0.4018399748366828,-0.4559401495357628,-0.48311528809703647,-0.46790052902330836,-0.39296003109627786,-0.24903531147693125,-0.06867555872275877,0.10945022894869734,0.2591162364272208,0.36973637501308515,0.45217585416297806,0.5192016514567267,0.5795893227390442,0.6225961766346317,0.6356899187099379,0.6160303590598332,0.58083816189819,0.5516774750039952,0.4644738563009236,0.11507143600037534,-0.08418501842497673,-0.14184985364781896,-0.1344755539404392,-0.07039884196601233,0.043148780012792834,0.16647391814923376,0.27579701967108156,0.36013445198884547,0.41027210603776,0.4435871582012003,0.480787289618148,0.5314962990783911,0.578095024006596,0.5855786657281908,0.5314501363715594,0.41549637329836214,0.2734314687547877,0.15058735457830227,0.07217863558792294,0.037081853699202715,0.031376357338801286,0.04306201533635853,0.06264295202607027,0.07620560315883447,0.06898759715197746,0.02993911861246739,-0.05017567655709658,-0.16378354803947598,-0.27197536658882854,-0.36519697104376003,-0.4560901354934097,-0.555210324042481,-0.6493326902205341,-0.7067320613968727,-0.707595608480322,-0.6484629836233766,-0.5546320428417726,-0.4631393515379249,-0.41683305029908563,-0.4237458192026724,-0.49219359411802377,-0.6616103330725241,-0.7126972005183213,-0.3662335621658502,-0.19759035886992274,-0.12926763277520056,-0.10022332136393133,-0.08918196669290898,-0.08854819456373847,-0.09667135816188231,-0.11325306551763037,-0.12902504257764374,-0.12426767890381317,-0.09291471471562443,-0.04955602493925506,-0.011854231840034951,0.011202156814838932,0.02013398844275056,0.01733404770053014,0.0033811651712178374,-0.03771620820138102,-0.11541312410641781,-0.21262355659898483,-0.26825718363522505,-0.2858541066556092,-0.29537590762140037,-0.3011500404918277,-0.29679210443537785,-0.27154182368699264,-0.2166054786647245,-0.13876078620018162,-0.056663729366998365,0.027779798740175454,0.11388628524961943,0.16594138824477445,0.15258401076920233,0.10243833778057326,0.05318740267345705,0.03383003191645402,0.053698354584342974,0.11023388972648082,0.1948463963637128,0.29582010927285207,0.39672642764010335,0.48195942204833936,0.5347840363330246,0.5445274020625203,0.5084184692527733,0.4395558654743326,0.37324195536682186,0.3344064046707188,0.3219973459570257,0.31905074954808266,0.31087693825915536,0.30317069125944096,0.31104437380335853,0.3414567917229696,0.37773266840593467,0.3956005615263973,0.38358615166022836,0.3634776767186781,0.39861691407973787,0.5178048962965596,0.49047944060798404,0.36984251816180097,0.30166288116026757,0.26077535940887786,0.21299580491357883,0.10787687389970455,-0.09266213404780671,-0.32767231516365836,-0.5171895069688183,-0.6472077191246218,-0.6850012474320546,-0.5425502351753592,-0.23918633832780245,-0.00405673663484429,0.10178646614898362,0.11782854542465615,0.0685893455014816,-0.03663326345312771,-0.18355709286668742,-0.30723751666458354,-0.3659141909937364,-0.3626362589300491,-0.3184561603197637,-0.26362213402376833,-0.24578238614816142,-0.3042241543642246,-0.4213420746610608,-0.5244150377550026,-0.5844882660688403,-0.615210127647845,-0.622387682606705,-0.5847067947563077,-0.4724230042341692,-0.2916752275425643,-0.11563693251667899,0.0037298211856408,0.0727064560711858,0.11635274571517966,0.14653002007457533,0.15912839076853466,0.14900561938283377,0.11597289877285666,0.08547723613693595,0.07160888842883789,0.09460287822614234,0.15746683329485367,0.2277178446481287,0.27964492078009046,0.3174619490629693,0.3407057734709707,0.34513522385104634,0.3055578757809239,0.22824089224046962,0.1544442734179668,0.11898730402070204,0.14412982047878103,0.2213416034423438,0.3049498829072454,0.3585846836819037,0.37872322141324044,0.376811393518938,0.3660901283866659,0.35695253224039347,0.3465174494362187,0.32601203879814705,0.3017327080351148,0.28516452409739534,0.2690337669607591,0.23684875945398423,0.18064176780028288,0.11024023722740117,0.04696233873928978,0.02309656419651906,0.04167827311465237,0.08001032479950974,0.11713563325197972,0.14636157302483374,0.17213395782556948,0.1916507357544071,0.20107922920748422,0.19472107556741347,0.16640270486962863,0.13192453058467365,0.10142659549283826,0.07407494881324195,0.044924660272592495,0.0020042311262801153,-0.04714545418273819,-0.09375430844244537,-0.13245419869787076,-0.1698921887270342,-0.2117560068755793,-0.265825036327373,-0.35051201454818076,-0.47454919843928417,-0.5040444436655996,-0.4325457945446951,-0.4134807105120192,-0.4634157494965854,-0.5460721658201667,-0.5647263361745513,-0.5007015230238095,-0.4378157813370458,-0.3926829885184917,-0.35442166501130745,-0.32908278250780376,-0.3363511604055904,-0.38218540717129884,-0.44180810782503127,-0.45028949937665025,-0.38425674681740535,-0.30615990212827576,-0.25229923063693144,-0.21982983535758593,-0.19882041802463785,-0.18737164503578324,-0.18796459036283983,-0.20382256557742873,-0.2268058007607222,-0.25171737259397653,-0.26037668484480775,-0.24691911791699417,-0.21523844516241022,-0.1768483354824443,-0.15491311743977845,-0.15045230315357555,-0.1515240268011568,-0.15465309997753157,-0.17127013935881757,-0.2084230067606754,-0.2592519659762114,-0.30560466784804075,-0.3209728120967122,-0.27394827374136993,-0.1287016610344644,0.11706811730716452,0.34069487846769003,0.4659004492289405,0.5290309914850748,0.5697174232680144,0.6166263357491621,0.6679276886847125,0.7116145094154969,0.7421725926521203,0.771189109969848,0.8099293090795324,0.8515088046055701,0.8821442415146193,0.8975633958289274,0.8984758919416769,0.8836540993081212,0.8437529547543405,0.7471112447904777,0.5226282950458899,0.11852740563053411,-0.28406492319604776,-0.5175167452015614,-0.6209966615404342,-0.6470701953082014,-0.6172267232635656,-0.5465631499233714,-0.45667517683124154,-0.369663414455972,-0.2958393847946697,-0.23473985360012864,-0.1801786711746675,-0.14824240065587413,-0.18073300741377363,-0.2951148625076082,-0.37396878441636416,-0.4165067493818689,-0.3725578431326076,-0.16028732860751524,-0.037447647683974586,0.008652727247165124,0.010971431580210064,-0.03395126482425472,-0.1578201370010858,-0.39533795800881344,-0.5797401909874599,-0.6027783326010206,-0.6055027446304995,-0.6108575111170205,-0.6016178772783963,-0.5720209575569642,-0.5266725102078814,-0.4575378879947794,-0.36306608250546946,-0.277042913477506,-0.23281386278270666,-0.22719654291735455,-0.25201519491264157,-0.3098296101159363,-0.3682851414066016,-0.29074621747329493,-0.19674953684711144,-0.15412139175055595,-0.1441369183515105,-0.1499284088030314,-0.14571048081849003,-0.10826689531400788,-0.04569848773549015,0.011536693192853229,0.05128335493362221,0.07310481417006492,0.08155879222804746,0.08641160305055051,0.08434922906139088,0.07305330714455978,0.0660361932673941,0.08486183415583361,0.11983796743497026,0.16729917691551083,0.2349678250089067,0.3118730604957638,0.3777576577217273,0.42883888999296893,0.4723490546149842,0.5045452695889822,0.5219442111450331,0.5317699160378652,0.5432031809606233,0.5568061093781208,0.572148407465825,0.5815827571535801,0.5879423823035947,0.5908253500293548,0.5772170884058556,0.5389690305211904,0.4803718335441943,0.41201266178704904,0.34709404494989443,0.2980177576202517,0.2774362418955143,0.28631135709829836,0.31589422625415925,0.3469531968176596,0.36284284915967047,0.3498986506686205,0.30818940643395665,0.25241476012195413,0.19526497312675095,0.14878796693084323,0.12322153252044006,0.11607428240008562,0.11356999544846909,0.10894051794916036,0.09362716075142977,0.06639506456189456,0.02020559720082058,-0.06248687509673896,-0.1476025802664938,-0.23788941301464397,-0.3810013614897024,-0.5825711568034022,-0.7378319442374096,-0.795743628857803,-0.8145034574260842,-0.8235923617303854,-0.821710909051434,-0.8020958228464561,-0.7647149712237832,-0.7160111289238362,-0.6649970791287347,-0.6187706478606407,-0.5772044391678081,-0.5456621676704568,-0.5216649498206164,-0.5009831335306418,-0.4789755979915814,-0.44611181551547513,-0.4175741477221091,-0.4216659180010093,-0.4695992467871157,-0.5358272807613259,-0.589638443225206,-0.6115628679022183,-0.5919051090778641,-0.5364116629495309,-0.4591486530340043,-0.3816132377137291,-0.3165509610751163,-0.24629715041931105,-0.14235532890671798,0.023949880351692814,0.23126849721332332,0.43168229234529065,0.5806599675201104,0.6742857004871833,0.7368600364638399,0.7986705856412429,0.8608359892278327,0.9120930036980813,0.945399598665285,0.9621884555855883,0.9665103332071769,0.9614211526386091,0.945283033663339,0.9149046072533751,0.8617419256550474,0.7539396969262683,0.4688837643488178,-0.1483720657548733,-0.6217895237168422,-0.7682270445255875,-0.7797923946092138,-0.7163735944917546,-0.5807837500202314,-0.3925454225376549,-0.23140092910502247,-0.15893805665356872,-0.164971251555515,-0.2114362137516654,-0.2844169522093935,-0.3778118738692326,-0.3924439734879312,-0.2347955950452906,-0.0996169419777448,-0.01981203358688295,0.02924503767728643,0.061761798188405895,0.08346282740127485,0.09098542284640806,0.08348638813394177,0.06261909801018298,0.045687716733338386,0.04490837418786803,0.05359035685944462,0.0567747079471849,0.025511655830027014,-0.05314546721835172,-0.18138253129439044,-0.32431930090259786,-0.40722606774431513,-0.4568174953481754,-0.5478872283407328,-0.7442718305638967,-0.7927794951667704,-0.4238219365465204,-0.21880472915448987,-0.12391800065032331,-0.08056237704728099,-0.06538386660044715,-0.07568969935138435,-0.12438823240331959,-0.21995767855053422,-0.3162140427694483,-0.3670643983867863,-0.388346710355454,-0.3997683986552101,-0.413303211873811,-0.4275137362076588,-0.43936468349541224,-0.43635742802013605,-0.3998073161126271,-0.3259477822676494,-0.24440621807636187,-0.19349999797738549,-0.18306559908469655,-0.19079530290334046,-0.19018162794851629,-0.1609831436058419,-0.08995471095908443,0.022923549373595514,0.15184690805690584,0.26468724305656366,0.33747561347276994,0.3822845210820544,0.3972440101031843,0.3447184997499091,0.25883948828345643,0.20377514247177145,0.1851994251736501,0.19028120470764437,0.21349622031312881,0.2530321125034635,0.3055608617248889,0.3629758111055526,0.4053631303897332,0.4137696935881942,0.3947048463878231,0.35812809785871846,0.3138763609716082,0.2711200933494688,0.23442009690452514,0.20757353537612705,0.18828588826235915,0.1754482524071981,0.17026108594760747,0.16737842605223222,0.15572647389301306,0.13294337863562375,0.09618052589625399,0.05701123798344481,0.03074025014016673,0.03753584144890201,0.09918580707546591,0.22018522718597397,0.37498509847543,0.5168893263690274,0.6031086070052922,0.6028467523798458,0.5058287675444371,0.3720269297561828,0.27042095541520816,0.20337380461353463,0.145483884036969,0.06580598334953638,-0.07272559131176622,-0.23047497817491555,-0.3393624374974513,-0.4334370533657997,-0.5798394315654121,-0.8317681103027402,-0.5918638796181953,-0.273252432231499,-0.15037592958178447,-0.1009895926282948,-0.08431437801940027,-0.08737376598637686,-0.10598719012148984,-0.1432631169506219,-0.19605750734184782,-0.25432357353005214,-0.30392265349966996,-0.3367211369956955,-0.35253230861478696,-0.3546292733532435,-0.34396794652900575,-0.32035476975528077,-0.29445204498459576,-0.278127258709058,-0.273044216122199,-0.26491142006979657,-0.24676220514168365,-0.22229326596263924,-0.1926806879397514,-0.15663898234737467,-0.11329247559410548,-0.06934045868276104,-0.01914421421065842,0.048543033338363815,0.13720773112140788,0.22822846970552688,0.30234854438307746,0.3731379132296093,0.45506225106862597,0.5569851709030341,0.6694484079919976,0.7697643061242722,0.8364402564912254,0.8643545452996351,0.8519134139380845,0.7393120512252037,0.22136891636573205,-0.4639198178989391,-0.6223117789016515,-0.553046267407287,-0.3717489099341487,-0.1502424085294082,0.03412173659417959,0.1687934299354944,0.2567475822809909,0.3040082354103209,0.3088149032123404,0.2729581762548645,0.22000331616152644,0.17220671649101538,0.14103745212322302,0.1388445429575037,0.17907328014054408,0.2340924346683152,0.2659160426423772,0.25828666759258034,0.20314150970672654,0.10124594740763558,-0.025655328666111872,-0.1322780235077815,-0.17477181619301688,-0.13816780285859379,-0.03376801407085483,0.10669920309815882,0.24118620704083255,0.32975301973520166,0.31237868577889705,0.13709396712661145,-0.14078761778837934,-0.4076737054545771,-0.6074541120147734,-0.7375664381250101,-0.819744991041159,-0.8662627776011589,-0.8770959795361204,-0.8462288875101279,-0.7953845124862196,-0.7521522530923802,-0.715928772347652,-0.672044380346238,-0.6040366788361674,-0.5053912522300965,-0.3679790400453855,-0.23352125623730413,-0.16428336419219156,-0.15798169707921433,-0.17102985051108283,-0.18099500101681604,-0.1850007168403738,-0.1653118676688731,-0.12529064458339187,-0.08795733889461173,-0.058459969412090695,-0.033656476370867446,-0.0142641380540135,-0.009820188865086924,-0.034173709923723275,-0.09213127785464359,-0.1441688095149098,-0.13778080081922067,-0.10118275691281414,-0.05715481562335838,-0.01040755144956322,0.04155215298079553,0.09152540808498398,0.12722113276957955,0.1519504956842695,0.1842317174072937,0.2529845363662131,0.3644040814712719,0.48143772396037987,0.5704513776759342,0.6346545892974829,0.6804237874473216,0.7114653414234263,0.7160417014496117,0.6689398843485996,0.557068090464593,0.42717854733074273,0.34140269082691227,0.3262183927737285,0.3642660175587831,0.3946893289948424,0.39682154968718364,0.3772233577405317,0.3284393405831809,0.24733444766706403,0.1623821422713834,0.11994893207981053,0.1283904635576697,0.1592721245792745,0.19236247911123167,0.2100090825666939,0.2080513986510513,0.1973301670235776,0.1884916823271214,0.1822900765725593,0.1717492846570646,0.15934169501347617,0.15207430440417946,0.15896220953572868,0.18006907838145464,0.20989102892265238,0.24672597285142464,0.2999269652530133,0.3665060819536919,0.42393418498629665,0.455095903219611,0.45343763340429477,0.41761751840797406,0.3622074873965251,0.29237125307155204,0.18065200071777887,-0.020709251494566556,-0.29127215912524834,-0.48677818332943645,-0.5463152209839343,-0.49716927347221107,-0.40632937051006757,-0.33426636528724485,-0.2948998150297234,-0.2770697106786649,-0.2684990164945323,-0.2665626676372887,-0.27026835215371037,-0.27297806335081803,-0.26619772726649255,-0.2620993435744821,-0.26272855802786726,-0.28012461542624,-0.31953314355409096,-0.36629864522595196,-0.401500470176991,-0.4177935288568837,-0.42854744482497953,-0.44115661890739233,-0.4520426602695329,-0.44863735942276406,-0.42939343501719807,-0.3896640897547067,-0.3328446386562878,-0.27470877674786925,-0.22321240525337344,-0.1862856677371728,-0.1682746011883532,-0.17358107216321914,-0.20703640781356386,-0.1611183527293024,-0.02828327611244381,0.014671613661340836,0.03185949063801191,0.04439270423853091,0.06060195412274665,0.08569073060308605,0.1019655427973789,0.02899361115128512,-0.13676856810783383,-0.23227407888103396,-0.2147830332208449,-0.11858395120438792,0.013090293249302862,0.13221428293040155,0.2025261686447869,0.21694344303292123,0.1971713633928918,0.17741928255908807,0.18051329031576197,0.21924597370933543,0.28353173308991814,0.3449637495178228,0.3836996385877117,0.3898015192801239,0.35999302465565614,0.29746545826250365,0.21489994012298963,0.13393566453978628,0.0713038533739897,0.032434868069447564,0.019832281782719893,0.04756103222723671,0.17297358786789377,0.17413789111013012,0.1528401517711149,0.1584811345393787,0.17313425030295937,0.1923985057957294,0.21478704505762553,0.23787312911082695,0.2585343936811075,0.27463113861365374,0.2815841238465346,0.2734777207051799,0.2394633664909887,0.14300814859733885,-0.2253549613022569,-0.5212271310087624,-0.47729644883368255,-0.45565719327239157,-0.4520089195775377,-0.46559301426129424,-0.4987995231630958,-0.5386820335158942,-0.5729384328569718,-0.5755432998272388,-0.5357832530584524,-0.46433808476299976,-0.39880217432658854,-0.37055997720450407,-0.3847909579788726,-0.4227614543740602,-0.45372341192027194,-0.44993041590726285,-0.4121774591983606,-0.35664532322674397,-0.29869207021674576,-0.2488844347749517,-0.219654592134631,-0.2136917086865636,-0.21963848199540206,-0.23493666389593226,-0.25275913520540894,-0.26755826035002866,-0.26604767793106443,-0.23815174294963062,-0.18444391052424458,-0.10916122924843338,-0.029897606759278748,0.029712973665252673,0.06937444910931319,0.10124797297956789,0.14370740657562525,0.19989358131243443,0.2576070102755124,0.30005458083573167,0.327783633986915,0.3343760117359565,0.3439474536801091,0.36176633752832865,0.3777213102159676,0.39791292707994735,0.43289610176028936,0.4819248814295317,0.5247034083693486,0.546937009325972,0.5591830990978729,0.5913213308718747,0.6390222885837279,0.6789815674352344,0.6973574629052803,0.6851032265324121,0.6388264637141406,0.5585064611949513,0.45463860869254236,0.34045957687750655,0.23581646009818627,0.14960837976442598,0.09640867313727491,0.08207213605318786,0.10180861006679363,0.1391164946478453,0.17807325906201082,0.2115825626222848,0.22652826758305727,0.21897366470141544,0.19043561477921148,0.15312539906190892,0.11995971880385492,0.09769290874288855,0.09016410174209931,0.0931738087471157,0.09797509275379465,0.10231224429554711,0.10972029674241494,0.1186834401169404,0.12239511418589527,0.10659500012509425,0.05044342769724322,-0.016820373273911293,-0.06936253031564649,-0.127463999408035,-0.21411026628923968,-0.35236437039686896,-0.5297857648832526,-0.6641200362846637,-0.7116829941123696,-0.7005816477677862,-0.6587495710983204,-0.5989279688708755,-0.5374375030428453,-0.49607365477401094,-0.4931034869665967,-0.5239794314766711,-0.5698869572219843,-0.6075476560243278,-0.6229523761556597,-0.6080219903962985,-0.5631403318760679,-0.48212201246507136,-0.3628818842789853,-0.23024263234493406,-0.12009979956591316,-0.0498216379647877,-0.016397708529499625,-0.003708418844919624,-0.0010634040361783182,-0.005193631674319361,-0.02100808136176829,-0.048106376724250215,-0.07856035419870626,-0.1003644864089069,-0.08464164214915056,-0.006866895253697379,0.12656806133633372,0.26246838344735224,0.3243838178003532,0.288540994653581,0.20008496436530837,0.12747172272644122,0.10943104148836884,0.15783235546753127,0.26128823143910773,0.3664373641355474,0.4347691260718665,0.46796095678361194,0.47894982753369103,0.481756689441193,0.4701287254082963,0.44881074913720564,0.41839085039089,0.38912743959641843,0.37736658407417023,0.3950628438280908,0.4416469833850571,0.5047842490168715,0.5717366534717722,0.638778021514802,0.7040118168907513,0.764340762448258,0.8132331737610058,0.8489866202651076,0.8705456438262595,0.8781379794718251,0.8711346783333662,0.8450302589394294,0.7803685894267889,0.6300356862955231,0.31265777114367366,-0.12966729207702427,-0.4400397250094425,-0.5851339173648386,-0.6276860831702447,-0.5459949949286242,-0.38617520992182913,-0.36717127329870597,-0.4824750051172724,-0.635891096373962,-0.763284129515367,-0.8396090889675714,-0.8741601910868733,-0.8839766610945169,-0.877096865058817,-0.8566929316731363,-0.8211851501334083,-0.7831189869096962,-0.7584141686963076,-0.747347609946712,-0.729094013534282,-0.6886581141283232,-0.6292134792592279,-0.5546037933319673,-0.454153847188862,-0.3217695931463382,-0.18319388010048632,-0.07854270452134361,-0.022419163671827017,0.0023392815591542523,-0.00835168997265206,-0.06566147830942294,-0.1741733287210866,-0.29559948213276893,-0.39223353398966093,-0.4507747909528194,-0.44978823161732295,-0.37691106216755293,-0.2583807675064406,-0.13871816591311453,-0.028788158445107858,0.07521083072078331,0.18123490698028522,0.30101847526540915,0.4412901654420513,0.5876031350428722,0.6851225414877313,0.6576157746933154,0.5823308144310482,0.5503110039542146,0.558990530971109,0.5866695979613927,0.615124759510815,0.6434167379535992,0.659223999077307,0.652776752184001,0.610092023006832,0.5174167063212289,0.39125143350516134,0.2814116600579939,0.22363628572543184,0.21058181315414887,0.2034911804305288,0.17594175928933975,0.11964119528366529,0.04496628660857592,-0.031126808439931278,-0.08973409443531112,-0.1273854732743178,-0.14573183949573879,-0.14302291300579306,-0.11947284553455594,-0.09196959818617155,-0.07385082461550281,-0.05215494135496809,0.001274726353684468,0.1162907477699523,0.281665952244564,0.4166804803490439,0.4501793889917152,0.4147657537298844,0.3723672987843534,0.35639049603323963,0.34416176712447827,0.3211588616621194,0.3162324155278056,0.32184642744622133,0.3201442642357746,0.29702141878005156,0.2464985069995522,0.18321101504819218,0.12539151317803734,0.08010272139820024,0.04150801183092655,0.00768521721836433,-0.023335025049518635,-0.05406465334495773,-0.0823636747262693,-0.11347014283003318,-0.1672437860035184,-0.25346406405695593,-0.34509158065812734,-0.41025124656608086,-0.4359704028468645,-0.43316930356821404,-0.4085519214058188,-0.3666535272320131,-0.320958043442025,-0.2912586056865663,-0.29851489074428383,-0.3358790383208508,-0.3756919636360574,-0.3911137958385026,-0.37351695556555303,-0.3194897253632788,-0.23223370154431583,-0.13335616119116878,-0.03828140648710612,0.04370601914721666,0.12123722890964242,0.200777716737418,0.25430243272246944,0.2350965738229736,0.14201575797491928,0.028016275821069712,-0.05976092044357249,-0.10844925329774073,-0.11288607842944644,-0.0647716156360395,0.014282029459896007,0.07947316279857719,0.09812093016503587,0.0711414928097272,0.02099871954023597,-0.023434995224068677,-0.03939931645334392,-0.009844403273398925,0.08597322781457942,0.27205745936298453,0.5313391842255959,0.6791135612539114,0.6585673971458352,0.5897753663616019,0.5187590556454627,0.4554739480570414,0.4054371645441267,0.37176441468578353,0.34458726372271536,0.3148293815907164,0.27905843638905664,0.2363692258725887,0.18200431668321415,0.12400797362573333,0.07543816413636821,0.043619256340777214,0.037947176068395566,0.0563514186995341,0.07592124690266923,0.09433429525844365,0.11329775665872874,0.13128462848953482,0.14615355196711907,0.15107344074072598,0.14266489484024622,0.12243729194120645,0.08957109249345412,0.049753743403446314,0.019340070515410125,0.009550643237929597,0.001843001168673651,-0.030210911822910486,-0.08968427096769511,-0.15540889571494287,-0.20001511667274116,-0.2190960004610103,-0.23772625987806528,-0.28142082945654767,-0.3438296872386544,-0.41002147713404374,-0.45790788221320855,-0.47368968855554217,-0.4577071289465077,-0.42102760110951265,-0.371560446553885,-0.3196349167860928,-0.28135289374385064,-0.2556335726343851,-0.23191298529261456,-0.20980327791138204,-0.190399231161109,-0.1729688958181589,-0.15983354690417817,-0.15530124389509886,-0.1652302397703288,-0.2033434238595072,-0.30328444150112416,-0.3033918635684506,-0.1573664222772369,-0.10078986842708788,-0.08157994583361497,-0.08000479782355328,-0.09287630522904732,-0.12626823476280172,-0.1870629650320377,-0.2237424240857135,-0.16366467266016446,-0.06985587907433065,0.0201621226387007,0.09508990856693189,0.1549484020325163,0.20525560152233976,0.24463379459339005,0.2748269883286217,0.30419561107592397,0.3245609213469761,0.31854300250110196,0.28323636536940033,0.2308008453281644,0.18422563141216966,0.1593174085941967,0.1628001053997091,0.19772626155441891,0.2686733732005928,0.3744185104701543,0.48978208356650854,0.5747510136657681,0.6203164962218043,0.6394178247297806,0.6404502291351889,0.6317699680842337,0.6147897563160826,0.5830893720512569,0.5317091661272154,0.45952262880284295,0.3796695514025777,0.3153094144387173,0.27457820153748336,0.2536523745267817,0.24457377463795218,0.23509340684852745,0.21785032357886344,0.1855585041240007,0.13411613182986123,0.06422306260703844,-0.02029143534093934,-0.10441478537512448,-0.18921340886268287,-0.27509093031862253,-0.3609802512752201,-0.4493260612767846,-0.5289399144964662,-0.584324313368573,-0.6397115815370025,-0.6891932836177949,-0.6812800745074488,-0.6160432896300717,-0.5558006777136886,-0.5189476449363615,-0.4807945149624515,-0.4356349538849462,-0.385058796854093,-0.3326192714157543,-0.27526680788763047,-0.21895741958711554,-0.17613201733275347,-0.17050985830618237,-0.21684043778091147,-0.29838680579358273,-0.3706523096997501,-0.40458624825565925,-0.3973258873303291,-0.3476624817996233,-0.261680736601765,-0.17145927061077995,-0.13136236142302726,-0.18980535713417915,-0.3471098985306436,-0.5134190413967785,-0.6058868319873811,-0.6315163013866241,-0.6223706189187236,-0.5914422175579633,-0.5399061974309605,-0.46355679407237727,-0.3693770122208933,-0.2562796813470335,-0.10623835692083908,0.08941510212032426,0.2723043419086425,0.39089964947274214,0.42645566639463744,0.42749748457859843,0.4407047340151443,0.4737169635961366,0.508870686958179,0.5152965081023252,0.4800274417067052,0.41648774017163914,0.364037984467,0.34760856896654124,0.37145256297351775,0.3939215587176813,0.37847198793211867,0.3582985535709977,0.33667180784384415,0.29408046214961814,0.19480306515953497,0.04818362611472524,-0.07493880606335253,-0.12460716724408243,-0.0861299535316957,0.04842222925740275,0.24772686036595185,0.4420967605289304,0.5975113371055337,0.7152221151760958,0.8002344006309493,0.8543843595690497,0.8862353794013471,0.9038118612974869,0.9084463552209638,0.8980723169463951,0.8595938031798238,0.747740617720694,0.41976298197202006,-0.17095551036754728,-0.5301523224068482,-0.6304394188777719,-0.6197848980328198,-0.5568254690259056,-0.48311325625297713,-0.446597791045955,-0.4826454733240968,-0.6016561545668503,-0.7477231327718316,-0.804888347040448,-0.7909314491575478,-0.7726168387174077,-0.7553683959850258,-0.7075959328527094,-0.6097136442163312,-0.4969957795970298,-0.41366303748353855,-0.36632564108126187,-0.33357024814587144,-0.29533656123486957,-0.2612080553403128,-0.2507905413087044,-0.25927315311749116,-0.27330778137707074,-0.2628449967903176,-0.20179504775012486,-0.09907820384443097,0.006539033258968617,0.06382711665728918,0.046121316124971744,-0.0472381639377746,-0.19757440295355289,-0.34935321251711626,-0.42420369716786693,-0.40405736409428555,-0.3276666982307065,-0.2341758606816026,-0.1469503011770601,-0.07884856632867662,-0.02815095312564131,0.0202893148129981,0.07559082307471367,0.1293175923602632,0.14558997445957067,0.12845688865887359,0.10708334762760104,0.10646398190573099,0.12120076080190331,0.1440971837216477,0.17593577140479433,0.2093276945509763,0.2437486684856109,0.26505894467163893,0.2753404535746828,0.27466580178249406,0.2715338378792775,0.27183651829211636,0.27890250691116664,0.29193777432835677,0.3083377261822848,0.32704534290266246,0.34257895352437673,0.35458406542183646,0.3560261265911873,0.34058024023717626,0.30524413985784277,0.25528406228267086,0.20572475070878046,0.1709553129309683,0.16155991478507825,0.18598841778201206,0.2425550579590147,0.3191747870017699,0.380773057485932,0.4161696366973985,0.4414648139467575,0.46567627765091696,0.48882031281127764,0.4906553980874754,0.45159921318732543,0.34836408801654595,0.1645121251429807,-0.11535188306163154,-0.26217067958641155,-0.32035809636912915,-0.3739650017932195,-0.4369526732575514,-0.5098059192609354,-0.5773281970940434,-0.6086400438952042,-0.5819069034599751,-0.514251560833417,-0.4444897179147402,-0.3956803493302711,-0.3694457820584037,-0.3624218212243933,-0.3622215796523959,-0.35237560798592676,-0.35428701554022946,-0.39380571406669956,-0.46364524266150103,-0.5328802287378228,-0.5823200352673628,-0.6082752839641508,-0.6136033833164521,-0.6020606924694186,-0.5793325172890507,-0.5510878054397397,-0.5187736233498135,-0.4797191466509833,-0.43006276358653156,-0.3692965247662664,-0.2897254044386967,-0.18880016420569837,-0.08288287829044697,-0.0012517103556875507,0.05998844627830437,0.10602708836275102,0.156244408399324,0.2303645450227196,0.35047646981909075
