0.5158287091275037,0.4367246605151312,0.3110281099124464,0.19526629773841425,0.12024165147487746,0.08019989184788379,0.07648936573927195,0.173629560779984,0.0587214440602372,0.033299967450688105,0.02354952145985488,0.023279275375509386,0.038382174208675776,0.07212570067453086,0.12581886077654358,0.2015399925451393,0.290072644666904,0.3576529228496803,0.3653962264065979,0.3326629444684539,0.2889714108647301,0.2371047131791439,0.1680412123752997,0.06473440511780013,-0.07216202764947774,-0.2172987223977109,-0.33250505514691997,-0.4066627234894942,-0.4442764348117195,-0.45472762043534287,-0.44350036739767446,-0.4111143264368166,-0.3558089320998139,-0.2847714946341171,-0.2128131937325454,-0.14840817284477348,-0.0877452100555629,-0.011902497605857576,0.09120134244786354,0.2045367536479623,0.2969908409058359,0.35397918755005237,0.3756741643636983,0.3755771904466305,0.3740588431532558,0.39858325407605116,0.44442012451070706,0.5059016815856981,0.5949475324902969,0.7001233786464925,0.7813960197363763,0.8228313781166882,0.8392674389684713,0.8534753312817773,0.8722140243010335,0.8954460245533955,0.9162403934015814,0.9296352550473407,0.9316404042879215,0.9158305082551281,0.8733437597279774,0.780006882760268,0.5646395109651823,0.12465462537040836,-0.3740488766693993,-0.6609146778816555,-0.7860761236288855,-0.8399933047471171,-0.8644191983678576,-0.8738351886132829,-0.8730249870301741,-0.8608908747610391,-0.8375099041481733,-0.8064526026160127,-0.763314550461431,-0.6918965131295763,-0.5824994393804004,-0.45560473170320404,-0.36446523324338564,-0.35480418800475444,-0.42816213557854715,-0.5614941962055902,-0.7100616082780019,-0.8244650555057067,-0.8940328307336217,-0.9324343277450735,-0.9539933641219729,-0.9654732877752324,-0.9709288078973208,-0.9659853617374716,-0.9229271046426888,-0.7334334378915655,-0.2913647323481873,0.05033664697496965,0.18446007665794698,0.23286267438362,0.2571849324216897,0.27956751588486317,0.32481279844676786,0.4652753532961796,0.8574122613057984,0.5751519066849076,0.3804403200408397,0.3332627595581676,0.33799906833917076,0.37108310368188574,0.42861537636437436,0.514238694522564,0.6170841499220712,0.6783627965313158,0.6533289742665089,0.583740003764071,0.5249925720089749,0.5147771368823016,0.5681469260525734,0.6279457185482927,0.604274086190283,0.5615171177460533,0.5396342395321642,0.5343430499940037,0.5368059561629421,0.5355002135253686,0.5113826047513763,0.42404459893092944,0.17300373193871005,-0.3381747352974066,-0.7574291201279271,-0.9092918386861806,-0.9578873510222994,-0.9767603936762946,-0.9860917115786785,-0.9909394752290632,-0.991437729394971,-0.986079029512148,-0.9734799461028371,-0.9503196771181385,-0.9051164801323143,-0.8232992542444246,-0.7058563803570173,-0.564679612624671,-0.4207409457095966,-0.30745715641979476,-0.24083809145247326,-0.21321035390075904,-0.20292891682443365,-0.18353013050462588,-0.1304270764131728,-0.05032448160111231,0.0228011380959754,0.07289025860127504,0.10759594315060436,0.14264821231606972,0.1756463583621636,0.20389549932938889,0.23448907705139402,0.2740011870186486,0.32697492266530326,0.3936075702609999,0.46163218340165707,0.5092512122537898,0.5286715065785388,0.5235581820814619,0.5101693715323166,0.5000733955139955,0.49193679801539647,0.48836565002023347,0.4931309823801127,0.4961410186753215,0.47829293577451715,0.44122759745615536,0.40118773395491636,0.36299780146296756,0.3279335449184937,0.31226006739036194,0.3381210104215052,0.40274014959927473,0.48000989606022776,0.5532965791287677,0.6154713662284151,0.6577454367067963,0.6731357928593814,0.6762710498546912,0.6803376091967335,0.6830998918559099,0.6836894914863083,0.6783185561126718,0.66060662245324,0.6223217733840167,0.5587491892687398,0.4710877005082137,0.37024888413797113,0.27320791720605914,0.1949146609838804,0.13939711792938084,0.10743273853651555,0.10010544607051358,0.11834273249847248,0.14352706385046443,0.15842859081172536,0.15058453478390849,0.10659710825476675,0.03304110305261461,-0.046305405542913965,-0.13139486344347379,-0.2273247558035363,-0.3529124749972181,-0.520230534102365,-0.6865263819098943,-0.7946178243127099,-0.8410863609420168,-0.8545300755062168,-0.8613527353406049,-0.8802717035653562,-0.9064482825163681,-0.9226126244373555,-0.9191179321185697,-0.8993628288797889,-0.8645757431929385,-0.8031346212677333,-0.7032627108118803,-0.5706184224218454,-0.4306461447165163,-0.30690701993468117,-0.19424701300044012,-0.06975337665114326,0.06474005538144784,0.1790819461588459,0.2535571238166103,0.28610057644184644,0.2739098561298642,0.2205326523046421,0.1363039546003654,0.038441340124032476,-0.03456191918823948,-0.07319007279663373,-0.08000008076182731,-0.0583507378825901,-0.004935572166368145,0.07473377974314215,0.17633869213144682,0.2876038482592123,0.3986693218834674,0.4831439993764539,0.528960739353663,0.5373950962725436,0.4931515077726884,0.3574263040583182,0.07605008531769834,-0.26037380367466045,-0.43950814208424804,-0.4374489664258071,-0.27707060240707243,0.08608129473531427,0.4755534970289669,0.6779682563840097,0.7599295117196403,0.7853224598435732,0.7827252228967209,0.7657191061024441,0.7393277021630321,0.711725200075036,0.6875159473646912,0.6652896788750906,0.6498260017885449,0.6442019900722239,0.6456147528530951,0.6453763550078677,0.6394763205574369,0.6210476619219296,0.5870757657493427,0.5376480630737731,0.4774700972348319,0.4182903963968666,0.37032612478509347,0.34112014089076664,0.3246444368779106,0.3091150908074311,0.28472435801828144,0.253492226241811,0.2147216786085681,0.17162096687527248,0.1262008127072121,0.0806656593390856,0.035727592655143,-0.004689235078621556,-0.03494956516698744,-0.07252520171572281,-0.14048290478208283,-0.24369318202193915,-0.3667462754426258,-0.45233584993144055,-0.46011047358346335,-0.42155421275050037,-0.388646875584582,-0.38308568858977915,-0.40076631942585006,-0.4293950943227433,-0.46389363720788124,-0.5016657944594524,-0.5461228765356793,-0.5919270269828151,-0.6227094617942533,-0.6205668787578253,-0.577564146962841,-0.5028371494814228,-0.4288425806623715,-0.37262307794836025,-0.3209772248774902,-0.26350760180102495,-0.20000509763233076,-0.1299875120600371,-0.05185412908357353,0.028927843670931482,0.10327428923370627,0.14991909695108763,0.15190402674735823,0.11609973023800456,0.0651157188569672,0.012463529284243673,-0.027524776018735705,-0.04632615866557249,-0.05186890117457593,-0.05645267001390554,-0.07492711963197259,-0.12848323231152717,-0.3180253347867557,-0.15087195853385538,-0.030684614527273925,0.023360484839244893,0.06714925485473823,0.11362152075299826,0.16595000279504282,0.20786887699890377,-0.01903125345333633,-0.44896625894653797,-0.5543197306192302,-0.6032414943964802,-0.5910017976245822,-0.46276526588128963,-0.1158609602565264,0.29754951279034814,0.4758949839689122,0.43744244887390255,0.29319545614738785,0.16506619746417675,0.1046605084664272,0.11537431925967337,0.2030449374766036,0.33816696705265675,0.4352792511427115,0.4679529062020382,0.47005747502900813,0.46128148718098794,0.4492233637179481,0.4376050003061257,0.4258888975228028,0.3907537987230038,0.3000820610742065,0.12384158077778526,-0.13807512388054027,-0.41303373729122084,-0.6159627802557036,-0.7393809748566228,-0.8083220115312942,-0.8098676644103635,-0.7227352888041744,-0.5897444037175097,-0.47617067246931133,-0.3958192269471358,-0.34958413160789764,-0.3432335925932279,-0.41188561311192606,-0.22811238197215158,0.10642260992849358,0.22685261937221798,0.31409627751764385,0.39114648211613845,0.46157602250383767,0.5339999979450499,0.6212260332044041,0.7151047345795687,0.7636998441285271,0.7201383415882704,0.624650825357335,0.5487981692268732,0.5091593515811552,0.4911584776184156,0.4805478747306547,0.4811840995893057,0.5055914452054799,0.561776295618118,0.6001796537914384,0.38966211979585375,0.07756823932711034,-0.12196159688438958,-0.2856258775448816,-0.46746260140902557,-0.6606140729369194,-0.8098728047718586,-0.8933355217434733,-0.933517639425098,-0.9537289944324455,-0.9653461916840052,-0.9724031594766865,-0.9760555234152858,-0.9750523194842164,-0.9662032231565356,-0.9388277717342496,-0.8480809253760859,-0.3690412658819839,0.5124017315841111,0.6712729056949184,0.6449930561748584,0.5944647603303228,0.5559294971193262,0.5434770638971084,0.5534235325488414,0.5721121844770557,0.5816296332427922,0.5780201478813977,0.5618654070472047,0.5401584229001797,0.5248140721789145,0.5238066626514942,0.5384080983568691,0.5751661074778783,0.6472114155232972,0.7368071222942735,0.7913763687894316,0.7892926766152774,0.7419242389340438,0.6747539649767805,0.6165536712903317,0.582144411291553,0.567589704922083,0.5629598921727512,0.5636718311761613,0.5692316830489985,0.5840837635019627,0.6075018576421873,0.6387557446153579,0.6748605208183263,0.7117572852256413,0.7416863084541296,0.7607938152262859,0.768974202633947,0.7753687472542442,0.7880343237446708,0.7967969175257646,0.7808264470982764,0.7216292234302025,0.6412562482800107,0.6062384288375419,0.6448194329015737,0.704847993353558,0.749888854852366,0.7661883817570386,0.7506090189992345,0.6798285429394509,0.5110651617813766,0.20915328831144459,-0.11106426598677914,-0.3177622437261169,-0.423849276720968,-0.46918027766763043,-0.4822238901814072,-0.4824405239935698,-0.47678467357986826,-0.47846365652042555,-0.5074497211170192,-0.5730473604093629,-0.5271195084877528,-0.355387685011298,-0.26419589853401126,-0.24847688206210305,-0.27133102786993457,-0.2425603459659987,-0.1753865696504495,-0.14567949185327578,-0.15749503556698097,-0.24145322968019836,-0.22414592339156494,-0.04361380767556402,0.006677893695195402,0.03240727275693214,0.05213887894292662,0.08160309193321062,0.16030363859322455,0.36732823498326034,0.7158084851222942,0.927484883179634,0.9517673841350562,0.9050569255959904,0.8214815861819492,0.7034986187042372,0.5488865674516624,0.3404454441780618,0.06052636725498058,-0.23981115112819823,-0.46535182177419926,-0.6162172976043752,-0.7214736683388754,-0.7881934942246521,-0.8203868703288109,-0.8301387786214388,-0.827531906834573,-0.8185699822678477,-0.8041421515680799,-0.7823940738698152,-0.7537333623261722,-0.7162469733008097,-0.6607830549050083,-0.573232880921319,-0.4365337909857761,-0.24706678633849605,-0.02925754762498199,0.17415502596861263,0.3392154453687875,0.4532284809899355,0.5223000630142807,0.561616801913663,0.6034090976220965,0.6431460922035935,0.6297594302709199,0.5877769953595818,0.5692062774538614,0.5822271362757023,0.6181200950971085,0.6500236494320446,0.6528779599447889,0.6329192825548106,0.6086983237256269,0.5886193683373618,0.5783371318959108,0.5648667302135763,0.5484577009787617,0.5275052424846863,0.5070834546845653,0.4851756721475593,0.43866383220487987,0.3402579737388927,0.19868645852821826,0.0715995689768709,0.010164521728329861,0.01576490636032424,0.06177354496360416,0.11383060125854869,0.15287915700498605,0.17276742258437922,0.1695660949864161,0.1496162727512329,0.11620658815786265,0.06131370593708406,-0.024126466895286,-0.13483765260802766,-0.2615145591378411,-0.38662846074133206,-0.4842570156749403,-0.538900900704435,-0.5500664094224582,-0.5217759069712231,-0.4485830891339785,-0.3302999199060364,-0.1874190306468998,-0.05332955433613169,0.0537554935712198,0.1519359806865877,0.24908716475553916,0.3243828726243853,0.37868073898160404,0.42105874597749016,0.4548196671837426,0.48503978091328304,0.50667468101013,0.5018433948651128,0.46402282763144415,0.4133100430665234,0.38266400103865306,0.3901155392141507,0.4249049031670075,0.46011364853417974,0.4869694047104011,0.49892689540758706,0.5047077410934594,0.5214722777794484,0.557382444602806,0.6089088238331187,0.6695153425026068,0.7301185302582583,0.7806831381000692,0.8166782399863466,0.8392653332985412,0.8486386937021214,0.8418466504270138,0.81363043839956,0.7578591009802476,0.6588122425756148,0.45135157999827785,0.009024196665906738,-0.5282486217277745,-0.7964860072967873,-0.8891864004270575,-0.9213666994300255,-0.9294223342689908,-0.9206988971536282,-0.896705752109962,-0.8636044912652587,-0.8388770750445813,-0.8268157298235158,-0.816806726984279,-0.8006198781031553,-0.7682888118787394,-0.7191634964366758,-0.6729429878517014,-0.6589230288684715,-0.6839567380630988,-0.7329897389574359,-0.7738370998685126,-0.7935381336513334,-0.7837213052252986,-0.7253014381725743,-0.5941178657322717,-0.37122879047063445,-0.11990095222851826,0.03015583178504805,0.03029768014583096,-0.10329945124130871,-0.30581806144554774,-0.4909398112107264,-0.6109878064536486,-0.6647092359161676,-0.6568013666107141,-0.5731045847165597,-0.39126257145197046,-0.14122552947954034,0.08476796080248779,0.25211870809509357,0.39907417787914834,0.5458652920025796,0.6776094576255894,0.7733439979026263,0.8355522422258433,0.8713734854579552,0.8865919693836314,0.8783739789627792,0.8346087302826426,0.7128967007739567,0.424468824042627,-0.006339237674946127,-0.3396969794968356,-0.5233252690445493,-0.6288079314283731,-0.6939068126455685,-0.7301604108477743,-0.7408539571679041,-0.7391281681290895,-0.7267856916801908,-0.6973303612127877,-0.6403058568356945,-0.5464186412427863,-0.4100233257168966,-0.24860383805027322,-0.08889606719374886,0.05150070641631856,0.16009061195039842,0.23251351057209577,0.26783084495511844,0.26784060369805274,0.24925782326608292,0.229320759181867,0.21485790141168518,0.2071997963637032,0.21249733659257283,0.24484337093450076,0.3480013164268695,0.655534646121547,0.5622722256510564,0.31761439048835116,0.22989540485008728,0.19920874437558855,0.20026587056973194,0.22629582608063037,0.2762804361066611,0.34239443573520456,0.39388073464324064,0.41368222128641036,0.4181695329647625,0.4238482072604176,0.4387733968137968,0.47385821039944215,0.5331087519039238,0.6067904634675485,0.6757029072957347,0.7220891663557233,0.7313587849121681,0.6608602344553185,0.3443223718864469,-0.35362560656176295,-0.7415850203923645,-0.8659728032854094,-0.9119175480770372,-0.9302074440339911,-0.9305942078022544,-0.9117497879538408,-0.8690490884704339,-0.793896180345816,-0.6753941398274143,-0.5274288672760132,-0.4004216793009977,-0.3196961284507855,-0.26934992485276466,-0.15436928165032998,0.1215825033962331,0.21386924251323394,0.2613017694814621,0.3161310012556785,0.40005825342783985,0.5307313883307652,0.6962492937026736,0.8268753077623788,0.8859824976222981,0.9091825280913228,0.9226170265591486,0.9351376427324464,0.9459441443877118,0.9458867970859607,0.9238178440745849,0.8751156991276652,0.8005385672141391,0.6996726058432988,0.5658743143868217,0.4061592228891496,0.23748086020386686,0.08816774718771575,-0.05342852791165449,-0.2187820744990816,-0.4128385409471929,-0.5869541340771272,-0.7011303294970261,-0.7635950152666242,-0.7934353111759682,-0.8021773284404561,-0.7966471944428273,-0.7809557671279874,-0.7561850506075226,-0.7196662853495137,-0.6650589687090639,-0.5886359971277,-0.4899049492208458,-0.3831895220820106,-0.28143934415441535,-0.19111238586784204,-0.10580758195785554,-0.016341252228004404,0.062317151826633506,0.11098071895206064,0.1395654815854862,0.1761085235486089,0.2577156589594399,0.4153469754494622,0.5793325217067122,0.5856758721861994,0.5159804164113716,0.45003450756162605,0.3967438703440042,0.3447300243268265,0.27920262909098514,0.1869381753226917,0.08332819861104594,0.03755635920735628,0.09635742087665296,0.22853259443124435,0.36785139937676187,0.4301205719821824,0.3698725666451142,0.14824149907551298,-0.02500866855717407,-0.06303972094349072,-0.03945146318582641,0.04575167624647266,0.23674932162815382,0.514464490292958,0.5855010803858883,0.41236777484617754,0.2358699861954718,0.10997651517386126,0.020184216335863935,-0.04470936977847315,-0.08884884711414365,-0.11702188993788723,-0.13432874378250728,-0.15003459941547803,-0.15551600973666538,-0.1369573342371229,-0.0806443945183973,0.0012810168448251344,0.08769284527961194,0.1667881357020849,0.2524540652237885,0.38919434934434377,0.5753328108231304,0.7095933610253914,0.7509353848963137,0.7265196736530233,0.6407042002540646,0.5208658409040888,0.41623207041685595,0.3482608484991128,0.3132318301643739,0.30918783267009287,0.3729680175503422,0.73864853578654,0.39074619331325644,0.1885821384133814,0.1337682926822152,0.10618683453313217,0.07604559100776599,0.018784875072818508,-0.11506484991828443,-0.3970030368295427,-0.7234737445413262,-0.8488954548426288,-0.8452649967893205,-0.7882027994463324,-0.6869349705222856,-0.5371658983668883,-0.3341157438952356,-0.06825338713223272,0.26330377722869697,0.5653260342438196,0.7264208717176791,0.7925959747732532,0.8245948109992738,0.836052137502597,0.8188916518117657,0.7551133143307279,0.6230574703064075,0.4182661129905944,0.17553791603064414,-0.037532994218851014,-0.18290740219540289,-0.27135436384475414,-0.32403877621599525,-0.36485578303043337,-0.4123603176137711,-0.4666822623854574,-0.5088484920204627,-0.4972864083181352,-0.3930324684777347,-0.3023528539286246,-0.2868619527608635,-0.33584599694782014,-0.42130904516863077,-0.5302844151353638,-0.6403512177445192,-0.7077244575195447,-0.7087540136680289,-0.6778367837048144,-0.6536883636515454,-0.6536576446791967,-0.6773557442701856,-0.7118848988362909,-0.7411322940545938,-0.7594394565885172,-0.7682616714491116,-0.7701848343082395,-0.7644438318434154,-0.7563661766995309,-0.7515546298808938,-0.7539434834657424,-0.7690369717383265,-0.7965257090319388,-0.8308229283752796,-0.8607476820780262,-0.8667509714015138,-0.8182442538214332,-0.6957041140437336,-0.5284289353492942,-0.36191429144090453,-0.21671693269482883,-0.07620425760108618,0.07622243410199706,0.22186451367115187,0.3350851988256971,0.43841511806419087,0.5702867147332927,0.7174036596668398,0.8359814100401473,0.9067523705414111,0.9374814449816086,0.9439582269466449,0.9408463035682321,0.9399686645695438,0.9458324373537413,0.9546136601607821,0.9593107268747809,0.9572550023865238,0.9498373292864497,0.9370063816824235,0.9147475218176732,0.8739445837927595,0.7902177894431941,0.6076561566730467,0.2290729703310583,-0.2583865920970788,-0.5751160138075054,-0.7172603518097485,-0.7599235543190064,-0.7363234421138136,-0.6522673207487547,-0.48965106094167055,-0.25693453912784264,-0.04709112914116766,0.06401986343412043,0.07465178141287183,0.02733702242645042,-0.02066134116042998,-0.014623776474418303,0.07551815565757614,0.23596843651186225,0.43309427360991587,0.6126255844697841,0.7401896948113242,0.8156120574086382,0.8522895591414619,0.8642457355240973,0.8626909525263972,0.8536961999711049,0.8400189198495349,0.8232832261813435,0.8041788997353401,0.7727895562222036,0.7070088803522109,0.543589619171615,0.18508746805588686,-0.24199626516002298,-0.494531897708936,-0.6255950780158822,-0.7076255834459998,-0.761453700002424,-0.7923185653275797,-0.8044057458216753,-0.8014263002284315,-0.7800679967849202,-0.7384024339601365,-0.67642106820376,-0.5991145501402566,-0.519883149750826,-0.4647392149181015,-0.4571891844548589,-0.4952236495868237,-0.5459123502219063,-0.5681431801150564,-0.5519080962492902,-0.4860288104888357,-0.35186035497519774,-0.13246418617042782,0.1395216338773432,0.37916991013908746,0.5290884781969977,0.5934603724680019,0.6044325428607322,0.6109046802560755,0.658807850639104,0.7501611658743733,0.8373821608112423,0.8895213140173018,0.9094472944244292,0.9070913924627738,0.8848207952943011,0.8406421760357495,0.7580487977595213,0.559510255130772,0.0351977419565135,-0.5619877217658062,-0.7805604901277643,-0.8378928861818241,-0.8429003911261249,-0.8195331254863497,-0.7700771362812723,-0.6923575394855298,-0.5847093750299635,-0.47819575098513895,-0.416252160097735,-0.39958991356688855,-0.37532569432143575,-0.283306806682843,-0.08823852241943855,0.17907014537869706,0.4157649778858151,0.5690748607693429,0.6592161608280667,0.7103925136018179,0.7378380993258499,0.7513300623861725,0.7561828277380436,0.7528135351637413,0.7398995502805575,0.7162265374409783,0.6786711243803802,0.6244470839631991,0.5458708278311749,0.4279174784662033,0.23456772220845054,-0.12598545922459906,-0.616718616051054,-0.8890796462229665,-0.9615977166598425,-0.9621633289508258,-0.9172765972186949,-0.8048571284503899,-0.5922627014893631,-0.269019122864196,0.06684166640476907,0.203632028082748,0.18945383969567597,0.16867517488502967,0.180367089455741,0.21521764968471216,0.25373119192770577,0.2868420240761208,0.2844427873699084,0.18876540507778408,0.09240658238601372,0.043936309668383966,0.024570900480367384,0.016099399663392557,0.008704078321242703,-0.002423535130410817,-0.01950792684152867,-0.04304632105727814,-0.07376426432373058,-0.10426134139481151,-0.13486862477670833,-0.17340456217378708,-0.21681305356886682,-0.25766728881785783,-0.29191268410497684,-0.31531875840938967,-0.321988689827736,-0.3123345601293477,-0.29558364026125816,-0.2895765404973738,-0.30227147784505737,-0.33135823506049017,-0.37188384729855883,-0.4210929429634698,-0.4818240997111276,-0.5466995641892878,-0.5958838120833335,-0.6189337411678407,-0.6167572581228612,-0.5914233637803972,-0.5451054671032911,-0.4759117897642259,-0.3854475010293473,-0.2795087558378055,-0.17670053333670666,-0.08552029831382632,-0.0024340617876356407,0.05597821563902921,0.06559100999060548,0.022351064105936288,-0.04575312448508421,-0.09088706168822319,-0.07803527245571795,0.0053277833198775324,0.13876014220179392,0.27124377557233215,0.3690200160343175,0.42811839088992937,0.4674417641116641,0.4997909630594816,0.5389427878484729,0.5944853261394681,0.6578573064839816,0.7177986535347965,0.7679581537681336,0.8108966870282066,0.8454057842184944,0.8692280530551895,0.882442139318626,0.8845870479911845,0.8764947289171191,0.8584854116116847,0.8239813302896064,0.7352606157594479,0.46719481043547084,-0.11072818656372559,-0.5623645574213441,-0.7364904201400623,-0.7935708946610713,-0.7964901295382105,-0.7649574324312198,-0.7102530578631155,-0.6556488023679505,-0.6223581690973817,-0.611300964663368,-0.5962249961836834,-0.5568973722040104,-0.4735019571712685,-0.35162978658336747,-0.20089590365257487,-0.023211812056800545,0.17316108390419935,0.3287826774830643,0.38379237459279636,0.38415217312626,0.4063630346857102,0.5014005802470609,0.6201701404630164,0.4281746960270508,0.2627725220104364,0.19310942641556333,0.17227930356201465,0.18001547264393258,0.20785827416028368,0.2483133169708813,0.2826105589120293,0.30864336265626924,0.3490225647026241,0.42111636010361364,0.5118488137941019,0.594556491902985,0.6344527468070115,0.6166639343778414,0.5520317538112394,0.4668024779367338,0.37303491960834284,0.2661604296725538,0.1737022542528882,0.10800520853017881,0.04629089171259847,-0.03650803052905224,-0.14854088249315558,-0.2872130755813504,-0.442689644249268,-0.5983699585884784,-0.7320718699798427,-0.817922131155292,-0.8507525908606857,-0.8533539120389189,-0.8495991724079485,-0.851995591009927,-0.8572058395661447,-0.8601205502221065,-0.8577552880106116,-0.8500194679315526,-0.8374980430413791,-0.8177981656894547,-0.7849558041306877,-0.7321748796140354,-0.6575335618549353,-0.5629505993797793,-0.4487527231948804,-0.32523100710763786,-0.22364134532548813,-0.16585975275547366,-0.13790012109629918,-0.08803829144523355,0.024739992176506808,0.2215622499855849,0.4552878653365369,0.6430956194847073,0.7664879535843341,0.83860924129153,0.8774208284322673,0.896536204549209,0.9028599983684852,0.9003606355168952,0.8941625602997527,0.8887598531742531,0.886327646488126,0.8519090236291641,0.1218445672678461,-0.4365414465895395,-0.5189445767196903,-0.5238298970260071,-0.5136641242833703,-0.5069836179017425,-0.5210483782746039,-0.6082934765792958,-0.8406341105543942,-0.22415186433851278,0.007268293781194095,0.08459306866615572,0.1225957015947592,0.1465065352026985,0.16658315503668206,0.1917710098777124,0.23055938352844488,0.29641193848434405,0.40103772492396805,0.5225601151872395,0.6250436499918247,0.6892460076140728,0.7158306182417677,0.7193314900124618,0.7189090971473788,0.7286154913313577,0.7492481886057539,0.7653339406761471,0.7671604018606222,0.7516647660492829,0.7204905180417772,0.6749393831329188,0.6200818739788412,0.5653892633655793,0.5251083334355838,0.5098683870885178,0.5291397434607906,0.5810525319948224,0.6498307032142024,0.7068630458636003,0.7310518051591839,0.7039789161708097,0.6195476600190306,0.5013200071959988,0.39079787526248966,0.3057269330321916,0.23959820172769442,0.1839505395724824,0.14034242436310723,0.11713742503732032,0.13489973132781402,0.20348094926806787,0.20497123650990842,0.18055910174845183,0.1635380068897678,0.14550724922184716,0.11353739269567459,0.04960400843513132,-0.05802937441473962,-0.1948102234770768,-0.30968763709752833,-0.36326675473924896,-0.35683900696561244,-0.32064327975136625,-0.28597693032242977,-0.28318554171058996,-0.32137289071475394,-0.40286335593996614,-0.5116749686319,-0.6184173771424133,-0.6958308486057755,-0.7370127663164157,-0.7406408249173353,-0.7035304361807231,-0.6148023623373233,-0.48204595368642716,-0.35418544207432473,-0.27705894423290983,-0.24583520391375513,-0.2162921153747064,-0.14349535340997102,-0.05301426565045063,0.013082579478505052,0.038792486790743576,0.02780158187276791,-0.013004653401731651,-0.07610091794155537,-0.15055745026942602,-0.21803802208972123,-0.27639558966712285,-0.32756918107630384,-0.3742897577029575,-0.4086974994788378,-0.41591948438843773,-0.3925641303939035,-0.3569805057530777,-0.3321464680672697,-0.3336066509170673,-0.35827149763381055,-0.38856102390510505,-0.4161151184510731,-0.44325941181768835,-0.4740198320060809,-0.5052500954910341,-0.5489932183896665,-0.620861275603168,-0.7143103777983215,-0.8134175836668827,-0.8885925095215044,-0.9006420928559079,-0.8524849967937677,-0.7775020505709461,-0.70155114227166,-0.6374489569294632,-0.5912247144350503,-0.562846188478619,-0.5417261217742223,-0.5138326779885493,-0.4860745136062085,-0.45845203988471933,-0.41453168327348494,-0.31669198203105775,-0.1458025032020123,0.07767475597949133,0.27982229876956516,0.41434987026403436,0.47986275104731846,0.49062478139827553,0.4580656820526483,0.40710524304936213,0.3701137658378845,0.37239188909965243,0.41930782404303313,0.486836927827039,0.5445802549272548,0.5673408671568025,0.5481106177080085,0.48867661243519067,0.39658161558440974,0.2849818443531994,0.1653765085184426,0.04671021662336781,-0.07710799780788774,-0.20004436316499813,-0.2926192893138567,-0.3094853760576121,-0.23239494400051106,-0.07791537441633432,0.07918083225513395,0.17742622706826214,0.22515904702536985,0.26836198828620006,0.35236198185451334,0.4845510085693774,0.6062623647562987,0.6543896264683635,0.6567221779980664,0.6695398672021862,0.7002896028258981,0.7313860477305573,0.7551217370197504,0.7752524206191764,0.795760078508621,0.8164088518211265,0.8219467109623596,0.8031473338401159,0.7562028308891291,0.6753690702275283,0.5398456451796163,0.3244249480060335,0.051511068835835484,-0.1690692937964054,-0.2627602866606831,-0.24220870038740616,-0.14247388314745082,-0.011006507684034224,0.10761974588959562,0.18865873852819062,0.22997891769674048,0.2424002028447274,0.2447359495662009,0.23339919017278682,0.20688888563365473,0.17446228566837757,0.15354884518629242,0.16605113876166072,0.20367353083873918,0.2396687898128976,0.24882606756581066,0.20716670720043767,0.09002124483391621,-0.08638981864779315,-0.2433880323495289,-0.3280296351661923,-0.3472884446855465,-0.30135420809821495,-0.21745866955364962,-0.1374216078547307,-0.08785899323239056,-0.0713422313486826,-0.07528182573958928,-0.08878468685393918,-0.10307845874927976,-0.1198182348541782,-0.13014077527987294,-0.048394586646756006,-0.005780636058859038,-0.002007524724597006,-0.019087350274420455,-0.06112041191649903,-0.13079366329798173,-0.198849635592193,-0.22403687567626837,-0.21686706903674838,-0.22241524628833514,-0.26890619148198264,-0.34877493639496554,-0.4110511100806892,-0.41100850191921406,-0.3513289279229397,-0.2583868622380251,-0.15860814573169132,-0.0510303809315527,0.08518454880595354,0.2940113006315914,0.5662443472727156,0.7775746271512484,0.8852781472966815,0.9325937430638327,0.9546671897576005,0.9637603158427178,0.9625941685619536,0.9509620940540868,0.9312497590311708,0.9039634338137268,0.8445398370915941,0.5059902016957073,-0.6356935071544201,-0.8438223036072486,-0.8437026216252936,-0.7928550861428512,-0.6999700681913983,-0.5855960579335638,-0.5000580154529751,-0.4797804238952642,-0.5611578421137327,-0.6612205031624716,-0.30564564211154044,-0.12466424058273769,-0.05070423079889617,-0.019322435860448534,-0.021750162968326055,-0.07512583497041077,-0.18756508365945512,-0.3088453961064365,-0.39209251097799197,-0.4321134120509013,-0.4141351011286524,-0.3243224070586048,-0.15544556739780443,0.06254521471092152,0.27478258478502854,0.44297393690921555,0.5626573074986296,0.6395892856913697,0.6877733438782258,0.7200042078318244,0.7374396254605787,0.7326946115223765,0.6942234856078082,0.5768399155809228,0.2861483887179443,-0.20468375402939615,-0.5872116575427052,-0.7584991651275353,-0.8255431779809196,-0.8496277442751645,-0.8535158888428759,-0.8435515794536863,-0.8164594148349825,-0.7581716542729692,-0.6539677149638744,-0.5163522719232457,-0.38789274941929036,-0.2996987290118739,-0.2441872664781894,-0.2002238784690001,-0.15091658485100773,-0.10160779432497237,-0.07337600574436032,-0.07833600660548459,-0.12103027302745781,-0.19827793289750126,-0.30063002891500373,-0.40088362792309135,-0.4693849132346569,-0.48553550193854733,-0.4407175200440116,-0.33440183070978474,-0.1727942229716973,0.024706749935459696,0.22505997951528603,0.4009663002889558,0.5329025112934292,0.6271139624966261,0.691724733458349,0.7409006363874936,0.7794283739134781,0.8076497315769502,0.8230033963953428,0.8165716073125109,0.7821982161753376,0.7251403680496871,0.6670731681276703,0.6180098180399881,0.5522483741018249,0.4356697293623221,0.26528514281031756,0.08785804362537265,-0.028459665889754,-0.055544798631561684,-0.011330740861487908,0.07005646249722267,0.1574952149191882,0.23100684908221464,0.2839815810265303,0.31680162161990166,0.32924533541973444,0.3343271797886784,0.3448751674296151,0.3523892777976924,0.34376786579544183,0.3271660828372496,0.3185780031800503,0.31819818918591686,0.3216397941661215,0.32420643301195917,0.3196118381874116,0.3169813950758285,0.3352390308634886,0.3444584102747329,0.2882045367492615,0.20982219501157737,0.15239551179599725,0.10848157385869103,0.06650672663074608,0.01871279962686677,-0.05448222663143733,-0.3183055915065342,-0.2982953398380227,-0.2241405126802132,-0.2285511520763071,-0.2604728749622671,-0.30753867322004763,-0.3686088435766415,-0.46131560669722244,-0.6112054074016826,-0.8038966084616085,-0.8968237760465064,-0.715091628778196,-0.22186905122955383,0.3211217077464399,0.5988459193970662,0.679923035600097,0.659155494028327,0.5790360581425827,0.4662154765058238,0.34134388085474443,0.20752424925225676,0.06264340760024129,-0.11137771256094783,-0.34208785347628173,-0.6130531453875373,-0.762555928747357,-0.7524529289930615,-0.7196779085084772,-0.7195297552702142,-0.7482591655704928,-0.7811646951606293,-0.7998506744427458,-0.7957957454122437,-0.7648527581316199,-0.6980990606113593,-0.5730045890596109,-0.34301590201513127,0.011799639315973526,0.3714426815865352,0.6125550727245692,0.7488601216291716,0.8261050253986049,0.8698828598138222,0.8921415708715748,0.8998669897146656,0.9037228530393141,0.9201829573027358,0.949504592619731,0.9544176270385054,0.8994602242235402,0.828959927526208,0.7952745020969437,0.805359763959255,0.8399170885385594,0.864741799089592,0.8590806671436066,0.8360406415273661,0.8145065703165585,0.7913323779289763,0.7448175409310325,0.6541098642030574,0.5101503951468037,0.3329110050163846,0.16592549527073233,0.025073514392221267,-0.10075133190562181,-0.21773272839318236,-0.31819347465349695,-0.3968524439567001,-0.45279092956849865,-0.4855149740087897,-0.4962802250369489,-0.4941190773123599,-0.490329458107049,-0.4865310677107009,-0.4822453307649985,-0.47682854090459525,-0.46642946278815106,-0.43616870334057484,-0.35645329958946753,-0.20338050126023588,-0.011772024899667607,0.11639979414570314,0.14818215899665735,0.12682214038388484,0.10084023410658825,0.08751342256219106,0.09533530508747119,0.1272091579421782,0.17642005493272508,0.22350806641440657,0.26932397482625947,0.3219808276102368,0.38920179150776124,0.45942115309186765,0.5205560444514368,0.5722968097540907,0.5976224725444266,0.5900493552688221,0.5509530929203416,0.4899987097441046,0.41229201391782516,0.32734884409554793,0.25699416815442205,0.20950269100498353,0.18679478177074202,0.17294857897851804,0.15995118233416158,0.14363688684885279,0.12477191153301816,0.10790220887548779,0.09271320894052222,0.06756298996805594,0.019078966084337273,-0.04347080129046631,-0.10070434231921255,-0.13696469038189743,-0.141822168684519,-0.09762385785841177,0.002247961072648174,0.12451701998639168,0.21816692279204664,0.2580383683917085,0.23025578970028326,0.10994358932227803,-0.12293495999859076,-0.27604994231862034,-0.23188908788630452,-0.11724206672093168,-0.0016179250864631837,0.08704250004166578,0.13195603554909535,0.124213322386323,0.04355253499335641,-0.14017954393129964,-0.3949426075472632,-0.5860626820926548,-0.6716016236974788,-0.7018265475222617,-0.713707590831031,-0.7165745999480474,-0.7086542751658899,-0.7022880204264239,-0.7158748531157896,-0.7475139828411075,-0.7776563565985973,-0.7919588642944626,-0.7940883134868855,-0.7903717160910533,-0.7829213705620582,-0.7668334283495265,-0.7291576661397982,-0.647059822541739,-0.4872805529591917,-0.22982714102567636,0.059152648984204255,0.2812613167188131,0.41587628166533847,0.4800823956545116,0.4989820056056298,0.5042703167821764,0.5273444233243268,0.5983543254209769,0.7387996603110331,0.8498474394300123,0.7677183984150745,0.6780941003581276,0.7027229138599809,0.7906201208037337,0.878632718059758,0.9303497759032624,0.9383525525318879,0.9019759890612845,0.8092811476487832,0.62284709648464,0.3320230412268879,0.020641241472265124,-0.21354641886902376,-0.33482907187015254,-0.32651002376575566,-0.16408152889979424,0.12885973765190892,0.4102710665399398,0.5753371434023331,0.659111281863244,0.7053727891832328,0.7319031644245172,0.7442833062461941,0.7428048135064984,0.7281721555709334,0.6985870315473064,0.6418179750246861,0.5381221388438111,0.3472360954396808,0.005603897323246314,-0.41749429341452926,-0.7030618743472353,-0.8364317520478115,-0.8952965802531027,-0.922439017144695,-0.9340996447885506,-0.9371025017358291,-0.9339538207560542,-0.9241240704235768,-0.9066431373032257,-0.8650956560269267,-0.7514104925030055,-0.5364351616994564,-0.315984168379264,-0.17201087746200777,-0.08430513442124389,-0.035628610435604405,-0.032676794862878805,-0.04705486222330525,-0.023830262181835236,0.10625458332879398,0.3546565711601347,0.5791042833723296,0.7006653071297902,0.7414366515184907,0.7127787610667171,0.5982664622050452,0.38820176263628636,0.12097611964552424,-0.11921375288603238,-0.2659905138118416,-0.3108638423085222,-0.2655703122856596,-0.14104838633465222,0.05095095429392582,0.27387825104719277,0.47700278096430565,0.6252100976864792,0.7113515533433499,0.7500953889820345,0.7596270528707909,0.7583732142339098,0.7615754941484609,0.7775467511546681,0.7984742340105055,0.8121298705438138,0.8124381138257767,0.8074511034443907,0.8045794723950145,0.8073224996802891,0.8047842458029028,0.7807186870371626,0.7125954522197352,0.5983920423688144,0.49305812001451677,0.4406344796005988,0.43653575966136565,0.4454514033569963,0.42254954348047463,0.34862713803035056,0.23233649809096651,0.08595376854608397,-0.012065316663128078,-0.05461865872848258,-0.07400619166547477,-0.08142490753355366,-0.08366967995720526,-0.08059159472634592,-0.07494141302612672,-0.06822286832998485,-0.06076107132319567,-0.04833481489770131,-0.009858639835861773,0.0657633454357317,0.07578987936490562,0.0751318884397051,0.07019400877519226,0.06093179391108943,0.047236562074065735,0.02950900375406753,0.008918216760295703,-0.011235975749292495,-0.01901131791363658,0.02077727388691797,0.14398596537573558,0.31899727553439056,0.4704905329809899,0.5503118498141808,0.5071014518990998,0.14958664885220602,-0.4310918679558285,-0.7577070687240239,-0.9002028513862607,-0.9602217472086135,-0.9725875366865212,-0.9534069202237869,-0.9083989777963775,-0.8263159371524796,-0.7262704627136011,-0.6452636029565485,-0.587861669722218,-0.5466432496428735,-0.5270323427604294,-0.5276411860296246,-0.525849388296506,-0.5065784140166978,-0.46691236802925135,-0.4145729710914566,-0.36039522866780577,-0.3138688618767257,-0.2718815053154074,-0.22790456216531363,-0.18120669525244082,-0.13472447954027053,-0.09270616695413503,-0.07356203620130645,-0.08817670681608544,-0.12202365030040932,-0.15355028307467772,-0.18439365260857454,-0.2301684620491189,-0.31107076875584244,-0.16541664850073784,-0.023669989170800796,0.039707469230929784,0.09533680089961005,0.17737796676051149,0.3196849662042465,0.5076012656620505,0.616964610063933,0.6350122665254411,0.6113301089641588,0.5675282582453502,0.5318433680098397,0.5194706447499707,0.5367205683822991,0.5764953434918627,0.6156961690103582,0.6288553919387067,0.609552492262093,0.5666055625686267,0.519726209978859,0.4807299378961305,0.44883751543168954,0.40964455930930077,0.35583632662094145,0.2967725258163957,0.24183532331273824,0.20215823064274238,0.17725160990230898,0.15962012103617107,0.13746315403756584,0.09936872371424488,0.039451929543323695,-0.0369852058765571,-0.115410715619592,-0.18428632507388146,-0.2374631231948773,-0.2676837698442588,-0.2686656512791656,-0.246810315034716,-0.22921300282729143,-0.23097426754970501,-0.25130068495194496,-0.28549977314924746,-0.32815869195819153,-0.3857406771533942,-0.4515478983145847,-0.4984913171064845,-0.48215080391750065,-0.3430029618542899,-0.08050391655598378,0.1829137574405708,0.3511429947912069,0.4418336798393234,0.5126902825184516,0.6159633854771038,0.8001394184415728,0.809559700979179,0.504292817797849,0.31885002247200117,0.22094080555996742,0.1727961963757369,0.18224782836342818,0.3605757431737453,0.17620274301795955,0.13214141660283163,0.1305941044615946,0.13722575378377252,0.13628276094094013,0.10242787620673958,-0.04997439392083957,-0.41037552149983547,-0.5805490100222163,-0.7010075235621016,-0.8245871116967279,-0.912432195355872,-0.9298825486169398,-0.8698695673912543,-0.743193836002278,-0.5625807215829658,-0.3611471345210462,-0.18942162751473876,-0.09323354635074875,-0.07276574751405201,-0.07421136064266459,-0.03334807026816017,0.06358047278433591,0.17171544100722705,0.25392818110633997,0.32530484567849766,0.3986031386800111,0.47802073317681154,0.5676796459231715,0.6505089269733014,0.6182758966284727,0.3466853370115232,0.019742051429005248,-0.19217107385173657,-0.291753027839568,-0.3329034419920401,-0.360361450482649,-0.39274130749661695,-0.43731024654861794,-0.5041805423404276,-0.579211396556782,-0.6237306156337423,-0.5918705962495795,-0.4141072113368961,-0.011158043311994228,0.4438734587504049,0.6989509548246752,0.8123520000865371,0.8649179272123513,0.8888277401879964,0.8978574880155932,0.8961377843429774,0.8867957875846881,0.8727939551110683,0.8587042387518867,0.8461942908977439,0.8326586558723106,0.8140844982694314,0.7867046584213707,0.745673072350377,0.6857314960398063,0.5919157642461329,0.44397377382802655,0.2054383935476285,-0.1186174001437334,-0.40608397255028483,-0.5497224124993434,-0.545812660769391,-0.3949201434353936,-0.19193209554615218,-0.06584352577095672,-0.034834839088938106,-0.039573451749214936,-0.049699887362998504,-0.050861518624548324,-0.045127687139123754,-0.02776276077345136,-0.0014436186750222775,0.025019537244519694,0.04591237226846057,0.03719108263996465,-0.020514812501726775,-0.1279396756362668,-0.24888399238383882,-0.34675473104437854,-0.4027599513355568,-0.3997941067021679,-0.32030589382475955,-0.15156210366157918,0.08519062958054646,0.32329241994539565,0.5072348019953499,0.6259530310161288,0.6858923955449211,0.6981546135026545,0.6651628668083973,0.571988584252781,0.3622092257654561,-0.05030808420647921,-0.5432597251067882,-0.8170990043692379,-0.9181582940528029,-0.9541087180890799,-0.9667420449474551,-0.9704644177307342,-0.9695562307851906,-0.9636141369997409,-0.9518877248628289,-0.9327933419604685,-0.9024946195644779,-0.8586357125396636,-0.8154491343178224,-0.7765820517732603,-0.7188355652582283,-0.6064947562935957,-0.40553092841452343,-0.13268851038614074,0.15139123732839474,0.37702419689319144,0.5362142228420801,0.6400058943924435,0.6967983725670354,0.7233001399644199,0.7330926864395841,0.7255008171625664,0.6934423175018866,0.6383532612711095,0.5871981235531847,0.5857717776441871,0.641098435873431,0.7158284146823034,0.7761893466504997,0.8167516848978748,0.8439776151458908,0.8622362730157015,0.8731862432938255,0.8745701242289868,0.859320305904298,0.8101363795494946,0.6603878275460946,0.14622622794903872,-0.6218301962244388,-0.8759784843259748,-0.9392818403319189,-0.9615740281739166,-0.9723548244451353,-0.9775866830077696,-0.9797055876705487,-0.9775631415919369,-0.9651902122585193,-0.9227975932247177,-0.8132841184620284,-0.6749510288511367,-0.6619157021166069,-0.7386471865002011,-0.8115664043806142,-0.8566561709268109,-0.8811605129187197,-0.8898329921414165,-0.884274132108031,-0.8629426885738984,-0.8198012302232374,-0.7401740159367444,-0.6006654849598053,-0.38149272320493466,-0.12141420850177236,0.059928542246906275,0.07801594222481568,-0.03731205342050858,-0.17854222518697424,-0.2486484266067136,-0.2511917260972514,-0.24511156842156168,-0.2769758605706754,-0.3441580297185193,-0.41903033231944103,-0.4821047939541466,-0.5107397006460226,-0.4828734568087261,-0.3762297794385795,-0.16753094070019503,0.12922068395193154,0.42229085409870304,0.625834850882005,0.7350539522886339,0.783126562728198,0.796437872225185,0.7875372313673487,0.7605590646024291,0.730065446229353,0.7344434062324413,0.815747793909293,0.9218487154108281,0.9084076937446517,0.8702245021285838,0.8662682598364861,0.8704216806860435,0.8693950201289454,0.8620436967405427,0.8559019264939988,0.856127823493339,0.8531370791425876,0.8379189520071618,0.8135026787183606,0.7906200018685324,0.774207777578362,0.7601767096909516,0.7403601402344148,0.7118186813312412,0.680844555111894,0.6493064862630088,0.6161864056927122,0.5842819858419123,0.558930525033966,0.54555276133913,0.543697893459507,0.5292534099897998,0.4238172383197456,0.2312866550294979,0.09233955665618768,0.014715540171752015,-0.04324702663258363,-0.12987155139551906,-0.43005702709714294,-0.48384749762388957,-0.23221059321226312,-0.15085760472245877,-0.10881418659352246,-0.08469802555834088,-0.07764809565091492,-0.0969095877647442,-0.17835143470108256,-0.41343310313058,-0.6607695407231269,-0.5541608298924863,-0.48241981650270116,-0.4902363855964837,-0.5738079455995775,-0.6976972734683264,-0.5301160884827558,-0.2919021856127414,-0.173504693145891,-0.11873665988280334,-0.10489319845442123,-0.13443031706998232,-0.21533349718845507,-0.3271167152174594,-0.41093735627130523,-0.44341205331990124,-0.43900709046000613,-0.42428207976655274,-0.4146040533402826,-0.4105207840063938,-0.39613332239489185,-0.36732645286124727,-0.3343857397629008,-0.30631310077835017,-0.28588972002584573,-0.2735412209134361,-0.2621765873604147,-0.241001188161334,-0.20253195926806372,-0.15336263320301363,-0.10225747089599059,-0.05296788404059598,-0.00557322293725829,0.041176058854375364,0.09587755590391994,0.16133663128351436,0.2318208604887008,0.2925623774945777,0.3374108241015411,0.36396149893928736,0.37017963163764755,0.35515168718407336,0.3240929949624082,0.28189658875306484,0.23964149929582682,0.19915153026041338,0.1613176514455927,0.12416181812089992,0.08426494871739458,0.0412327716324277,-0.008567001636710404,-0.08727629038483627,-0.21106327685207668,-0.36043736268786486,-0.48989686595049886,-0.5801713744867896,-0.6308797861339764,-0.6446935520006476,-0.6239961050363522,-0.575155716292,-0.5065293152816944,-0.42158660783703883,-0.32669532081551694,-0.23340084397829014,-0.15611141471141626,-0.11153992211108565,-0.10942945130251473,-0.14381854733654975,-0.1859546367518208,-0.206263529045639,-0.17707590202971427,-0.06195654066948045,0.130902005436836,0.343578052589203,0.542457743252631,0.6942587534156408,0.773847770432614,0.7982537905347411,0.7975866076072471,0.7872245596045202,0.7625822685398902,0.7108581156013634,0.6281790691720199,0.5305026704133755,0.4251262432563215,0.3092921625427167,0.17487843924641672,0.010614687768583807,-0.17325036988899678,-0.3467045078177487,-0.4908510571222921,-0.600669046641874,-0.6748145368121302,-0.7074264809558066,-0.7056928250844604,-0.6737046600232778,-0.6110385395734814,-0.5204247059917364,-0.41403710372194436,-0.3104527491386008,-0.21678501374724757,-0.12768788154352323,-0.06105653391328596,-0.025317821364411755,-0.005380110332281435,0.007839453752423876,0.027380349783566377,0.08992390422034328,0.3702136289443669,0.5156512793199869,0.3837754929611707,0.35154437385338083,0.3461906146408128,0.356128852612796,0.39198496438932046,0.46752249389616357,0.5761095709156099,0.6904814840288648,0.783833715123811,0.8472001360562543,0.8830381997331442,0.8911224871266332,0.8734677219507959,0.8426241654097845,0.8154455150835378,0.7951119617065644,0.7779856028276342,0.7609252082563331,0.729256599676076,0.6682220151095377,0.5779970119398029,0.4671887950287557,0.34540981456584485,0.19966401279296433,0.015813364703060093,-0.2006694871926179,-0.4042865385228366,-0.5477992868109333,-0.6239314311068804,-0.6458899685580576,-0.6360528947377981,-0.6102228713499345,-0.5815277440485968,-0.5586609911913035,-0.5552625006260989,-0.579749409959173,-0.6266936888340982,-0.6718705818764604,-0.698341260708685,-0.7101695695509083,-0.716824604177983,-0.7223791141932515,-0.7171129578408876,-0.6751824003017479,-0.5758476319228731,-0.43221247612101976,-0.3107956764032425,-0.2502078355477692,-0.22748653264818894,-0.21707845533643857,-0.21110222792447977,-0.1895094885747717,-0.1316121152430795,-0.0540177302900886,0.01671733812537252,0.07488718994737142,0.10704689860868448,0.12186427521468247,0.1252179212200318,0.10857751321534691,0.056376684228726395,-0.04357877201390796,-0.1890187608082093,-0.3395810350168636,-0.43872467507755725,-0.4826795552202649,-0.5004921067735346,-0.5206738786930785,-0.5518394281142256,-0.5856361946511321,-0.6061727859360366,-0.5981050468673229,-0.5488107889080223,-0.43689874755719516,-0.22610140146987864,0.10074539353036899,0.4263871070964053,0.6384793896203096,0.7483949305378967,0.8079116091296883,0.8508803736320874,0.8856442039842032,0.9087201926578834,0.9191113171107609,0.922104073549199,0.9231137407985917,0.9207630876320814,0.9067893788305151,0.8718064076278152,0.8071550444780392,0.7110533213017248,0.5993748972915928,0.49628639883985703,0.4077779066652703,0.3158232344087281,0.18341116324282686,-0.02825638604924157,-0.28732407368032786,-0.48640402583902326,-0.5790171277068111,-0.5962037852394042,-0.5730247323730125,-0.5461627109987741,-0.5557110349938008,-0.6186264232894281,-0.7039714075879694,-0.7725955967787461,-0.8116452049398762,-0.8232524700019637,-0.8091325056927149,-0.7626845870372019,-0.6616157005643063,-0.4648413025431016,-0.1518460654914695,0.17885889462418175,0.417759748192425,0.5763739159944816,0.6882471541270592,0.7309374763138775,0.6277805629589006,0.4533670574268504,0.3451593285793347,0.3133315263367543,0.3227587912461001,0.3529581493949674,0.3929274426326923,0.43086519104439347,0.4592532295704354,0.47167989140358013,0.46203322019169407,0.4299591836102618,0.39709263393918515,0.3771045482447509,0.3703048467908295,0.37718990116885204,0.39751890843402665,0.427348831373461,0.45980279426540677,0.48120601763021226,0.4781458573750015,0.4312211499922121,0.3226594027044328,0.15971530867218242,-0.0141324303496905,-0.15457385685612057,-0.23248740141493973,-0.23628585652517023,-0.1934382960418796,-0.1535055367210057,-0.1489181238558128,-0.1848128025807738,-0.24235472601700156,-0.3027913108927213,-0.3702460945528268,-0.4587193016405023,-0.5696397710407434,-0.686599180484697,-0.788040108143563,-0.8572991951307538,-0.8882446980760459,-0.8884266282436784,-0.8663159583444596,-0.8259269614054509,-0.775322958692853,-0.7246814759526605,-0.6781355915786599,-0.6246324238458509,-0.5444267939608375,-0.40546909948313414,-0.19169944522975937,0.03876998750759721,0.20634204560471048,0.2986095572142854,0.35477014162650694,0.4150009891870396,0.48549253849381857,0.5496363187354041,0.5952259805950598,0.6213744452002304,0.6323777195583581,0.6305196054368475,0.6257622420101073,0.619789119193319,0.6125456714025056,0.606907297765447,0.6033207424878951,0.5987714846872513,0.5947305828308813,0.5957930865274104,0.601737674381636,0.6076235565496235,0.604985106657187,0.5794440174406489,0.5120654191338173,0.3922542139188282,0.261552810967739,0.18468677003987058,0.17860291996551175,0.22311150403154875,0.3001002060594774,0.3854210769623956,0.4717707622436431,0.548497173439064,0.5976630819927912,0.6078970750247575,0.5909137801179416,0.5663987352492801,0.5496166285693261,0.5390676342902385,0.4820717787977068,0.3108859486332888,0.013867451912709316,-0.40889597050428994,-0.6175489396653808,-0.6004289122135733,-0.5553987825691993,-0.5151077421076576,-0.4501448821283461,-0.35279447919210005,-0.2586523519796834,-0.1899177749156912,-0.1488130797085459,-0.1317855278148484,-0.12246886096463964,-0.02090651646861089,0.059408071541609125,0.1017986088692405,0.1399248194540569,0.182167112978211,0.23564538839386456,0.310756136213319,0.41718415628410505,0.5455502086672291,0.6431881277767475,0.6745489232017987,0.6709508869135545,0.659465277438888,0.6368426923599484,0.5905540699708973,0.524499645137284,0.44699363986552565,0.36924022288089176,0.29102257869163234,0.2339163056902917,0.2151471089672891,0.22547695454315278,0.24421600292626777,0.25619183914775573,0.248638893346441,0.2243317699532728,0.18924396524069276,0.1498049716637087,0.11200765423103327,0.08224289583435256,0.057795659337283055,0.036483110725434996,0.00990435072572523,-0.04896916948121261,-0.1639472300974249,-0.2783716876659545,-0.3589774554995901,-0.4690536923795498,-0.6673775532171123,-0.7251465891385244,-0.5382169504557613,-0.4309443294388666,-0.3995641625081967,-0.4190448487633011,-0.4863014312961914,-0.596520575073331,-0.7186912447684836,-0.8041108592369407,-0.8408624526559416,-0.8478125758171929,-0.838945032393574,-0.812539066389985,-0.7420040165287031,-0.5879194867739181,-0.3407801991771889,0.01886527805691342,0.49687666383790363,0.6962667563383382,0.6833152954587536,0.6563367595547132,0.6589317600583732,0.6953100901600867,0.754113998457931,0.8055278984784137,0.850354984847874,0.8949032435290059,0.9311435306326398,0.9523837442312882,0.9606493673052824,0.9588934977479234,0.9456488459380825,0.9107099148737704,0.8170719955268164,0.5350250285649242,-0.08060103718028765,-0.5086069682600659,-0.6190039528507815,-0.6095713530181198,-0.5640177631756812,-0.5225282946225742,-0.5019944499254364,-0.5097251985461819,-0.5428107217605159,-0.5729539316174314,-0.4949672914614228,-0.3271985399630975,-0.20510413027138374,-0.13482066112454166,-0.09628102163446392,-0.07843267066034118,-0.07340077524888518,-0.07586698564218676,-0.06351332022487345,-0.00877303437195625,0.08829956481347973,0.20173406488656428,0.29569249724735325,0.3111245864451788,0.15364274933391486,-0.24446394132934104,-0.5665394632965718,-0.6758401478626627,-0.6695723895436713,-0.5419388993634875,-0.20015395154273077,0.31072396209325553,0.6435066950058423,0.7823266154231965,0.8414739446443454,0.8709359413902712,0.8822124915703192,0.8755821444359843,0.8471396569483276,0.7843871875775489,0.6587928204628479,0.4254405777391483,0.07788116530834419,-0.255637208643769,-0.4538262982807176,-0.5332801399571422,-0.5380566417418465,-0.5033020998427898,-0.4514220301062748,-0.3896513682748905,-0.3130140820839888,-0.21367952964897174,-0.08697372429577696,0.05205779710766073,0.1766915757315348,0.27874825456604496,0.3615708222043455,0.42607202081677087,0.47775811768367155,0.5153258628387254,0.5383842842872432,0.5581838730813998,0.5856222617687313,0.6214955124996047,0.6633734639783624,0.7317887458028621,0.8503687865464765,0.8654501058271784,0.6089798251787821,0.40736937166622456,0.2969405603282905,0.23784068943906106,0.22174772822071365,0.33180950925850955,0.31873296826278497,0.10254455809856138,0.0738611554826405,0.06950795184803092,0.07083241490849448,0.0732597573669662,0.07172640741592182,0.059201843593789216,0.022785358416615095,-0.04115700858077911,-0.11532090903009592,-0.17447104309547437,-0.2033959775054613,-0.20596174390187177,-0.19775134726178548,-0.19055345026148868,-0.18927940555266792,-0.18961529898001786,-0.1833390622149773,-0.17331915328607503,-0.17548462626496988,-0.1975418641684384,-0.24253815068503864,-0.3198693604856267,-0.42976070193898186,-0.45880807412112706,-0.2843474472758855,-0.1218369853309434,-0.004816999190331569,0.10346986732885244,0.2214761533516834,0.3751630396013444,0.5373363719440915,0.5304498170499204,0.4411353913394405,0.3787390546719203,0.3493310974065454,0.33814855811485867,0.3318125825622769,0.33666871481375976,0.35461405599104506,0.37175861968590146,0.3726784310036666,0.36295595382831636,0.35243713392104153,0.33838472826818194,0.31933419254671563,0.29370409208199694,0.264104316029223,0.23417005318175219,0.20214314818497905,0.15921922355804377,0.097925057406695,0.02235121494893756,-0.053928280840879424,-0.11320029510348308,-0.13401709496117994,-0.10963989110703626,-0.056321878624493824,-0.007327302918199823,0.017827240131600707,0.021541473952127747,0.014304929553282861,0.002081774831463351,-0.012483142289172409,-0.008131983917592909,0.0181362472845353,0.014046504219664155,-0.08680282827682108,-0.2829677480103576,-0.4815075961411371,-0.6087427341285739,-0.6694486607272093,-0.6835712332810989,-0.6694873291968397,-0.6647464500985794,-0.6826675246247446,-0.7076396662723622,-0.6885049500549834,-0.5800022528026061,-0.43526110166947385,-0.32419654261357317,-0.27340908047238405,-0.2776213453361039,-0.31106386924925533,-0.3367044982191148,-0.33063141218609315,-0.30071259402987544,-0.25277320702952416,-0.19364623084648672,-0.12286553299559276,-0.04342211448109505,0.03398424661612864,0.09272256918176945,0.13457309955946606,0.15809640717950887,0.15953587133675537,0.14494528191660275,0.12815186806098305,0.13568788946634466,0.1954412858553276,0.308170979211955,0.44075199986386204,0.5493059044331494,0.6138552399335063,0.6287336125702939,0.5750510973627605,0.4046008881163198,0.10024506690326249,-0.20299990728602982,-0.39840923978884635,-0.49833053696741414,-0.540122390241262,-0.541379369771986,-0.5118840467518785,-0.47961457522579476,-0.48362672002300167,-0.5391487744319361,-0.6113184104359243,-0.6652404018826744,-0.6894216327355422,-0.6742577038482352,-0.6000273697504771,-0.4300609538102603,-0.17205230503269586,0.08519966250933338,0.27328162954618446,0.3915370687175434,0.47488020245373186,0.5386669661454415,0.5829235148472592,0.6020783432254645,0.5957757427023945,0.575310023690871,0.5555115652868737,0.5482561230899936,0.5495359316950666,0.5551731942120487,0.5644283669160709,0.562164234322886,0.5400870022205349,0.505469135182208,0.4646476411552308,0.4099945356962982,0.3530072418672035,0.31868960464204127,0.31336909483113956,0.3203476649944047,0.33698871357856347,0.36411062999456567,0.40295741730524426,0.45304726278512397,0.50467748490393,0.5474841113752094,0.5889654055280527,0.6381591284027649,0.7001263372338399,0.769397686864471,0.8135324813404057,0.8006063827601242,0.7583378648047583,0.7270325717946856,0.6891245356507693,0.601935125990291,0.42680703980586104,0.13806866151433045,-0.22931608821694505,-0.5527122246199069,-0.749545758746332,-0.8435907569619968,-0.8823390219152913,-0.8928490003324013,-0.885549036170038,-0.8632314482683986,-0.8223236650782878,-0.7512177239223524,-0.6276165085741149,-0.43094713771311216,-0.18271035131188706,0.04118087291157637,0.19141519927436465,0.2720033255030957,0.3121721516208093,0.341536354902364,0.3667577502530268,0.3700268863598096,0.3379970754028248,0.2623455104815431,0.13641276124698387,-0.008979578927185008,-0.11291896274176615,-0.1607431471086089,-0.1723840661144022,-0.1582827817394695,-0.12881992959092559,-0.05691107576523736,0.11800317299416413,0.35664392614794627,0.5151703674213394,0.5678201310726729,0.5690538251893663,0.555909414106326,0.5379160177911713,0.5143410474250278,0.48739347825476975,0.45570824963803236,0.41596806736163316,0.3790653705890768,0.3720184778768261,0.42498089435333564,0.5378978431377593,0.6465301798265788,0.7100749109001415,0.7387186492779501,0.7540554141332185,0.7775350134003388,0.8007590167648738,0.7886228384859841,0.7279099453685475,0.6296689165100762,0.4852477925127771,0.2520491539556538,-0.11164867102452057,-0.49506305061184697,-0.7287596005730695,-0.8405763114562362,-0.8945303046236938,-0.9202299232778742,-0.9294069851413336,-0.9267757783122951,-0.9171175983064125,-0.9126578241442012,-0.929766874590207,-0.9133680509434975,-0.7950252934049717,-0.6322247782103338,-0.44477232681116435,-0.2651027827870269,-0.14119724947338932,-0.08209419458891928,-0.09049866123297598,-0.20397614845851875,-0.12208162165534454,-0.11898921185454057,-0.14171308036286592,-0.17520207575116253,-0.21081199671058165,-0.2432642180198593,-0.2720494657939666,-0.2973944803282337,-0.31231797753083423,-0.30381834077085335,-0.2791547020332024,-0.2425362991115442,-0.18872308418890227,-0.1168223759531695,-0.033913255378551915,0.06114813634621352,0.16746783135253174,0.2781630703613756,0.38777480021618,0.5047673014943997,0.6392296881177761,0.7657451048062384,0.84705154956501,0.8834399588045333,0.8890969527718229,0.8697536915685572,0.8246386389082926,0.7635924009573238,0.7193923299439584,0.7402156946282085,0.8665672541519371,0.9940271819112808,0.7992298568252066,0.510504232317411,0.23337445622989897,-0.18897493758268016,-0.6977142525267862,-0.7712704731766618,-0.7244067874228758,-0.7004474017922191,-0.7211780804750012,-0.7953341299578144,-0.843088652424659,-0.767217829244052,-0.6739036915742218,-0.6361292435750946,-0.6571896779696592,-0.7210256366901703,-0.7970393646833727,-0.852293356701239,-0.8794019154599596,-0.8897573564493214,-0.8898356895117281,-0.8771298592372236,-0.8446003179751563,-0.7766346094819133,-0.6480719580577616,-0.4292968003403851,-0.12561745382947892,0.18768638685316674,0.43602718132626855,0.6001531019219486,0.6988043223629077,0.7591142486216416,0.799666663393472,0.8189623574765065,0.8120659634711068,0.78585077493318,0.7533910678978458,0.726076164282242,0.6914944390429091,0.6171096283717026,0.49073061719292266,0.36367310538081704,0.281994605147009,0.2359101650600371,0.1953910575516559,0.14993594183752218,0.09883254450284908,0.029850302445320716,-0.04280087134442982,-0.09408133097739764,-0.11684541964311826,-0.12360529860211923,-0.11568181923757187,-0.10470094933514956,-0.09382165055705345,-0.0827227484098075,-0.07770206906786474,-0.07432003187946218,-0.07548372907341167,-0.08287540165077743,-0.1008361634511084,-0.12286654173278816,-0.12598494771489033,-0.11142168360234245,-0.08252966195623776,-0.0413939737787633,0.008197091531762946,0.062234700029103245,0.11422293670318498,0.1596292380150042,0.2002870043615843,0.23767319289450356,0.2735570289950593,0.31374105070559205,0.3419763555472952,0.34051720405456015,0.3145156734422187,0.28469705324713235,0.2638160146022525,0.25313082132325515,0.2511156713403291,0.26314720120750495,0.28997368043988647,0.32336591621171484,0.3434825096237649,0.34266500975375846,0.3390640243032524,0.3574645551945112,0.3964057880409335,0.41106586695809766,0.40749328883127106,0.41260531351798985,0.42650609692221203,0.43360103019893753,0.42356542557175725,0.3953040736303193,0.3666642596268537,0.3464523978646035,0.3395924068112584,0.3348356751700012,0.32007119371778214,0.28955738829783045,0.2530764110951263,0.2147917490592833,0.17075968396433833,0.12319033636674252,0.0744639726396468,0.035380703929895944,0.012492026171521276,-0.002275240241995855,-0.0402092848522913,-0.11901982139170582,-0.217110010064605,-0.3006521835555096,-0.3450652303474975,-0.33247494533686134,-0.26636435171701056,-0.17399288129256316,-0.07765012921873714,0.010005181516554286,0.08266896094651321,0.13904167789194782,0.16576748621845666,0.16962611287697968,0.15892150989158785,0.12881463537175783,0.0808517840047134,0.03176927253526103,0.009804548230238196,0.013959907508524971,0.031651416405468494,0.05333235362685359,0.07954642135947264,0.10174210992541137,0.08984617706792151,0.07087452103451926,0.05496364728686756,0.03078749894581776,-0.013264063836711085,-0.0869073364888627,-0.18046549924585814,-0.2707797327817609,-0.3430267552777746,-0.40813508934130427,-0.4807613847527185,-0.5651761234623521,-0.654552044358858,-0.7320635938895915,-0.7876721279713765,-0.8195115117267362,-0.8292982353290311,-0.8166367531085488,-0.7721074380934395,-0.677613583808779,-0.5135759414895219,-0.3043859874880569,-0.1232203868252678,0.002079023618222502,0.0819370630873874,0.13241503484375272,0.17025642618528494,0.2071814319775559,0.24521597758017752,0.2790228066877004,0.29660879202496765,0.2919676540451017,0.2633025619354504,0.22303690177709867,0.19479079453042336,0.21113448657313277,0.06985437974801532,0.03152725073226759,0.04666953894295076,0.08010021852737301,0.1282839668037267,0.19415501540473398,0.2807778953454192,0.38383698696634927,0.46506389186159314,0.48435782949781947,0.47021105526349827,0.4624956720886533,0.4674510444765142,0.4766094682829809,0.48148632689362586,0.4677564235154964,0.4259538141113666,0.37224511387695924,0.324969654886942,0.2830234932659444,0.24189823289679974,0.19989290105036214,0.1582431839767495,0.11772789394863624,0.08779164262321837,0.07215589879616836,0.08219314919818957,0.14368238082075277,0.25680848087724,0.33867922035888237,0.3259176496447497,0.2779784086445811,0.2658770465595353,0.32872858845142716,0.46397716345839846,0.5833673025551664,0.625811071962346,0.5979149772415516,0.5296553668798412,0.46501135117785697,0.3979912918086984,0.2994891804843648,0.161469882118332,0.01392331044361943,-0.10627512803575978,-0.18141415339036085,-0.20899695555138628,-0.19849311109428422,-0.163445493232621,-0.12288800340500836,-0.08665162720862579,-0.035730144592645695,0.054575657847945616,0.1783859917341149,0.29700089930358964,0.3628083208253046,0.36306019878220147,0.3047757696558121,0.20824199933204096,0.10744084420357221,0.026366407188462417,-0.028384407590091802,-0.06251368658363865,-0.10180369916396992,-0.1885637359212559,-0.36331711183770315,-0.6270260211931324,-0.8568204637471272,-0.9420606685772122,-0.9609754086634764,-0.9613278941205936,-0.9531469895055115,-0.9390324107867415,-0.9202420117603856,-0.8960124361830112,-0.8601747961627146,-0.8010994362043544,-0.6984758587970396,-0.5132530554241536,-0.21349879053544016,0.13359082476091305,0.3818688629066,0.5095474114407939,0.5639052786008437,0.579477239405607,0.5715377948818356,0.5523238679251652,0.5385920885587402,0.544690184352998,0.5633119745678737,0.5782945038569229,0.580454284585804,0.5630265706430537,0.5258958485399686,0.47833813651897944,0.4369361250007594,0.4216755093384381,0.4321617369967978,0.44953547682230727,0.4502485350423578,0.41853633567033177,0.3658646508488546,0.3152142948783486,0.2770927822572524,0.24676570596590552,0.21172204868108987,0.18065957298369853,0.16052477401759097,0.14434807991732743,0.12975391085537796,0.11474673844761372,0.09238317107851593,0.05918698974610604,0.01523006259639996,-0.02975728943570664,-0.0716144392201626,-0.09859570703104002,-0.10824952103128396,-0.1032378185700675,-0.08513714592622967,-0.06090789477071393,-0.03977054963212161,-0.016829776559128883,0.01239055245510787,0.044346578122302055,0.07749462214696132,0.11863961514131574,0.1781706175291345,0.2404608259010613,0.2781136581743143,0.26492106412563843,0.19518166865495576,0.08717084797789276,-0.02465817674837175,-0.1085251367875757,-0.1417290210229853,-0.11343400120755827,-0.04928091404636913,0.006442684505694512,0.03755759273903904,0.031160418435891905,-0.021881902664452304,-0.1387264411454356,-0.3169873075920833,-0.5148715991439884,-0.6840481747126266,-0.8062073466779076,-0.8773131519977391,-0.9057269256317472,-0.8930090448144354,-0.7887085252860753,-0.4196147591692805,0.1356865297956766,0.43061838396806473,0.5392104220209397,0.5814096725493823,0.5964777295038939,0.6006529046320191,0.6047422658669293,0.6054599839721999,0.5999018431990565,0.5777471559271719,0.5180497764615015,0.43525796627377883,0.3818567001827738,0.3719691396663614,0.3955969646626746,0.42756876456266396,0.44086375450025733,0.4269954764469885,0.42116676658783686,0.48447298314418474,0.6510903253509894,0.6494049913188099,0.48267654989311054,0.3876613551067465,0.34055054768574317,0.3212934839968585,0.3235936116276566,0.35069400053453503,0.3841276801197547,0.3244003459732266,0.023919097086299735,-0.43717918024214925,-0.7497437776198437,-0.8834136422378449,-0.9382402912848906,-0.9632127623591823,-0.9765985109135619,-0.9854647672845473,-0.9917462950969218,-0.9948859603866158,-0.9949417039947718,-0.992401946236999,-0.9878442874709596,-0.9771436154826781,-0.947060868486586,-0.8764023807359044,-0.737866279606755,-0.4997343933377254,-0.2323375741563526,-0.06775585128889429,-0.014731594507992699,-0.041812126839975886,-0.1785049638824507,-0.4471772512266145,-0.3555570608428361,-0.24758871043825487,-0.1709493864472178,-0.10178337988902778,-0.02723605575004318,0.06216442814971218,0.1523918762822041,0.20157940701563692,0.20332013473259197,0.1998276211656553,0.20665840746822534,0.22148888826277324,0.2622443163366308,0.3383853131546824,0.45296792508471734,0.5895093351499546,0.7126967391524784,0.7901429799444147,0.8197583723814496,0.8194006262529575,0.8148510852021974,0.8328593696981655,0.8732960904185788,0.9063000838326762,0.9204343916662063,0.9203497437189586,0.9116278034400565,0.8956562014994317,0.8702937702224676,0.8323879622232322,0.7791462880243741,0.705611003357309,0.6078728545533445,0.48321020520324837,0.3311233319191094,0.16393749575797573,0.01700887463419942,-0.08108103872037195,-0.12308389557141544,-0.11972193066439059,-0.0922376280377773,-0.04914162498009056,0.004818582414986513,0.0591788618165169,0.10173003156006029,0.12819294659907,0.14096419845326028,0.1410808737391189,0.13734774790028265,0.14919251814899642,0.19033723614483464,0.2436988873809003,0.2882817219363612,0.3270242617559627,0.356476963625832,0.3591836426748629,0.33964537438977555,0.2914298947077435,0.21893573554770202,0.12763853327994293,0.02165975278325699,-0.09937559345840012,-0.2262166475078533,-0.3396412707447967,-0.4394098403849251,-0.5238126354141647,-0.5843993453489851,-0.6138795580712678,-0.6186403301199269,-0.6145078888036359,-0.6134311004688675,-0.61692200491979,-0.6202329214665664,-0.6151297494715106,-0.5961899551112578,-0.5671372637227623,-0.5401050340605456,-0.5267042007574336,-0.5253415911830384,-0.5241238361500542,-0.5075114678867065,-0.4708448580523586,-0.4183139764750935,-0.3655596836193475,-0.3228576038577886,-0.28489879466971824,-0.2375304676433131,-0.18450341169053536,-0.14197844825901162,-0.11864860545899877,-0.1120711683291245,-0.10289792804375897,-0.0651982225663017,0.011924413518806624,0.10610277051118595,0.2103162759567464,0.3102836851945561,0.3598589462984437,0.3174859434834457,0.23589275073453972,0.1540182970028427,0.10631156967155427,0.10260568010884179,0.10763960239972298,0.10261464473814587,0.09330530671136424,0.10176394145726889,0.14909645124706994,0.2569117888533787,0.46706350080393755,0.7492197230903425,0.7448203785246243,0.572491028177161,0.4307587961200539,0.32178525613059783,0.22764331574606758,0.12154617761924638,-0.02138105831900342,-0.17536603027295453,-0.29653575309409574,-0.37572018935183304,-0.4173482674314439,-0.42716937476583766,-0.4072828855696936,-0.3710128290376508,-0.3362649538956297,-0.3134149793175205,-0.2932063171377863,-0.24727515958603682,-0.15868190713024977,-0.05380556140210801,0.030885985480155153,0.09030932944080375,0.13235544258438345,0.16197490538455164,0.18754892525653333,0.21826386627483157,0.2605925546652061,0.30291659646864877,0.33344021271666446,0.3542097817064285,0.36499262484603434,0.36722781089259177,0.36967324987472017,0.3806805194739119,0.399130806270772,0.4232944074151319,0.4439606680001565,0.4528618395392817,0.42547905244611745,0.3555832520202367,0.2581667366645044,0.16351089446082961,0.08995252448739717,0.04158454764993151,0.013570571102826568,0.00447633073973887,0.015976347614735858,0.03707330170432932,0.05085650187172877,0.05421048000903311,0.050966167683806254,0.04630418622450069,0.03715212163807727,0.007907615339593645,-0.039236146447114685,-0.06354225005227146,-0.058481989819221175,-0.041651482462804645,-0.02857775329946345,-0.02425914623574555,-0.03339420982482072,-0.061214178984458995,-0.14395959569549463,-0.3736481031069981,-0.1436830649544109,-0.08942983402862167,-0.06890472298567837,-0.055748926285345786,-0.043082344488210834,-0.029340437409573508,-0.00907142300533787,0.03587027343893345,0.14553255236267057,0.34488462268713216,0.4842283927096843,0.4728851442790283,0.4256169183449734,0.38132014088207383,0.34033843871082753,0.3167315454174875,0.31579241417295545,0.3392104521647262,0.35924033534549143,0.3574248701957142,0.3402624640441926,0.32376934476589564,0.31877165516306594,0.33318863624413,0.36046057898775635,0.39198756731130885,0.4204183241798653,0.4388376024598076,0.446361288996907,0.44195954643674196,0.4326746245014521,0.43250769902462904,0.44902577710284935,0.4817025591207117,0.5160345166854404,0.5296263895691802,0.5136123710498492,0.49315003803140367,0.4983726185781718,0.5296783082743437,0.5219462930044088,0.40682671707162377,0.19003654218212068,-0.11300207011789568,-0.45061890686459605,-0.681841959297359,-0.7421834982939232,-0.7030843847922509,-0.6311334734249434,-0.5758107198404044,-0.5636989210622317,-0.6033408850098088,-0.6715294465110235,-0.7315959579226983,-0.7654852355253893,-0.7687322932249823,-0.7511512525160574,-0.7263747969792883,-0.6987656709679383,-0.6674058521516338,-0.6266859305950829,-0.5740212348900554,-0.5200317890890686,-0.4772042706658287,-0.448353062855332,-0.42645286415554134,-0.4060294931319329,-0.38413387777010527,-0.35812344422612635,-0.3157271137843044,-0.2512366050159645,-0.17732542336053417,-0.11763374354779357,-0.08706589978970272,-0.07482161153029884,-0.07213255569175425,-0.0641303434028279,-0.02473232090819513,0.06776695330682679,0.23262201298970214,0.44905952531279225,0.6382566884803073,0.7662311342701515,0.8475139034817646,0.9020102694368315,0.9376169261782352,0.9607772282018263,0.9735470089761012,0.9797950201547402,0.9819740332092441,0.9814737740440452,0.9791725048370201,0.9745702990028922,0.9668473087081796,0.9538994961017251,0.9310456505042524,0.8854210100281428,0.7842547396029925,0.5573067993688726,0.1624954961038025,-0.22901921486733923,-0.48745317782457226,-0.6409889449482481,-0.7293880750354464,-0.7824033879825762,-0.8167302987069496,-0.8396320504078284,-0.8523162550259735,-0.8551664531611075,-0.8477185119040354,-0.8299981234384514,-0.8113214819646487,-0.8092264950073453,-0.8261091952409022,-0.8467239273016566,-0.8610864727292444,-0.8700505698824362,-0.8768652866945851,-0.8805817895698445,-0.8791313592668193,-0.8704303787372483,-0.8502904813880388,-0.8113830209088568,-0.7371425783676329,-0.5853035171911914,-0.339864724089849,-0.11750550093708183,-0.011040025770701904,-0.02541476020080308,-0.13298617806877241,-0.2881022957222882,-0.4460064480097046,-0.5905310301027259,-0.7157576666101314,-0.8059968535904364,-0.8427670523222701,-0.8326780283446132,-0.7789981542817783,-0.6724020747498471,-0.4913924092340492,-0.21487871198191336,0.12173962990083005,0.41717183353151044,0.6146551681011456,0.7297337005149614,0.797091709329787,0.8416636258087828,0.8752084985705733,0.9016595116065663,0.919215070812524,0.928162738904891,0.9279578312740635,0.9149829364205289,0.8808713040019331,0.8064637990556482,0.6736700573715109,0.5224310829706097,0.4516720670383746,0.48281147700221494,0.5630627494776967,0.6402550239949868,0.7020742433967595,0.7476911678476438,0.7797352461180738,0.800211887819062,0.8078352332247505,0.8094161763435048,0.8145613282305649,0.8248812227242431,0.7982008642559826,0.6837043925811858,0.5546762081765012,0.4967125860286167,0.5298976164898803,0.6246292336255819,0.6978912693014874,0.7149300657771945,0.7163960026935687,0.7143396693876862,0.6938047083780601,0.6356462220710358,0.5457267326330506,0.45044669582151603,0.366935412750446,0.2981009736009665,0.2421553340793041,0.1985493973721036,0.1705273523406447,0.15525313498214083,0.1439919283738589,0.13479299730503494,0.1211654014396225,0.0988973837002332,0.06700608800993352,0.021079432086035268,-0.03017387932496991,-0.07036211610331958,-0.10706249803081945,-0.14797099185337337,-0.2002166924910521,-0.27560028764014965,-0.37146011171657556,-0.32156920806602507,-0.20039398171324196,-0.1299065095040779,-0.09883408045923947,-0.09722217240608835,-0.12300626547698425,-0.1815826711616847,-0.2907951090370077,-0.47686165262568947,-0.6720332126302557,-0.723563970842782,-0.6881973487010239,-0.64186075323034,-0.5979756138946422,-0.5602002368532776,-0.5331527492422697,-0.5262347172322339,-0.5474186373050995,-0.5916471253392822,-0.6430502127933275,-0.6862900088437232,-0.7091888373647628,-0.7095361281001876,-0.6900253972080698,-0.6574755265483649,-0.625781324622338,-0.6074186491194558,-0.6077365495061888,-0.6176054281273671,-0.6285290235969654,-0.6341663173728638,-0.63327106344873,-0.6273945127524218,-0.6226462958074651,-0.6192547200461582,-0.608401754996721,-0.5871511447457952,-0.5599796015677618,-0.5219907756152042,-0.46325472775069265,-0.3906698148771387,-0.32524933172179327,-0.2713570150108069,-0.23536443244099456,-0.2122424996090333,-0.19196134178764457,-0.17038913086455262,-0.13444246888555875,-0.07003362982696754,0.027164123835821202,0.14420456241343735,0.25764105679618116,0.33242991470064526,0.3659739037741742,0.37436077924702,0.37878577466740015,0.40911459961500507,0.4730949666351963,0.5554981628473368,0.6250690186454042,0.6574282060235556,0.6429102631699549,0.5778793041114102,0.4519149479222827,0.24935982362133935,0.010019828552781045,-0.17683360261309972,-0.26973174492139396,-0.2733123011096019,-0.20701521646481233,-0.09468132461948692,0.032271594818597364,0.15398733814047974,0.26657144714516984,0.3766269826355252,0.47004374578854236,0.5212069193509273,0.530652584400286,0.5064412931471315,0.45407741952273867,0.4081663591716501,0.4137255744845904,0.5610303613778806,0.7546970175672557,0.3658820463658145,0.23096050557959155,0.17798027059025492,0.149392975773842,0.12977314660001285,0.1193165797381045,0.12310742914201361,0.14031495317975048,0.15475433454815793,0.08681385922599669,-0.12117562105848755,-0.23410793108641018,-0.35669445611976125,-0.5626800026364261,-0.727648613440732,-0.5903071096559396,-0.45997970992586656,-0.3802261408383427,-0.30640034785998976,-0.1952597246151548,0.005674308922759247,0.28744331415065416,0.4960116256859842,0.6050118685211102,0.6614836971477313,0.6531203210456556,0.5827596839727798,0.48958153509468105,0.398707048249622,0.32031407052144806,0.25268978370972434,0.18849383403807415,0.12934658797418438,0.07551209504928297,0.011444457320318993,-0.08230446420614948,-0.1892539011403634,-0.2560547182139288,-0.24727139224407055,-0.1825304632486605,-0.10290516208319841,-0.018607225096562884,0.07721459771725907,0.17624026684009783,0.2707026803978906,0.34651237908094124,0.3793367122108589,0.354770026668698,0.271350752003415,0.12810991485151896,-0.05804661542417846,-0.24550801327532248,-0.37614476157360777,-0.43551859581073604,-0.4352582865676457,-0.3849165348918244,-0.29364108779274944,-0.18145950164229527,-0.07190998933475048,0.02917907998201749,0.11944826341148103,0.18621911263699756,0.22600833451287952,0.24705032983417613,0.2612309325806357,0.27761610413196336,0.28887909365362957,0.28451097766596123,0.257970879943553,0.2226623740611868,0.1940811521691026,0.18117463973082318,0.17526735531377816,0.14317768893555563,0.13378370334926873,0.1642909194023866,0.21800867616628955,0.2863694757100339,0.3623693544183303,0.4341602853350615,0.4943320646625901,0.5482006047986739,0.6034382271519974,0.6584605463026572,0.7102293461259083,0.7310768945863967,0.6447570992667062,0.3846651784233879,0.03955546835111156,-0.2357855760825151,-0.40124932452648465,-0.49995844383059457,-0.5583203723164585,-0.5824816642353756,-0.5740207163531722,-0.5398698827285915,-0.4924816509800034,-0.4465440032028615,-0.4171666584246219,-0.40075291687668085,-0.38076940896541617,-0.3456408850948231,-0.29468023698710444,-0.2349037600690446,-0.1679413222580271,-0.07501109658511453,0.062485879665417444,0.21915035320388257,0.3536729031335448,0.4587325873933018,0.5424957231673446,0.6080349975630297,0.6554336231679868,0.6816664986867034,0.6840794128404455,0.6438850511525129,0.5078116948716946,0.1651094682813334,-0.3546703316789023,-0.6744222705825754,-0.7968571676096142,-0.8427934513069958,-0.8573669673034279,-0.8538283389236675,-0.837030119318825,-0.8108993281988726,-0.7805193889609062,-0.752355381901164,-0.7251327052085805,-0.6963710267731292,-0.6757314488005822,-0.6707182311884985,-0.6699702441756247,-0.6570619311482648,-0.6150367543441402,-0.5188774164250749,-0.3420569610990959,-0.09583079324364532,0.12707169685051056,0.2499431398862914,0.29158067237322205,0.30136699151116925,0.3025327879307914,0.3145886510553275,0.37366775719650913,0.5609490306410552,0.7707587563504381,0.5420749809632323,0.42139945669496054,0.3831653155711809,0.3735334383482666,0.3635573629121228,0.3230432051711558,0.2017043931519485,-0.05220351882376623,-0.3838939189723005,-0.6346206851982541,-0.7747932486279833,-0.8500169553144813,-0.8945177318413766,-0.9252362245736664,-0.9483449336789608,-0.9630312622016081,-0.9696890348478107,-0.9685887783812902,-0.9537849632947206,-0.8985984708594277,-0.6719530068003752,0.04947293769497431,0.5962597889786276,0.7638113675508439,0.8180230484706551,0.820708064624981,0.7677887018452753,0.669698079894676,0.5735892755177527,0.5094289749566971,0.48085978169320154,0.47030762048538477,0.45140504306358714,0.4178645651589351,0.377746787795028,0.3504751416550196,0.3430273098077492,0.33887984928463977,0.32470475488925776,0.3045177748903644,0.2862317142010654,0.27426980128864153,0.26931345360341197,0.2910581620318142,0.36461922182807965,0.5007354640557031,0.6394247947571029,0.7178790303923752,0.7491269716389521,0.7581676335190362,0.743319924321096,0.6681825846099462,0.4976045724325857,0.3089798856258978,0.21987806205835742,0.24994209942880782,0.3626982465207655,0.5018749627762152,0.6260107891263225,0.7089600452251608,0.7471858317021581,0.7513797194932004,0.7327603390185019,0.6929003891770913,0.6291528803645297,0.5259635844894668,0.3665716205375774,0.18657162296597596,0.059415170868466566,0.008264096700004015,0.017156724798564664,0.046939532234590686,0.05656328430261632,0.03472084553703175,0.012642966849682627,0.02469904921202367,0.06904624672974896,0.13076130803904815,0.1818655024551724,0.19911824070309553,0.17625966437325172,0.12901400086113685,0.0870058689987493,0.07287171860723503,0.0869168741814682,0.10601292476687099,0.11944002669759841,0.12129730617746937,0.11061850927708938,0.09522155022556587,0.07943193594363768,0.056802223907418424,0.021997753112922312,-0.04999703696668513,-0.1782201142083295,-0.35812971706135555,-0.58389119916624,-0.8034214845840039,-0.9187342577710719,-0.9364251283450379,-0.9114501128013067,-0.8598335970994495,-0.7699797186861944,-0.6355723722284462,-0.4697207645169222,-0.3040912150590992,-0.1625907829431637,-0.05112790895092652,0.03812085547836586,0.11287573846030612,0.18875189056798958,0.2800023032705638,0.3684574811180562,0.425638045880026,0.4313526047291403,0.37762539600271877,0.26353855802373427,0.07728437841536508,-0.19212385250637917,-0.4645575379379186,-0.6444658923883656,-0.7293307645206971,-0.754624001591967,-0.7356300941991972,-0.6748893548498256
