-0.28363994221479544,-0.4274207304220942,-0.5498737649950438,-0.6453782061945098,-0.731168713572641,-0.8058403749376285,-0.8612347493421934,-0.8926695873746376,-0.9018311880121573,-0.8891091390549279,-0.8455155078540391,-0.7506457072473354,-0.566878327668436,-0.27201498253776346,0.062741449027189,0.33884293187747005,0.5369507717649517,0.6749729565996224,0.7595660719046224,0.7999492609926291,0.8124774561908606,0.8191769478835774,0.8274213926931697,0.8340704007549051,0.8361717349567459,0.8290077417515386,0.8078731493557326,0.7720256002753564,0.7266909905319919,0.6827225967392024,0.6428109517221856,0.6077201330376159,0.5725155114094362,0.5326017042756062,0.4878514366333198,0.4425454832748359,0.3916381039009334,0.3387783062889468,0.29078235449746476,0.2641628375137619,0.27451757775432173,0.3251115000685322,0.3842539317069601,0.42627040330268745,0.457430913844815,0.4960265203014627,0.5504083485148356,0.6220558618171144,0.6983915840939661,0.7511350132284098,0.756820415731935,0.7095078302567172,0.6351052472488704,0.5682701955708421,0.52030050711634,0.48552870660769054,0.45234126408029995,0.4038073112571898,0.3291478253340829,0.2319537804453167,0.11673701576020412,-0.04997784097238242,-0.3205906252735859,-0.6290420227917134,-0.82134183791077,-0.8970264346632388,-0.9209761659373933,-0.9244516038309788,-0.9174441104408015,-0.9030902229407111,-0.8828989476263873,-0.8575686939691322,-0.8278139659037679,-0.795039654240223,-0.7640923108992405,-0.7425205280049239,-0.7275342628846821,-0.7130409219892172,-0.6975820903899854,-0.675110403396969,-0.6477858203199728,-0.6138117614936639,-0.5748418842492853,-0.53858899041219,-0.5222155735538595,-0.5253923693596689,-0.5185084656273953,-0.5061537750987739,-0.5119558864995396,-0.5532452455745599,-0.6471279254138593,-0.7840009122925936,-0.7148627705442314,-0.37315539992815644,-0.12931835473382736,0.02147239899156758,0.13055084898023328,0.23073652243030215,0.344139445621106,0.48420537254025664,0.6475015520837244,0.7756003262204938,0.8025466208299107,0.7554016101553037,0.6842790688333289,0.630105684079972,0.6251885918866693,0.6938346756840857,0.7985496671426942,0.6381344691426305,0.3508468591233598,0.1462723024619668,-0.02222856239187309,-0.19452705408953494,-0.37922500236755563,-0.5600612387608394,-0.7101501693965638,-0.8032579426624631,-0.8301610917426956,-0.7937950162570455,-0.6783609765455467,-0.4193922599776558,0.011097869767868081,0.398252806647556,0.5942557789400073,0.6767627686840904,0.7181686173121518,0.7479989301166936,0.7726063598933377,0.7913240464878729,0.8008890320425909,0.8051659924588142,0.808221338755089,0.8170453616363279,0.8304207224762216,0.8458972771297069,0.8609358510652645,0.8755718796925965,0.8874207343859642,0.8934470478118676,0.8892308330569902,0.8699412946386736,0.8240643662075444,0.725319406967423,0.5309191192075097,0.22327920281353456,-0.10666498380154006,-0.3562490456768018,-0.5159552096454106,-0.6081738683694562,-0.6655524570927503,-0.7104483582426421,-0.7527342194035147,-0.7951750976708014,-0.8361575927101139,-0.8697681807159616,-0.8885161353762013,-0.8870262453957942,-0.8727659951860651,-0.8641611864260761,-0.8523413408469677,-0.776181413669532,-0.6429317055352964,-0.5259712693405705,-0.405555247302331,-0.11158928613356492,0.3958730292282507,0.6044534645490872,0.7156179418540998,0.7955134975883561,0.8116874761780601,0.7346860869931665,0.5345922789654787,0.19871819407401856,-0.13135997354710374,-0.33015640038052674,-0.4007102690727587,-0.34610560416584085,-0.20566232621641173,-0.08458880867245246,-0.004353400174259598,0.05176971537099403,0.09622511193028786,0.13138046404541803,0.15954543712192873,0.18587348285175426,0.20516535000779434,0.19880835145704784,0.17207578010227853,0.14679037715720955,0.13045785537768692,0.11076472498758874,0.0846217387484141,0.05258676401323176,0.03608642829280208,0.06223408696478541,0.13211461132544522,0.21870562193102125,0.2927631253497047,0.3444811239387352,0.38167576134876413,0.4115057858489264,0.43790544743107007,0.45908918178088315,0.4731355846832318,0.4634289505824885,0.40150906112855445,0.29217969764987295,0.18889879570881601,0.11630243241835624,0.06940548244975862,0.03889140224831404,0.017412339650240756,0.0009711031519211083,-0.006620573424323058,0.05144925132568205,0.0545070276196723,0.06082563505050124,0.06779143359439041,0.07298893866698754,0.07418610901304759,0.06111708762897579,0.017576033426955847,-0.057079631595666994,-0.12939739704461745,-0.16426188224574417,-0.14844119505861478,-0.09022573760441771,-0.004441574646027655,0.08489673082174705,0.16644253695346647,0.2166132428365155,0.22071709665936587,0.18437683891578335,0.11906501672981018,0.04381956450671833,-0.030835661052361,-0.09890985243107242,-0.15893021937355628,-0.1977868150225997,-0.20520444931218548,-0.18639980775568596,-0.15389098007888144,-0.12280487171452205,-0.09844115634329828,-0.08948077180832055,-0.1033653222619249,-0.09889316569894124,0.05462454896866044,0.16835020905778975,0.2240731081636091,0.2924042942093344,0.39762749691761207,0.5274623621772854,0.6305141455671247,0.6917318237037657,0.7388754046601109,0.7807797812324953,0.8054143784032137,0.8044867591981366,0.7731901840621568,0.695999253101365,0.5400663861885847,0.27588420279847803,-0.05121278912813985,-0.3437181379645352,-0.5654322328018241,-0.7062697551536298,-0.7831466292069799,-0.8131398745023544,-0.8199723017098114,-0.8338612397152422,-0.8639313106537843,-0.8939189669937515,-0.908615401745917,-0.9071478936857633,-0.8946548524148159,-0.8739186654555996,-0.8458871704927663,-0.8131055594650167,-0.776599674904968,-0.7300956820394083,-0.6561643959708627,-0.5104618011219404,-0.20233937578575403,0.28883037237903453,0.6736777005356951,0.8299449482824961,0.8810355731488859,0.8971044542296405,0.9026593570186318,0.9097940182234123,0.9142905740514374,0.908713963428877,0.8901454749026528,0.8598989511564735,0.8204899914548347,0.7801988292243891,0.7480147829386337,0.7273018374793657,0.7170610600277622,0.734230641085891,0.7757973446931892,0.8167533220921481,0.8411886304360153,0.846322748886927,0.8348385971184686,0.8033129493348057,0.7516789581862426,0.6883977818050367,0.6225004465770688,0.5595304378193662,0.5014296244959542,0.44874171020254355,0.4013384005194157,0.3628295066544262,0.33575909471595433,0.319330086895477,0.31486772277130415,0.3194667875905943,0.3266356237120511,0.3217878950707483,0.2939222026038075,0.24269074018510384,0.17653850973445936,0.11033690317685965,0.05189611679372367,0.001138459022965721,-0.03878111598693201,-0.07641362101856572,-0.11616624305682548,-0.1626380463974187,-0.21729839125993167,-0.28080198511751936,-0.3450072849278389,-0.39409751349942984,-0.427198202841118,-0.4490885655423151,-0.4568088290718744,-0.44846036513159565,-0.4290579635079692,-0.4023780421119166,-0.36953078659536703,-0.33310140682466377,-0.29175848062522564,-0.24087155728276421,-0.19553638498676154,-0.17400251275330172,-0.18738727369116515,-0.23465357488779456,-0.2968766266334734,-0.35765271342659616,-0.4022014724140838,-0.4252287967293265,-0.43154098360891535,-0.42088891863737404,-0.395009258911596,-0.3614498345780127,-0.32626990962653507,-0.2962151435863907,-0.2742042403221132,-0.2619822984318534,-0.25270603623895616,-0.22596039831606865,-0.1809387325128294,-0.13507030749466545,-0.09335915473722736,-0.058691942778079854,-0.029888645470531505,-0.0027368061129728265,0.027917592502925696,0.07457385733807034,0.18300588986405164,0.5224971712121803,0.3724404252150371,0.25029590081243297,0.2091765323382304,0.20063458531871758,0.20983868336457845,0.2403159412008314,0.2978544605786282,0.3774500587056838,0.43044235708276624,0.4171428030256504,0.3837017245152514,0.37426553919801275,0.39012549632242477,0.42386683493857524,0.4505428791193606,0.4468061587337283,0.4010901973503935,0.32973587131760435,0.2603160734301172,0.20740343945549802,0.18100217419280615,0.18032844232718237,0.19352077449492847,0.200868299155653,0.19748969948699288,0.1960516013674815,0.21874349168768747,0.28059467519207776,0.37083817261434715,0.4582570708066608,0.5273340804467035,0.5600391015642497,0.5336320827541461,0.4251119774039202,0.2128170068420365,-0.0538499647187715,-0.23938349164370276,-0.2975951655498499,-0.24236910693497749,-0.10123587349278146,0.07150740601826819,0.19460921997386135,0.26027633743650425,0.3040426484057104,0.3392227387257023,0.370573625492842,0.3885607293730577,0.369830258418355,0.3003811543771034,0.18567094818642801,0.03722473099584174,-0.12211686516387893,-0.2818772623005969,-0.4360090124668168,-0.5682500173030581,-0.6660522554563494,-0.7304671700079538,-0.7733608342725992,-0.804259454337271,-0.8239138338505623,-0.824649505124019,-0.7982965147583151,-0.7444944581539479,-0.6726114886725327,-0.6048650344292708,-0.5607715078407371,-0.5484942277229533,-0.5408887595818731,-0.25396077292099034,0.10358041419459257,0.22671466387799527,0.2671576609003587,0.2515797177835749,0.11984663370534888,-0.2611144446284569,-0.7106620386305015,-0.8839684870409973,-0.9230821786384947,-0.9169997747743105,-0.858259049135662,-0.5313034731869536,0.4596090342040799,0.810278030173595,0.8806414528158092,0.8992401129266342,0.9025327962940798,0.8992681366357019,0.8950273811321994,0.8928843799715221,0.8912311391108817,0.8873660809981408,0.8812487394649515,0.8736938316041222,0.863999340295922,0.8499124566904357,0.8299006744404104,0.7985734559469195,0.7392235580448207,0.6077084478614784,0.3179831890824622,-0.1466898912281099,-0.5041945385267047,-0.6644226954705795,-0.7239626915832555,-0.7328121791077806,-0.701637067787534,-0.6236216823735332,-0.48017219100256026,-0.26253972598912934,0.003783949085393874,0.23560364594818606,0.37111328702000274,0.40191223537553145,0.3580044299013544,0.2965413735584463,0.2578365988783565,0.24672336943669199,0.2147527997142925,0.07420020156703218,-0.06459617043619216,-0.13005268246797194,-0.09474704652466692,-0.012910830043583257,0.05422711721298999,0.0979668571677708,0.11023460103653092,0.0943775330545604,0.06255580276114618,0.037650945626686284,0.03419149131474145,0.04631725245547739,0.06980184069050856,0.0984774495280458,0.12464671273718497,0.1398677652760059,0.14878502275765312,0.16128368048076705,0.18727882238280344,0.2229224027197375,0.2448736010033956,0.24770218079664522,0.2552838360340121,0.27155176644736156,0.30337917814371224,0.33873250612769107,0.36176979898496225,0.36882173932678136,0.36443820378677966,0.3467660427130768,0.3109041532769557,0.2472872943972865,0.17148813957369824,0.1142163427820934,0.08641976166969541,0.07515303564603965,0.06185319182118054,0.042292915658953795,0.022734600534901894,0.008790064672016411,0.004821719150153898,0.0112558009101587,0.019764305345667497,0.02398174156862687,0.026283549561806563,0.04277588361816968,0.14162651699046638,0.12822141214929392,0.10476942203522079,0.10009734684651893,0.09931418377225484,0.09514900650820846,0.07864734147822547,0.03390529716077157,-0.06086455278818914,-0.22448136648368772,-0.41418196996106144,-0.5217694134136236,-0.5497843850090325,-0.5392012788795995,-0.5118849219155007,-0.47594549464330144,-0.43494721237201095,-0.39301905615162724,-0.35403047190515424,-0.31819046303758586,-0.2811133277278199,-0.2217879382340806,-0.12190996099796349,0.016696787794237136,0.15906516345522775,0.2749034305572464,0.36943075385754026,0.4524942486677973,0.5396887380955117,0.652708488698015,0.7911376658646773,0.8923116179038699,0.9094699013787466,0.8726448689460382,0.8031897376028373,0.7146432040252775,0.6324261530589045,0.5801107004642471,0.5650170279678554,0.5796765896470779,0.5913201695186772,0.5681807788191497,0.4824299613444927,0.3187725862629082,0.09161215998139619,-0.17404638846371892,-0.43301514371522015,-0.6221042149666458,-0.7275385498550608,-0.7772847829134797,-0.7918405774084938,-0.7794906233646718,-0.7396653955695117,-0.6707024160348393,-0.5785304428550289,-0.4778524668019184,-0.39783404109470266,-0.35213555882912767,-0.31254701304983074,-0.2513425417508721,-0.15767662970391957,-0.023738190642147154,0.1393754118482216,0.29986103672634623,0.42115099729538136,0.49629248698251466,0.5385502704225545,0.5742345820297304,0.6212557711419943,0.6767621259357802,0.7237116816161839,0.7484511635472707,0.7445385589689585,0.6954185430148285,0.5702921469449753,0.37931890842122906,0.22802937296223288,0.21560765825490505,0.31196999119564256,0.43696546648726875,0.5411644031183244,0.6072672580959223,0.6338540914841639,0.6166737389069241,0.5533660915353797,0.43903786678190576,0.23911791243710645,-0.04677773735692745,-0.2901374617309465,-0.3923451385716885,-0.3816732874426066,-0.3148936652891778,-0.22432274857031145,-0.12304491193351177,-0.0074763890353472745,0.18724106742643878,0.5755665801426195,0.3784075529183019,0.2656272280033013,0.2152254675133645,0.1801008093036846,0.1319743888317875,0.033810185042938624,-0.1797665585541208,-0.531118539558247,-0.806836698525055,-0.9123087777705865,-0.9428799235215048,-0.9462211544961141,-0.9310257935447203,-0.8840294204179876,-0.7684365567188378,-0.5429695790144122,-0.2573323470310168,-0.018089941684760177,0.14436585873907462,0.2553831369858375,0.35375175644736795,0.4550017757217598,0.5498356670413735,0.6243637642050005,0.6716305231489024,0.6909248366739826,0.6876012326896361,0.6714812971446218,0.650975055478456,0.6283092206917157,0.6072123604367603,0.5878951663327029,0.563467408688037,0.5245528879416524,0.4517368579156163,0.31672405318747,0.11228870981186446,-0.11362867361917857,-0.2904078128413127,-0.38335444794370954,-0.4077031881929047,-0.38293715476518286,-0.3230009334565675,-0.24746130421349477,-0.17016394116267633,-0.10929004786576933,-0.06878399194675087,-0.03860895462321865,-0.0006009635527743566,0.032381755255459464,0.017148831604448536,-0.055506238298847654,-0.13022602747392395,-0.14012677220270658,-0.05380689707390542,0.10444257067171697,0.2711717184587508,0.4012052742856238,0.47760921717281707,0.5127809846037233,0.5268179945105844,0.5335497415237561,0.5426247252330986,0.5523825212945083,0.5433283707936551,0.5236274224395798,0.5051953833366082,0.5029785397800941,0.5235700618592389,0.5642076535953081,0.60604948037147,0.6348421057320187,0.6453380816182678,0.6419168399769084,0.6225331203188442,0.5784213209699347,0.49349305978385344,0.34474722119104523,0.13340886184810213,-0.0703167031496731,-0.20775601054628076,-0.25685839259996046,-0.21989456113444789,-0.13350878979475375,-0.05360203718167836,0.0019385133047990207,0.03729213280529592,0.056847932195048856,0.057371365923300804,0.03979271575988409,0.006831827567201805,-0.024071672838438404,-0.0304938401613518,-0.004172673260039729,0.05228111131257154,0.1267833919673108,0.17320338026564847,0.17639632472741457,0.1527504438090797,0.11568350635537508,0.08760768339148811,0.07934438952248034,0.08228460294620493,0.08193549421967,0.0662121680225745,0.032827965401245655,-0.01207200075483903,-0.04729348470332918,-0.0557561292081678,-0.05094468066610551,-0.05845950241817921,-0.09693019282584991,-0.14872650517816569,-0.19619104156344833,-0.23116834024047278,-0.2646749875625406,-0.31921391784032005,-0.39693039659295093,-0.47665010653269513,-0.5421253798878518,-0.5901622717039731,-0.6276663966955108,-0.6620948051820481,-0.6943022957210407,-0.7226291837343618,-0.7338212031572379,-0.7179284486283809,-0.6665102304597865,-0.563104115765759,-0.3885830519862603,-0.15299608221584884,0.06872738647404578,0.21384856472730943,0.30093078797120726,0.38516778520517864,0.5171535675574636,0.696127596306149,0.8428796029212796,0.8836784166689253,0.835387994737007,0.7312739941701976,0.6056093294965115,0.5212164675709708,0.5275781514355986,0.5904111144957609,0.6618441030342347,0.7155908613004327,0.7486165163100769,0.7645561870376975,0.7673313063468049,0.7587118631203504,0.7351318962130291,0.6743243066373518,0.5150519351507322,0.10793989340719622,-0.491714794390491,-0.7998071084738381,-0.8990190259421945,-0.9329321490356709,-0.9445002597629242,-0.9445039510160714,-0.9322726247444799,-0.8945851537367003,-0.7891995912509362,-0.5043805766938555,-0.005246302942640278,0.3868625871523748,0.5958720399905959,0.7123536091772108,0.7820225672548252,0.813437989223202,0.7972602929238689,0.7175727183923829,0.5791956698010949,0.40852455841298274,0.19047044287527842,-0.08075411029035141,-0.30970104879202875,-0.45642557525368505,-0.5520054608359576,-0.6067826415558254,-0.6277445386749964,-0.6265937682654094,-0.6138821034653253,-0.5997370152074061,-0.5901200480031569,-0.5828106254587575,-0.5677195950806876,-0.5318970928034666,-0.47244841424458944,-0.38705885727223494,-0.28189862204779903,-0.1734098418285001,-0.07701916032747726,0.00041389386400999,0.06931619792641085,0.1424759482627993,0.23235609929703202,0.34114120313118995,0.454574589943505,0.5563458011431284,0.630762610751333,0.6698593385771507,0.6800210899524247,0.6814565139409293,0.6811217757599245,0.682643791143113,0.6869212149753073,0.6925140906380755,0.7026094333697646,0.7227607222805802,0.7546797767429342,0.7906988089019387,0.8184345774689966,0.8297569453159187,0.8229829179482071,0.7994607557320675,0.7674991906997555,0.7391504643512117,0.7259015480347095,0.7248873679121993,0.725273214825965,0.7150796628400564,0.7001072900862875,0.6791172017857035,0.6408228609511027,0.5584447027717654,0.3958616036428078,0.13650277658757295,-0.14138475557928407,-0.32043407407295554,-0.3895337696048819,-0.37568541360201924,-0.2993578856037945,-0.19081327323606911,-0.08879833549826037,-0.011912720113010013,0.05189240262167814,0.12467871309192845,0.21299969668567761,0.31553533769772285,0.4140406008476819,0.4748248517682437,0.4928557040538343,0.49809840180944215,0.5301460571560571,0.5929844433193323,0.66657794314317,0.7432233674734673,0.8343766813253188,0.9052237214202973,0.9294754835340026,0.920519582389497,0.8944371514072083,0.8499512495552035,0.7295705633018509,-0.07334999628148767,-0.7615946728844598,-0.7996867178105322,-0.7760094215681778,-0.7380942798711083,-0.6912353481889201,-0.6367820146930658,-0.5940195361612188,-0.5930665072033783,-0.6661082554405259,-0.7736380143543163,-0.4543113530853504,-0.180924905893095,-0.07989754492626779,-0.05169735220376663,-0.0647081505536345,-0.1135920473864893,-0.2012442105567832,-0.3341641345102717,-0.4624567709242327,-0.47769559709924486,-0.44109767979296205,-0.4154162674482971,-0.40446974267033764,-0.4068566083104628,-0.4282743374109432,-0.47314586785515605,-0.5517637367245256,-0.6841589460284992,-0.7516094970989132,-0.5566427752305765,-0.3618201262732291,-0.2425480518913257,-0.16591073226790273,-0.11098517483549845,-0.06632773789829412,-0.01693237640531044,0.0614180359762033,0.19369777031498792,0.335476919548188,0.3941837573398907,0.4177034745623747,0.4107104150461286,0.3810714596345856,0.3348254441834313,0.2801162411970781,0.22057796661000803,0.17095824740643994,0.14133032310675417,0.13616452603087734,0.1500045764734708,0.18024147675001384,0.22727643563942868,0.2890781234282722,0.36725725164318557,0.4635776782927346,0.5706663377679364,0.6707627291253166,0.7401519856071064,0.7719610456398646,0.7788049016777715,0.773878300018077,0.7654748472461965,0.7582729830880729,0.7490424660330579,0.7334239516407918,0.704978128581058,0.6619460610223056,0.6032568195055704,0.5324592243258074,0.455966595548448,0.3781452686554166,0.3027451922471161,0.23255816061936713,0.1628017203038799,0.10200538593892736,0.018036380726439434,-0.14692988418190292,-0.41125375952799975,-0.6243279065338241,-0.6860412545632486,-0.6658509284751355,-0.6202812387809996,-0.569989763457413,-0.5296657536325284,-0.5189485234953731,-0.543705549302836,-0.5903460067264055,-0.632120691700148,-0.6460364205249737,-0.6370252628205985,-0.617983650227298,-0.5925987604573162,-0.5624378169738208,-0.5299847024121088,-0.49005477703983347,-0.43806984036392665,-0.37923513743024945,-0.3195566384067803,-0.25730150437053445,-0.19656888023516245,-0.14186525417141893,-0.09286138717797951,-0.05567614344154907,-0.02709221037245349,0.007581775593993822,0.04639968209772371,0.07683721553171234,0.09964437001678896,0.11718470753600546,0.13059705857815077,0.14454803534266134,0.17723733953742113,0.3035545709611889,0.3504650710052612,0.06374572314712174,-0.012234374828644349,-0.0683607678574094,-0.13373579794307505,-0.2228506815693684,-0.34344846349168406,-0.4755634684673144,-0.5813434210944822,-0.6384557067883209,-0.6440610129348144,-0.5857666092853976,-0.441811709000723,-0.23287275103911875,-0.05562941454422775,0.05817432265676166,0.13071136380684448,0.18545556903190735,0.24111239066517615,0.2973841720606813,0.352556858222333,0.40626300368640716,0.4554045704611573,0.49712528947709056,0.5259208808200224,0.5401823124087679,0.5407514316233207,0.5334408943433653,0.5264555442049038,0.5251863417429586,0.5409746106540021,0.5771746005544561,0.6248038268659034,0.6725854541421384,0.7159912246774948,0.7544354009562771,0.7841340456252307,0.8072091110735707,0.8315962079507743,0.8570030730643236,0.8744109028487717,0.878453314675248,0.8662766109818681,0.8374767786859696,0.7995096214436023,0.7586438422061332,0.7225751139211865,0.694303760507644,0.6679145607543694,0.6138730730640262,0.4805192732082566,0.18697328577576072,-0.19447334150962636,-0.4583008711287012,-0.5848857933679894,-0.6371637186462608,-0.650733298449929,-0.6473928921180702,-0.6409066042588155,-0.6350580305779387,-0.6324842954053648,-0.6331860456994777,-0.6366011910430748,-0.6348824394222158,-0.6181644779588686,-0.5825208153284588,-0.5302266481275103,-0.46479908005661885,-0.39788552582507347,-0.353053076486226,-0.3478003457337744,-0.37617837629596956,-0.40821859778841624,-0.41347191878493367,-0.38420250743977846,-0.33357483554871376,-0.2796341737424153,-0.23066213609548777,-0.18451326454325115,-0.14778809838487914,-0.12956404940490138,-0.16277240089494835,-0.3082763960588933,-0.5445398975701534,-0.6305852223994712,-0.5684571032449947,-0.4505625629444617,-0.3216488987330308,-0.2834016971652034,-0.4880328321260193,-0.7089362766586325,-0.7761910114978436,-0.7847366442667861,-0.7460547931553447,-0.6347576733237191,-0.405248478097175,-0.10796082227441775,0.09129960013907773,0.13307923422707482,0.03727925911838531,-0.15605394527036773,-0.3481799204620986,-0.45924960169036655,-0.47308489474158977,-0.3749260893845946,-0.140760966385237,0.1969583428169895,0.49639855261458543,0.6770191727155673,0.7628571283338016,0.7972926612093167,0.807669797107833,0.8083253572452392,0.8080599785227445,0.8087953389637156,0.8074988243837897,0.7950533839186001,0.773693729353942,0.7514623990151461,0.7396697871020124,0.7441609993587079,0.7642621354446333,0.7860719370317398,0.7837850910205477,0.7253538047514044,0.6151332752961554,0.49024317492854025,0.3865572005633147,0.30498102438721353,0.2364577587981453,0.18573257607665056,0.1553260514887728,0.13915482556926237,0.14056512444725444,0.16374693579729746,0.19824173344700752,0.23857469795091754,0.28922594673925905,0.34903190086090125,0.40922293000677956,0.4502643039539994,0.45437296086303325,0.4093275975737022,0.3120990599013925,0.1620449790792545,-0.03047570425134602,-0.22417322452072225,-0.3612249936962107,-0.4301141150520177,-0.45352945476714684,-0.44502712357189583,-0.4170617701923283,-0.38423199235847305,-0.36300947843893194,-0.35280964663316905,-0.3301943840863524,-0.2730323161759151,-0.16727770448191048,-0.022392480794371738,0.11967609388657353,0.23330453843885463,0.3255344293009794,0.40746773957243804,0.46346697683842836,0.4889921221525725,0.4842531536480756,0.44785772039495647,0.3838570458764217,0.3071013435470708,0.2545880714894762,0.24344300787241469,0.2799190276782033,0.3662228557695554,0.48061841635305597,0.5883599084446683,0.6744418833403462,0.737023273579473,0.7787314209256089,0.7966165012074872,0.789979966420198,0.7580699515527186,0.697668985393241,0.6017121213326827,0.46073495389872815,0.2652940963646365,0.019518290556501346,-0.21019283655757345,-0.3501034584503683,-0.39386138260495657,-0.37799337386023185,-0.342838054050619,-0.30576409505315655,-0.2578113665994311,-0.16474161780612664,-0.05639540086322314,0.008158741608051662,0.045626098871390325,0.07494399221598846,0.11767816103898587,0.188465742972791,0.27670301586601576,0.33443092506454175,0.29730554393657516,0.13192950161892406,-0.11656770756644838,-0.3551824238475401,-0.5557973796329093,-0.7125615914011423,-0.8144829455848622,-0.8730147264601648,-0.9026504281730842,-0.9149334740570512,-0.9172832632092515,-0.9162253985590854,-0.9137405135828275,-0.9117006386654372,-0.9112859275868124,-0.9109031611436341,-0.9092137008879521,-0.9059391577226032,-0.9017350909362748,-0.8965743591638283,-0.8887810088244791,-0.8760800708565885,-0.8569528998600507,-0.829443235421268,-0.7887211787152114,-0.7253028761783668,-0.6250026412026868,-0.479883281626195,-0.29352139547083395,-0.07699420068041621,0.13530773703218368,0.30904837864168605,0.4405107387223624,0.5537769223416351,0.6694548076245409,0.7796911148893252,0.8490015911138713,0.863961669305346,0.83229796647096,0.7585772169292919,0.6576349712587718,0.5513911607793284,0.46067557811285315,0.3958117117614351,0.35879441604808165,0.34982110197440025,0.37142593806793917,0.4464917158465756,0.6152505768672208,0.6860455333117633,0.41913703140158526,0.2942180424993163,0.26239199005267233,0.27174700302901417,0.3022508985759959,0.3507695151233648,0.41812250727179656,0.5019099458815541,0.5782794448426853,0.6016061974953122,0.5666808425389452,0.508922188514966,0.45078541109198295,0.398095348583587,0.3515138800336872,0.3140108474215407,0.30147609296158345,0.33078560903398463,0.3950403600289051,0.4628280161103358,0.49884031993274064,0.49200848910361206,0.44728463049744394,0.36355574446134126,0.23857703875034345,0.07957709594743273,-0.060759347349865864,-0.13577536443019936,-0.13534135543039066,-0.11138553371929545,-0.09508942553748653,-0.015076895078882019,0.23334447787254467,0.5520263130264296,0.7187519075425399,0.756613875283768,0.7080517360866829,0.5673897420697478,0.31772388109213023,0.025200199502420466,-0.18410583530275576,-0.27146825054321877,-0.27182357061133344,-0.21963521011943982,-0.1417265721846943,-0.05324346568226933,0.02700390233102481,0.09031018885034243,0.13384799978002604,0.16818969751800705,0.206569963551865,0.24437263545642582,0.2696192237716391,0.2834056780699253,0.286137293444184,0.27598787194700436,0.25029218038620993,0.2187363323744388,0.19173708479848922,0.16561276984402468,0.13578884788531176,0.082318245999348,-0.013535576102162935,-0.1527424944207142,-0.3275185464552482,-0.4906138630438412,-0.5913391189185755,-0.6384764375056637,-0.6611188142429011,-0.6816362485978064,-0.7132143727400116,-0.758006836971061,-0.7695493128540324,-0.6463915810199325,-0.441198361163632,-0.27899236227787194,-0.17741492915656026,-0.12548418493812294,-0.11221455867926271,-0.1266419097348956,-0.16578333969924575,-0.22356004496362195,-0.04137453991724644,0.05272381484904496,0.10480529988871493,0.1491870591511015,0.19678414819439985,0.25488835447845737,0.3262989469216014,0.3996487134759809,0.45632985038887885,0.4887399027785108,0.4999258905731309,0.4915352621878819,0.47347621780491883,0.46818188902013175,0.5013736343671148,0.5807836260911059,0.6755920626728734,0.7496589571524627,0.8008971825835105,0.8367195196126455,0.8492008382746742,0.8241162789166158,0.7781916433703081,0.7383049423248619,0.7147503024788082,0.7120698538449342,0.7469235526562434,0.8573742444597625,0.7848765898868512,0.2250829282497264,-0.018012587416648435,-0.14117456739049922,-0.23333526104806876,-0.3193682164687301,-0.3995840658506937,-0.4679373843893556,-0.5235368713551168,-0.5671112054052149,-0.5879068221658521,-0.5611193791763682,-0.4948237112331066,-0.4113351424737998,-0.3420158627539737,-0.3202782376613043,-0.3548918848911371,-0.4219972543643223,-0.5113309416154345,-0.6150154025297172,-0.7170173622750181,-0.7982488826292169,-0.8537662584813135,-0.8909439034065957,-0.9133202286023969,-0.9198284188667175,-0.9015583176656505,-0.8373296639318579,-0.7084352228570745,-0.5435418621409452,-0.407856633139115,-0.343360448194975,-0.37200001934777555,-0.5842824740304916,-0.820599346231652,-0.4032943686811269,-0.2847152219426027,-0.2688220036983969,-0.3084015400286344,-0.3935069818630918,-0.5223648925656239,-0.6764221972446396,-0.6482165880200965,0.353982116744073,0.7203566062830685,0.8240785510766105,0.8612247430703055,0.8688463294117562,0.8592936343404385,0.837340820475416,0.8062814653929259,0.76753183502174,0.7253691195718626,0.6877485949001217,0.666320982263326,0.6771616318193755,0.7336686906001678,0.8130656845906098,0.8692459528045512,0.9026166383777433,0.9251522664422774,0.9394082090599964,0.9442616668295338,0.938636241196832,0.9211252648247307,0.8876250101369316,0.8303967703956515,0.739342853535262,0.609657610824037,0.4511515909462693,0.260662807567919,-0.008766951330127603,-0.34295834079235005,-0.6255302697412595,-0.7895418748572455,-0.8663758162242703,-0.9003790954145081,-0.9174261494270816,-0.9253667398497413,-0.9221222790972389,-0.8999219226101167,-0.8442361080604107,-0.7559091376240209,-0.6896462053093716,-0.7143184510315721,-0.7890691449548476,-0.8304877733548506,-0.8257168590434266,-0.7736172409058999,-0.6642841038954342,-0.48111872140993817,-0.21510488052183965,0.07111855086810669,0.27033421879319386,0.34760553574115793,0.3115878678782862,0.16729202284463185,-0.0518378195483728,-0.24654476610017464,-0.3417275948507737,-0.34443402134687384,-0.3052608280866627,-0.2501891078399504,-0.1803957493728803,-0.09150742372072791,0.02008013595851198,0.14901962136123584,0.27029537424796213,0.36384373541320425,0.4300403808098832,0.48453491073005794,0.536748047096775,0.5827404767037668,0.6213798875110731,0.6595652537728783,0.6969137079146243,0.7317133538714845,0.7556915804969628,0.7620329132348649,0.7558136195495169,0.7494850642538498,0.7456444812917088,0.7402705766951745,0.7219588047265415,0.6832438593075264,0.6234496224791689,0.5427117921803888,0.4581874199174008,0.38663187387672754,0.34468517001693344,0.33328533506246494,0.3354085848328508,0.33741673644199016,0.3379834326207368,0.33777670317676495,0.3435411328842937,0.3565841963657635,0.3696938045114496,0.36565798997543136,0.3451057119360263,0.30279506126268924,0.24296647791675877,0.18701341224864862,0.15299080984856323,0.14041815166955113,0.1498531338247078,0.17025354217217595,0.18595667734392696,0.1937321836754016,0.1947533534111268,0.18275176066918203,0.16204884176269843,0.12893625696088273,0.07950116727611432,0.023835348731083308,-0.024845863144356498,-0.046922259382619125,-0.03256610680509516,0.011925760109115295,0.060423060671795516,0.06347371319205616,-0.006459189182389682,-0.13321780596446164,-0.2907929819488613,-0.4509510266139793,-0.5770255762235228,-0.6485266607957335,-0.6772146675593806,-0.6802813825546973,-0.6630728029896349,-0.626269898440893,-0.5812243669786009,-0.5343338223541182,-0.4899117450140057,-0.45209300765708954,-0.433235556028824,-0.43985686924986667,-0.46757490271477714,-0.5068723365180194,-0.5505286915853885,-0.5885827614094866,-0.617209527332331,-0.6331229497879978,-0.6331765914599228,-0.6172411977875933,-0.5825873002925537,-0.529525473708273,-0.47464251156109766,-0.43340725256934187,-0.40970026959438294,-0.40614829363028776,-0.4185729843959679,-0.4453774555582716,-0.49684946631607246,-0.5808521586786125,-0.693458177050239,-0.8092658029050251,-0.8882614073802658,-0.9172242760996309,-0.9097021536240764,-0.8628613930240329,-0.7410922572928706,-0.5267566264848816,-0.30538867518229396,-0.146823997915747,-0.04920622340216467,0.01728284916454255,0.08724973078569692,0.18240607537185716,0.304455835526037,0.4400833283882469,0.554265395772342,0.625033065145545,0.6558257940749646,0.6652997640138377,0.667945621394123,0.672467792322305,0.6814788934934204,0.6971843089941906,0.7142769244224612,0.712501783984993,0.6828301465973388,0.6387769730361559,0.6092443686402709,0.6163218619502011,0.6502867025022613,0.6822344864609879,0.691692616238274,0.6706660771565405,0.6048011831903235,0.44908350110941025,0.13097022908776002,-0.2751836757128604,-0.5394456453642283,-0.6559012669809202,-0.6925772591929549,-0.6623729678020996,-0.5328648295195519,-0.30237900227558256,-0.08385884703567656,0.021845255622308837,0.023941524001811675,-0.0606064324521518,-0.194944309261595,-0.3060704561011807,-0.37416087717891616,-0.42145524097913034,-0.46252014756855575,-0.4961992520797741,-0.5129442307080313,-0.4924524906250619,-0.43595672705169036,-0.36666530488939447,-0.31145727359444453,-0.2767886240069859,-0.24047437109826922,-0.19280944041342837,-0.1660078266030543,-0.15983007768890722,-0.16659917067480223,-0.1711244627127816,-0.16121044666778728,-0.13428158557246248,-0.095970405607405,-0.051360260807882425,-0.022775518343321356,-0.018643938354196254,-0.028201521280843914,-0.03398076891265197,-0.01778299469520114,0.03276899390929275,0.12024070551230172,0.2198544636426783,0.29108359884785917,0.3119638907783897,0.29922980205400623,0.2751239676028953,0.261351706356518,0.2681668832808431,0.3106269998988537,0.42012862941392093,0.6587579953260465,0.8482469330912911,0.8054422177296879,0.7554944466296002,0.7469219349360913,0.7723351524770129,0.8292988694013167,0.8889210892743734,0.9196192282663562,0.9230239444715077,0.9117503072800582,0.8933116132128399,0.8659434429969107,0.8159926245492881,0.7096318129281768,0.4895095202320804,0.17758559959129075,-0.05284301682391219,-0.13679048961720133,-0.12000401155886653,-0.03713822969767426,0.08227186960351579,0.2038080595033097,0.30213573805777755,0.3570719613930431,0.36142319150372226,0.32121539828289586,0.2626795290251824,0.21268860378455284,0.1878583414165804,0.19333736715158262,0.21594624996945197,0.25021249779249,0.28983634413725406,0.33174479705503096,0.3824860940327625,0.44312412784135125,0.49861214023380535,0.5073968743987731,0.3692849370013844,-0.1266841387787135,-0.6613609754653429,-0.8317926025710316,-0.8682515909077808,-0.8062390807334288,-0.6538353269390679,-0.5019807613050331,-0.40657364430375315,-0.3762298951688954,-0.4101826651359105,-0.5168591070035424,-0.6609189318663338,-0.5515944005030128,-0.3011169731316696,-0.16325095899949132,-0.14137725144161756,-0.2342853971722713,-0.43979620603887243,-0.6757766439377152,-0.8296380730873789,-0.9027652511046762,-0.9333759977853158,-0.942548840929235,-0.9372314995410796,-0.9147044550119737,-0.8600574842502419,-0.7363994675996738,-0.47621192722530536,-0.06697540119858368,0.3093838055709999,0.5232427210989146,0.6141916242383989,0.6346149124652148,0.5898736785076832,0.4255377741391835,0.08649965446050023,-0.28061634305886435,-0.5176463151202595,-0.6485199497645047,-0.7202982885012822,-0.7538695181692842,-0.75420496468968,-0.7043919752963392,-0.5411917314228024,-0.16292750745499401,0.2783298949731749,0.5215310301251004,0.6259273167746467,0.6807728517124659,0.7212305447207925,0.752969668549851,0.7751515578611232,0.7835424783362507,0.7732562707722657,0.744383544804917,0.709538644476519,0.685827466977799,0.6768662662040602,0.6708189580537821,0.6550691630765639,0.6330981356646886,0.6150089829329506,0.6151643486068297,0.6315179186475504,0.6470686793239717,0.6445141629144557,0.6338152301240407,0.6287327335971707,0.6277418837022699,0.594276875723896,0.5096098207786116,0.4220260512501518,0.393618193802382,0.48607318325860727,0.4396719055065727,0.18778609349645642,0.11204494652681349,0.08237011542965378,0.06669220420216303,0.059027441749001285,0.06134748103172329,0.08017015347882135,0.12586708349108705,0.2049849093466165,0.3060160872257182,0.40039379008673787,0.4452451930181074,0.3921854603562616,0.20674218673876146,-0.06878437213065491,-0.3069146757675348,-0.4108939424092307,-0.39729380147250953,-0.32804981210216727,-0.24950880709558204,-0.19001181035415,-0.1591141333041581,-0.1551054073558875,-0.1836232486417882,-0.2836737889585815,-0.5717530360241253,-0.3524913352482159,-0.1885409928544652,-0.12919090208811967,-0.10761965772340154,-0.11200378353012835,-0.14505289665362994,-0.21920067319305583,-0.348739606900427,-0.5116489401596017,-0.5946257865561025,-0.492227127034935,-0.20434474494560667,0.11754077956139415,0.2810564906140014,0.33625344343163915,0.3765806093068276,0.43783084841577974,0.5259100824757676,0.6292739665907008,0.7248435779902982,0.7896529804393118,0.8216256127242061,0.8325386593130578,0.834286830236291,0.8357403531452879,0.8390755588656066,0.8389903890705953,0.8286535336647025,0.8043621142991793,0.7566534678959059,0.6731120440204175,0.5433084130032623,0.35162320176267636,0.09343097797932885,-0.20536818239979562,-0.49165261836335505,-0.6964809045966743,-0.8087807231715483,-0.8630826006628958,-0.8879405050135918,-0.896808816020726,-0.8969033676108829,-0.8919600981464034,-0.886996982319819,-0.886080852575893,-0.889315894616805,-0.8955014819260776,-0.9027526265056044,-0.9074264093342511,-0.9048343878828624,-0.8879414998394178,-0.8419895645743545,-0.7457200340340666,-0.5855894456492288,-0.36959941616193565,-0.14016107572886116,0.10442193586612486,0.36864162623672414,0.598869617010731,0.7406643020459004,0.8128389367132095,0.847636203511434,0.8697346370012762,0.8765349083905525,0.8515125217816053,0.7839082238143509,0.697082713112488,0.6226070130176993,0.5640919576359292,0.5179159294001413,0.4850309708060226,0.46982030759385845,0.4802008291408769,0.5198608796796027,0.5855343970271155,0.6635640064847758,0.7312513057888553,0.7787363074608483,0.8078778946014569,0.8238478975760892,0.8301170409494603,0.8280545690578728,0.817671682978175,0.7969769850655288,0.7586938755498939,0.6927850262227248,0.575535774882695,0.3783691400358216,0.143886851622192,-0.03756161404293937,-0.14427472147319284,-0.18770197211339845,-0.18779326761670934,-0.1588146239720353,-0.10949233118165888,-0.043043724505140914,0.0463722634740807,0.15577462056839378,0.24765817765025389,0.29191566828190996,0.2825989500000284,0.23844097972166342,0.18323569692839656,0.15414420810566898,0.17391559957819955,0.20863664364230852,0.23717336180826404,0.2655649513383926,0.29764924066211157,0.3313408356244589,0.35100831319380815,0.35010006468398724,0.32864038427685505,0.2862063551382205,0.22598647901648994,0.16802256949273647,0.13108138162340321,0.11441572071227582,0.09384290076756596,0.04992258666389524,-0.010570083395762217,-0.07371365924467535,-0.12804742038560452,-0.16775781606192583,-0.19770362918591303,-0.2200828160754136,-0.23479106817986423,-0.24780846898414008,-0.2600690901798829,-0.27532693776258244,-0.2769515713232085,-0.24422949967036178,-0.18325556037740365,-0.13095946360119098,-0.13788455810870257,-0.23041652699406284,-0.3838467122535297,-0.514035195858097,-0.5927271524294477,-0.6494133278487929,-0.7275194049845023,-0.820388348749843,-0.884107300626774,-0.9085870964043855,-0.9017510299182477,-0.868983048924401,-0.8135499282436984,-0.7356425306027031,-0.6343340982814691,-0.518819277661348,-0.4052775209028768,-0.28961310514248384,-0.1591719518191723,-0.031225715909451675,0.036431235033725994,-0.023070145134626692,-0.2260422402648122,-0.4736006167299129,-0.6321497863533078,-0.6924751947231281,-0.6806681796792934,-0.6103261365709632,-0.4878965945169012,-0.3436293184461207,-0.21132921840641483,-0.08683690291805014,0.05426166747900089,0.23690633944450137,0.43935678465537975,0.5966471827338395,0.6897266673232822,0.742788106660665,0.7854193733473085,0.8349805501526351,0.8852372572008026,0.912710983476891,0.8955232161712885,0.8036368530288269,0.6290259266084938,0.44831961603990167,0.33528029146512867,0.31677148795677823,0.4050219019394702,0.5714980041754498,0.6615192253893272,0.5430939961011305,0.1882740293945496,-0.25486818226315927,-0.559042455446341,-0.7152664664504605,-0.7897476871556236,-0.8193524909693217,-0.8180430323026476,-0.7848289242450353,-0.705378798075251,-0.5468104052203947,-0.26328278462821875,0.12376285290931106,0.47117637584101496,0.6833722796005984,0.7776598304429438,0.7932807733378888,0.7500154053206672,0.6461103543829826,0.4705032598048358,0.21716316668427255,-0.08419330856900233,-0.36112675138115585,-0.5724758336100982,-0.7234941720628474,-0.815549261778583,-0.8588892298689205,-0.8619041514377788,-0.8253402950962216,-0.7455503013214669,-0.617365457151531,-0.42947277583115345,-0.17076654593719098,0.1423772909596168,0.4631856290287686,0.7311885930652727,0.8858372723590333,0.9042988712167235,0.8375746941232233,0.7542912185075797,0.6913918373643405,0.648220411577419,0.5792292144742363,0.45439687829849496,0.3406121693874863,0.27500659294505087,0.24993346052184898,0.25312004697413437,0.27449895822220965,0.306364302184259,0.3356383965775815,0.34919601578982634,0.3448300324161832,0.333156724539263,0.3266664656307935,0.3386879193180814,0.37221918462136183,0.4206352669152088,0.45849116667433154,0.47813498416817474,0.4892048981496013,0.5006259295579144,0.5191826820306552,0.5365622736184472,0.5336509785638288,0.4797518585173469,0.37411909714716163,0.27089877663011397,0.22742781972749923,0.24455485129487287,0.30439275910523494,0.38702831503280055,0.4689318277518079,0.5252849876300372,0.5527754141486277,0.5704781134399464,0.5967889945760518,0.6276777271965842,0.6584361237026528,0.6833831030868759,0.6916121803464917,0.6792975023223643,0.6540290124531738,0.6264027699657865,0.6056617546973734,0.5858786529750262,0.5595708810031218,0.519145420573316,0.4502727877799255,0.3353936149003787,0.17631480210374142,0.001235028519214296,-0.1598999748124809,-0.2970117034352894,-0.42014296595153827,-0.5494695658632454,-0.6804058679718743,-0.7733489520659647,-0.8195715430780489,-0.8297282031448806,-0.8076867456719896,-0.7404093627128776,-0.6131733552516807,-0.4561487324139787,-0.3423412844272304,-0.2993876612262026,-0.31405090710256783,-0.3391213535645965,-0.19643119894041483,-0.01161930025929567,0.08023462183237545,0.11808356591813261,0.12248918356248752,0.09626874734074888,0.019766377075721573,-0.13467606922485276,-0.3649131509159746,-0.5862957242752894,-0.7189782823533426,-0.7653814773170202,-0.7598103365397609,-0.7195105695194992,-0.6456125623548313,-0.5366504860612485,-0.4007917363130463,-0.25842704759825763,-0.12472686003044169,-0.006573872063671565,0.1035058532087324,0.20435578488182202,0.2921095809291533,0.3525925055700058,0.38539305070701596,0.39567433815126113,0.3866075269762504,0.3533530016543599,0.27764119404763543,0.14125832061478336,-0.0420691042201719,-0.21889206701429353,-0.34371379296427834,-0.4045304510226029,-0.4082011594378491,-0.3549446234274227,-0.2538681434939937,-0.12322393784338624,0.008420173932679619,0.10749966047776159,0.16820942716127074,0.19236611048190513,0.19370793654638332,0.18481731352441347,0.16342047365448478,0.1308021432437829,0.09688602426520393,0.07907990820731045,0.10796628916098117,0.17866825339919046,0.2571337790380424,0.30735126721555833,0.3298335027391159,0.3430824485088119,0.36503863445127094,0.39782979512933125,0.43006589607901274,0.4504177792740865,0.4592640101547164,0.45297347452253917,0.4341307359393404,0.40872167083224137,0.38397174859172467,0.37395346632033005,0.37609500642836197,0.3794007558182876,0.3746142424278241,0.35672802954490335,0.33809176434584315,0.3268513189301247,0.32540053239829847,0.3388219525301951,0.3664855792936392,0.4024381698191444,0.43157257290405454,0.43164394478982754,0.3977072301833312,0.3375646289321736,0.2729351510035915,0.21284200759948244,0.14575255300045578,0.06434645840227687,-0.02252114780741805,-0.1074608175025284,-0.1921193031571448,-0.25326893966383546,-0.27100140620323554,-0.25909438763194326,-0.24441412564605564,-0.2394666569912926,-0.24363961333224643,-0.2554371761421047,-0.2829689971916925,-0.33149025290894374,-0.3886773475001167,-0.427627453836269,-0.4372039087861452,-0.41280082319824685,-0.3787121270899966,-0.35893349848202694,-0.35491835969826574,-0.34731227782895224,-0.31995072719075485,-0.27715505932662865,-0.22788172807842566,-0.18392488260166995,-0.16147011871299413,-0.1722113479389792,-0.21729937606993416,-0.3169369177362811,-0.32678625372830916,-0.1659955833583937,-0.08848145663990048,-0.05413411047089118,-0.03828730246239094,-0.03270547394223398,-0.03957809018553877,-0.06492691332476426,-0.11702700502499847,-0.165881412923896,-0.16334961692193165,-0.11080534894770236,-0.011582416457369016,0.09862565245939987,0.15373803914353684,0.15202421592817414,0.13979987459889398,0.14512344130611865,0.17554401825956775,0.2043950610140426,0.19730375299143274,0.15909359925309619,0.11830905687970943,0.08744031923571585,0.07109538591279799,0.07392115356885531,0.11964047242569513,0.19884485226494625,0.13609213603752862,0.11318509421626254,0.1116081241299381,0.12277720291424365,0.1477265232065806,0.19116448024161353,0.2550182126910056,0.33696833224316936,0.4132073404618463,0.436552394988716,0.40424075885288013,0.3513291749263744,0.30717067130343073,0.27316659427616025,0.24343964762156647,0.2091424297544301,0.16419156156976292,0.06917772944128296,-0.12852725554560734,-0.385808130736552,-0.5766567147748223,-0.6790943525869496,-0.725559350282688,-0.7319533554155987,-0.6905345805409976,-0.5824182625290362,-0.39216569859314465,-0.1552221060703796,0.022633676868625927,0.08810052838309138,-0.026407669837037746,-0.1154586641644557,-0.11412683606542787,-0.11977714802015786,-0.14222297911143172,-0.1611487504668384,-0.1545779096794484,-0.12208080467155517,-0.09031042712073822,-0.09319795111614475,-0.15967667090173301,-0.2879257753617494,-0.4391198973822126,-0.5552378352007639,-0.6152574551794023,-0.6200102273194902,-0.5665107807919904,-0.4469984398934347,-0.25348604962001,0.0006222320123147946,0.26092833900982737,0.4540625605792206,0.5555032986350469,0.5746461247362956,0.5139765515424641,0.3704197918291217,0.1686638193676355,-0.02018636348863817,-0.1217432170386381,-0.12091670358191808,-0.036611353900489446,0.10869440211219847,0.28782238064355253,0.48088759516303464,0.6618958950389002,0.8027772589279335,0.8950215921603861,0.9442076659620422,0.9679866182603104,0.9764127635037114,0.9767463717381683,0.972804401540245,0.966137995817859,0.9570682562390221,0.9398581439715118,0.9004002586628708,0.7878770328722069,0.39795315880336374,-0.3569583606773349,-0.7395482726844487,-0.8608277517076586,-0.9047535081153228,-0.9177927772510219,-0.910599816619119,-0.8788051134452274,-0.8025529737396854,-0.6452766457834365,-0.3862110171338097,-0.08102714810047336,0.16316081918355202,0.31102338608052554,0.4050212677714707,0.4893186977083063,0.5177580120933852,0.4598484737122369,0.4096732416767759,0.39900924495370177,0.4191202163029052,0.46244522322664416,0.5252283795375958,0.5971015872617914,0.653154072215708,0.6724047323351885,0.6456223443579239,0.5574727355092373,0.40398021790621036,0.2457936404429308,0.1083570853038187,-0.03256371634989693,-0.19221223213795455,-0.37226933527274864,-0.5531558413037228,-0.7063557136144427,-0.8144306183701715,-0.8768846053440285,-0.906033209905987,-0.9145484310889606,-0.9071947607559943,-0.8833574783215864,-0.8445150576583571,-0.793178313170706,-0.7281863264003888,-0.6402061436139952,-0.5144077336074764,-0.3515994382851258,-0.19284928258040396,-0.08591959187247218,-0.031322465468544766,-0.010499028745254192,0.00656068582122962,0.037470682244560675,0.10264811181419109,0.21242703292785794,0.3453563391298353,0.45215555695923576,0.5316142099110871,0.6001714740006504,0.6471404073639123,0.6270850471208251,0.5517972053364657,0.4978856002025831,0.49482382448605877,0.5213817810956829,0.5583348076359074,0.5984848591166985,0.6412718704051947,0.6881572968663917,0.7346226482525688,0.7618762804671889,0.7495277305974674,0.6857335483511462,0.5860298120957167,0.48364235479344875,0.40118196558143343,0.34134493977035674,0.29917203401293274,0.26865984888863825,0.2554863594325112,0.2840742614087203,0.42127552116771666,0.5424895823989058,0.4359878436292761,0.384745530667284,0.3589584266498829,0.32574079288489205,0.2572407656156961,0.12431874326445867,-0.07412445594299694,-0.26800139690189356,-0.3948687959657012,-0.46080464907711277,-0.49851354487228583,-0.5256405212780064,-0.5438413090661559,-0.5413150766365288,-0.49956464157007163,-0.40072171986521243,-0.24477999813330029,-0.053424276075219795,0.12347195473200481,0.25281557283256567,0.32813703991156534,0.35253718697871417,0.32814540496175915,0.2617411399016161,0.18025109087100016,0.11153216195863941,0.0713736301139118,0.06444898685600553,0.053783206121904154,0.007182279400701783,-0.08787251987461503,-0.20983143297218398,-0.29942116826183346,-0.3341397744023457,-0.3237923639087025,-0.3036470514571134,-0.2954439322289526,-0.29853030695774246,-0.3022736567607364,-0.30001525264976986,-0.2856566848803857,-0.2621231733694443,-0.24132996032255732,-0.22540713955456793,-0.21617964958129093,-0.21534735406563604,-0.21987875750379485,-0.2293216220702901,-0.23589407658044664,-0.23265732199583986,-0.2161659311872589,-0.19289394814860464,-0.16484549482819333,-0.13672838688139471,-0.09922842100489682,-0.05065168587772169,0.0011770924717949053,0.039488455374759555,0.06567856300273098,0.08862001679953115,0.1210783014187669,0.17045353683733827,0.22521580111230907,0.25464597450808124,0.21278470720729376,0.09067219781372285,-0.028985500429741518,-0.0975679198038562,-0.12597581065011984,-0.12976005189633302,-0.1026785267659173,-0.02335492051336428,0.12496917774962853,0.3194988704205331,0.48462668803260395,0.5753100403464899,0.6079699528001586,0.607812770243622,0.5922075438408773,0.5620207429053165,0.5197014744422462,0.47638684407431037,0.4393302288585455,0.4052613927078485,0.36608276664049544,0.3206434154200657,0.27011913855633907,0.22036769468070017,0.17839369138527986,0.15666596298770055,0.1675653365403136,0.20673596536931024,0.2574418940010511,0.3043215882707728,0.34293528914566096,0.3748840185802213,0.38921964086707683,0.37890168647291445,0.33387207834487087,0.25459390582751146,0.13678482498894756,-0.03284632463497096,-0.20981978949347832,-0.32293592238646773,-0.3734526534464549,-0.4081879024324618,-0.4583962916454337,-0.5244999098838599,-0.5873226492438963,-0.6275995887091733,-0.6372017285855582,-0.6184650990726149,-0.5993407858140783,-0.6080852105745381,-0.6502038566730683,-0.7128146514051023,-0.7850313082520823,-0.8454150316236239,-0.8836136392667946,-0.9038380041841854,-0.9122105088269489,-0.91107755625387,-0.8979362790822254,-0.8647580872035667,-0.7901969041545175,-0.6294167691102431,-0.3437303316128119,0.00020409562670325,0.25542061692176893,0.3933352888016758,0.4620102529827432,0.5063230004737663,0.5585897600741426,0.6460817390938516,0.7450937314947891,0.6677829467341655,0.42514251993924246,0.23714011696696113,0.12943197029484235,0.09124388636510943,0.12158429708666901,0.22581316909226026,0.38807010792247687,0.5579778493049571,0.6940268869782227,0.7909560767631731,0.8709277854483382,0.9039612812619091,0.8554835721059234,0.8177324502335981,0.814811757017003,0.8221733153988241,0.8267934963159886,0.8197788395924198,0.7949391495450483,0.7444101465697319,0.6618130592578887,0.5507613970854707,0.42548681480782646,0.30820945726459,0.20522170081118263,0.1231676777604767,0.07208795793241009,0.05639717684271243,0.06735478975920443,0.09173496113872823,0.1174973707081568,0.1426549335957511,0.1698749666713278,0.20386809068032494,0.2497554335844694,0.3028677059462994,0.3589081219715558,0.4095123550929563,0.44541089796453737,0.45713798548602924,0.437900645087304,0.386675399441788,0.3164903253243805,0.25454183439287553,0.23623591194266066,0.27508965328414897,0.3586879048331222,0.45054581835266255,0.532908039592793,0.5895763634852582,0.5904275113769709,0.4896119702540036,0.32341306100186795,0.19697392996168717,0.15747661177615566,0.17575472746741239,0.19874467479559155,0.20559279911958764,0.2005484820829595,0.18326144894302215,0.1387211100848721,0.05877303667797806,-0.05604398682798051,-0.17852108149327275,-0.2641025724096559,-0.3050793421215143,-0.31103232245954254,-0.2986949581082736,-0.28501317231566387,-0.2802043925752095,-0.28783432903397665,-0.3057682847672341,-0.3241857789601502,-0.34079676966060785,-0.3566568158319412,-0.3657212085048489,-0.3608512560101341,-0.34462380789827785,-0.312555851720728,-0.264927453434583,-0.21765518486015692,-0.18295648792246522,-0.17899251970898372,-0.2081815003092219,-0.26651890420388347,-0.3349838130098664,-0.387457087488559,-0.4184048988975392,-0.4319629254247604,-0.43560686852231106,-0.4301411455892745,-0.4195189107630229,-0.3923678261818744,-0.3417982851129175,-0.26303492531794637,-0.16949278577427557,-0.08178209056260906,-0.029234996460514702,-0.02292575434346776,-0.04990729712261415,-0.0761236746764333,-0.08684803716197073,-0.0635014024707478,-0.012100085425554347,0.028314698783615002,0.035086326173642955,0.019739689900840993,0.007504157052834844,0.003783333823247359,0.002796408885570931,0.0018640543128277847,-0.011464441325425347,-0.04277995120878842,-0.08082643536464126,-0.11288061910063311,-0.11231238354041516,-0.062070218153929275,0.028597776403534107,0.09863741684611589,0.12055545639382317,0.11808564807935347,0.10951411939995409,0.10359142776350248,0.11079134835567532,0.14932148406875684,0.3053730927484639,0.8755420870042939,0.32622503620004056,0.21454052875156226,0.1730808154442739,0.14926836778526154,0.13153073601910117,0.11620720856468467,0.09866164155499808,0.07477687546715898,0.03307998012740623,-0.03903401791762942,-0.14390996382873017,-0.2707077103803688,-0.40571248400168425,-0.5327152705039444,-0.6288649489745137,-0.6796671479658144,-0.6897474103986407,-0.6831891609665447,-0.6787514462565571,-0.6743303531057586,-0.669714111494955,-0.668407094719456,-0.6683785808360353,-0.6604648933434514,-0.6410206706809259,-0.6166070556390274,-0.5973628394372537,-0.5804709475246967,-0.5485648674324612,-0.48847708232143766,-0.3979094805004941,-0.28576922124475895,-0.16336666163226618,-0.041971174522340206,0.06746534160167032,0.16124654959235685,0.2426291828361979,0.3224676469056271,0.4103796494790894,0.5235333946661545,0.6490878622526579,0.72908844292341,0.734710047030421,0.697551450274287,0.6693171943801187,0.6765971130759459,0.7192564402204846,0.7813556624782033,0.8373361847494649,0.8556167646322742,0.7867639922064141,0.42907381633057834,-0.38243520365418515,-0.7608648789493453,-0.865125930561613,-0.9017873503466916,-0.9140188713891192,-0.9118263883167486,-0.8910829124754017,-0.8378014421789711,-0.7113245058850175,-0.4390688856678491,-0.050003189845884914,0.2528121706458458,0.4226110777734766,0.5226736910123452,0.5860443004492869,0.6227092278609672,0.6472853156046303,0.6729681074410733,0.7002973258386762,0.7226221393315478,0.735042134764278,0.7396699105976176,0.7434592084605539,0.7495168063565818,0.7461690031664617,0.7055715684186844,0.6103130206101453,0.491867527873633,0.37563982091384945,0.24562362852038797,0.06563483747677228,-0.1854412248996964,-0.4447609661548081,-0.6197740457475871,-0.6993029165253131,-0.7239506020628554,-0.7341874320300985,-0.7524683374226054,-0.7728417100728224,-0.7793677006170483,-0.7637108677707202,-0.7344486860983718,-0.7084652223923579,-0.6960682693823512,-0.6913993093583938,-0.6771414678458241,-0.636787323569941,-0.5592706725671475,-0.45098472668173745,-0.33959451787831246,-0.2577610501126484,-0.1968713377715045,-0.1329281465474726,-0.04749836012428223,0.05979229532171799,0.16024328754089406,0.20777522597132006,0.18865394329726276,0.111764927482669,0.007656309978395759,-0.10980678318782777,-0.23338839455560353,-0.3504915357596847,-0.4147432300974267,-0.420222107015904,-0.43172608615888225,-0.47479866324036013,-0.5113912368808439,-0.5153131284292302,-0.5218450915015329,-0.5813447388233433,-0.7034321856360017,-0.38575242041566515,-0.07588917406684285,0.08580536210015262,0.2226836509347684,0.3724402095362971,0.5333565161903164,0.68266067517782,0.7897667401045252,0.8434003326225636,0.861833542442905,0.8672775650102423,0.8695623451179619,0.8695437542386337,0.8646269828852959,0.8510645503139258,0.8341784103528753,0.8228481203315838,0.8203063713870243,0.8220886728131958,0.8191154561679851,0.8059451449764996,0.785193715278233,0.7556816734136514,0.7185605331054024,0.6732749996950262,0.6294322923515921,0.6120708426129842,0.6293038064083045,0.6631433087053625,0.69605998913519,0.7024601299818313,0.6445127914490067,0.395424741140915,-0.28741364354942806,-0.7953571493189654,-0.930684463509335,-0.9696367904606198,-0.9830496956850654,-0.9887004745926112,-0.9921006714506204,-0.9947405323298841,-0.9960258193519291,-0.9955252998081617,-0.9929895937536654,-0.9879294919090938,-0.9789542928708063,-0.9649284295481627,-0.945161471860661,-0.9209673049273737,-0.8924411258464661,-0.853443661220536,-0.786306271388657,-0.6546082723064484,-0.4141724019444523,-0.10736579055343944,0.15621890281511733,0.3474163885416299,0.4881413284815442,0.5864444421899974,0.6382793734372947,0.6467910542555158,0.618657241338297,0.5481854891899878,0.4321072086719293,0.3080135425829157,0.23777858089804732,0.2604626479751664,0.3757172306625615,0.5524574019714343,0.7211884100144961,0.8311686274590219,0.8898544043853692,0.9177473016465368,0.9294625761937335,0.9342283206432258,0.9339381627504253,0.9279541653961001,0.912789709160302,0.8832558157766358,0.8416085418385382,0.7958127149152492,0.7598281302449332,0.7386494351157905,0.7286863822554089,0.7250515146621561,0.7236686476619734,0.7112132760906266,0.6840653401445709,0.6351886301874123,0.5646375797599499,0.48593947780876623,0.41666638804906936,0.36824195293913325,0.3378226766507567,0.3185006191289779,0.3070783990597305,0.29679917070081746,0.29119364226205413,0.28830488360647055,0.2754768859217009,0.25409527396655124,0.21496406906186163,0.1663372303321943,0.11572323822587371,0.06121225531396999,0.0062355153237499145,-0.04296691216493864,-0.08830755020739563,-0.11631288907704825,-0.1195299395548997,-0.09371604236709451,-0.037816611306999405,0.048554152232970174,0.16311684070861143,0.2830490838958988,0.34747572687205996,0.24960922784841547,-0.1699098555829899,-0.6308765970424061,-0.6969583236192174,-0.6542039068311002,-0.6522259677567696,-0.6947493009968841,-0.7570615397358123,-0.8306646816950548,-0.8929566053294521,-0.8929929304787197,-0.7965993713587172,-0.6491594376732357,-0.5155130713498192,-0.42004577967993795,-0.35544474214357846,-0.2936106323024256,-0.19376521632441046,-0.03736656671266583,0.14260726601974402,0.2949990173858428,0.4030319616888226,0.4742106179697499,0.5164499267075643,0.5312510671833502,0.517040215307988,0.4622075402575019,0.3410294817793874,0.1284872606216795,-0.13566439450110335,-0.35641913094604194,-0.48285378529283035,-0.5206553861908366,-0.48668055207414757,-0.3891640247644991,-0.22411213427274176,-0.009400313433325938,0.17522821332420063,0.27247025176417705,0.30299272050025716,0.3125289065589192,0.34349131606301647,0.4110550272687509,0.4856362853330293,0.5075360194581902,0.4098993191725564,0.07979509028492157,-0.4243645885699517,-0.7348958589675533,-0.8506758099140879,-0.8900100756251123,-0.9003758607560984,-0.8963704904948576,-0.8807966952486436,-0.8497991429183079,-0.7879745170548756,-0.6598112613233538,-0.42451358211747175,-0.12334273256524209,0.11103548741768735,0.22699959107526999,0.2622661980507462,0.2666042669049435,0.27127222598884365,0.28900207565364056,0.32388591896247165,0.3786096311366928,0.4460753594266273,0.5176637402085885,0.5855619606923037,0.6391974880947273,0.6786863888238709,0.7032346002530628,0.7161978382441031,0.7258739080909946,0.7408521121440781,0.7628572218215396,0.7896827357500699,0.8181403509845641,0.846851182643678,0.8694964436584967,0.8871362624386189,0.9008061648591724,0.9091698967814248,0.9124150360007098,0.9089616735295718,0.8888209723188587,0.8376188532331761,0.7498776667762272,0.6185874804359228,0.4279082841164329,0.24092793096813211,0.12515748592715942,0.04876759398163819,-0.027122163516966835,-0.14033369764543063,-0.3161121574376527,-0.5273241430926869,-0.6897979868907217,-0.7639292969410193,-0.7650053155101908,-0.706695363168961,-0.5764013115308066,-0.3527164911211394,-0.05772134417074429,0.2135360219058247,0.3848225842467016,0.45704237139934717,0.46232710484912615,0.4176127393031277,0.33568327570249085,0.24843676530655592,0.1965236208974869,0.19337936503291406,0.21056032376391304,0.20680802924445124,0.16969842809474794,0.10744908871579169,0.017075535891992365,-0.10427816973962194,-0.23076272411850599,-0.31023620752233133,-0.3021321063355591,-0.1688359969060656,0.09244482181527285,0.4058939329076441,0.6661444551200855,0.8319935173785269,0.9098244149554203,0.9111741134007013,0.8691970277337621,0.8066647059367281,0.6879561784251695,0.42766298778661876,0.05572694417685755,-0.21469897560045678,-0.3430293611214435,-0.37908296627142685,-0.3408553791238089,-0.21740404750554912,0.005021134664153962,0.29126982690917264,0.5259423263705865,0.6528673489921161,0.7009868101949368,0.6963031746440639,0.6201387867592815,0.40058135093455166,-0.030357461196808138,-0.447861254232216,-0.651927835498257,-0.7171835893163631,-0.7105621640836158,-0.6475385871566187,-0.5373918782816903,-0.40520016282785254,-0.29966692873572487,-0.249716118952662,-0.256819698807617,-0.29349204336202955,-0.3399801176961441,-0.37335392374270265,-0.36996084901260046,-0.3127771109266989,-0.21498010754933972,-0.09111235299402475,0.05178446347761303,0.20256693135446582,0.3480381879829972,0.48151364293938903,0.5923684383462313,0.6732800914665095,0.7306402637874155,0.7729430580516494,0.7903948840452292,0.7553133354735841,0.6461798808819411,0.4767213348858022,0.2994747190230209,0.16764125264851376,0.08678663382160362,0.02446440820213008,-0.0525593283323668,-0.18014760884733247,-0.3769103055057439,-0.589987813879479,-0.72998904708951,-0.7802510382305917,-0.7646831204836714,-0.6867999051952777,-0.5174277132026366,-0.21134566883202582,0.18544154583735184,0.5023437914138372,0.68044920433318,0.7677717099875644,0.8068091358042477,0.8170539487124268,0.7977630918933523,0.6919314141636338,0.17533089292660514,-0.6466029926488313,-0.8340778011704659,-0.8647737515975822,-0.8643591373636995,-0.8514330954286884,-0.8296750504557141,-0.7924984029175728,-0.6944725291253561,-0.4428859035320331,-0.1359956725944839,0.040516988303438875,0.12149821304085083,0.1602262303307677,0.18030327495916418,0.17986323127525694,0.16507566028086934,0.14614851971328927,0.1306125315061131,0.12122562528823719,0.1167263305568398,0.11423834239964341,0.10404398722587269,0.09290914469547291,0.10207218890761678,0.1441839374112669,0.11641427080843346,0.1046963785862365,0.11011964940442111,0.12547497876486396,0.14865749514201917,0.17924383922758996,0.2187810770046672,0.267754835411065,0.31928300829469375,0.3572720304632664,0.37990810452259643,0.40109550215174233,0.426049090108746,0.4608426759783507,0.49332743757159614,0.496922182681886,0.43745100476926735,0.3303574068743326,0.2516456414678746,0.25622029769425236,0.24910792397046685,0.17411108120988336,0.06399960412826233,-0.015032188054595835,-0.06470034645097748,-0.12852735297045687,-0.22148028424864316,-0.30751063621902036,-0.3753771031733498,-0.43862894350524945,-0.47133956647507314,-0.42996869683976396,-0.37569806737287736,-0.36059858567552866,-0.3738562126649697,-0.38702703857593374,-0.38750974959535,-0.37193233389882874,-0.34399109964391583,-0.31607760817404734,-0.2844130270563928,-0.25078892831437966,-0.21648189162146503,-0.1861988209740978,-0.15653161023309153,-0.12330005319629918,-0.07826039388566372,-0.024571175913572007,0.032230137279523445,0.08049603992673056,0.11302478408018249,0.1282212370061451,0.13262407965236733,0.13921715709413732,0.15195872930150545,0.17382089071633464,0.209454206658393,0.2938466126455021,0.5154613490072358,0.898450963116829,0.9250610628358714,0.8663444738259752,0.8705118477392121,0.8971948156460176,0.9188359291680778,0.9182443682094085,0.8840076466060777,0.8143727282662374,0.7153614396854322,0.6012303252287075,0.48818991028914527,0.3970705152788395,0.3313589214162047,0.279971343719558,0.22959134258957756,0.18381301466173458,0.1468046323582946,0.12311292129599,0.11072342539644976,0.0868644654154849,0.02660550306967496,-0.09531769269167338,-0.291260725477377,-0.5137520424469411,-0.6798412296293654,-0.7752929900037566,-0.819562440878146,-0.8291966766865433,-0.810171443075549,-0.7612802368358351,-0.6823423946338747,-0.5841536442309033,-0.4879791773731915,-0.4061939663730496,-0.3366829867212212,-0.2654778502309503,-0.17168676603498,-0.04153503686355321,0.1117126242286262,0.25858971741852027,0.3751870937906596,0.4427379515393985,0.4518949051065444,0.40972047313555304,0.34213745171899507,0.29195937855346754,0.26786968976771663,0.26246421594616776,0.26589206341350646,0.2801839114485125,0.3020243583629942,0.3282153359729109,0.35523663057546545,0.37985417943677097,0.3943898630121579,0.39668356286115813,0.40395393298787324,0.42013442198888046,0.4488904435769738,0.4811271328618739,0.5065704142084102,0.5000043708890042,0.4236467802735643,0.2632566372875157,0.04108692762152289,-0.17871288248362882,-0.3591520431881187,-0.4956908585549991,-0.5916056692975729,-0.6495716891704236,-0.6737559549780423,-0.6840404988094271,-0.7173914143365496,-0.7901668100911953,-0.8710035277662601,-0.9290907462926717,-0.9592837368266772,-0.9708315668514256,-0.9723299926868798,-0.9689525283708921,-0.9643588075857217,-0.959611952649802,-0.9514199508831419,-0.9323052400284428,-0.8848583588578105,-0.7663034170481653,-0.5044012522581772,-0.11209773707777773,0.23995010516935988,0.4558335907806377,0.5714557145219539,0.6332124138023307,0.6616097999855359,0.6608263371827396,0.6152754347326096,0.45899718380286086,0.07079865226411018,-0.36763978172926126,-0.556325050197693,-0.5551907079448318,-0.4121158441176806,-0.16445543006223726,0.10064076662698904,0.3138481404035873,0.4679109668234395,0.5818699551282501,0.672606420731015,0.7465973993950856,0.8021243721474365,0.8411935110011667,0.8706169867189464,0.8962682504109363,0.917886792038213,0.9327713245337081,0.9389629457233947,0.9366525058758631,0.9265751061752204,0.910779284700669,0.8949202798457778,0.8831981736110397,0.8754790104447143,0.8711055721066544,0.86876988714728,0.8658429653755324,0.8571174269335006,0.8406277829364941,0.8151023905960129,0.7832686216376141,0.7504753033722881,0.7220635381584455,0.6967088662941125,0.647646200899814,0.5412997579083012,0.3496481023869581,0.09560774691016172,-0.1340403186718727,-0.27734928244526785,-0.33694306065377294,-0.33901304925074616,-0.3070317679900812,-0.2594280861820782,-0.20369900698469776,-0.14821638547195223,-0.10796647778699384,-0.08980166701462444,-0.0873007737478386,-0.09765262244981028,-0.12444118326806759,-0.16566735580758413,-0.2149152628673902,-0.2577379780895112,-0.2826058542029831,-0.28947948861822487,-0.30420154786665005,-0.33564443525575843,-0.37209414974967514,-0.3880406125050383,-0.3780056532300663,-0.3550562928840436,-0.3293506947462661,-0.28811544827902313,-0.221429132118601,-0.14450791595584747,-0.06124725702316804,0.014684497939009354,0.07409412585990068,0.11007825834594386,0.1356382598064195,0.1532758352459218,0.15193167058184845,0.11827090753788201,0.05551974193767863,-0.01318556450519727,-0.059254327843215715,-0.07973671718665136,-0.07890855214146071,-0.06945554564656603,-0.06650222364621856,-0.07229945990987005,-0.07816649084540479,-0.07057404769477389,-0.058968931833562846,-0.058396360070574284,-0.0801104111271157,-0.12105206662998744,-0.16640507530516982,-0.20884498234108703,-0.2383061509096653,-0.2662362893929427,-0.29551091316368616,-0.339168827010066,-0.4023509416171776,-0.4801476028757801,-0.5638506779578738,-0.6410299527192226,-0.708835103448975,-0.7763759104951057,-0.8356771014326252,-0.8831529105537083,-0.9049282010687569,-0.8832796386380432,-0.8365078160279661,-0.7850770967929678,-0.739010500982168,-0.7064469081467061,-0.6855714343113986,-0.6659719883696545,-0.6441490552994619,-0.6107279877285383,-0.5649128227871516,-0.5159856387576993,-0.4733174988673941,-0.4450821712752046,-0.43108281136579135,-0.42758579190358137,-0.4240531508661338,-0.4064887301885342,-0.3636480048220215,-0.3057775777145438,-0.24966536231090364,-0.20048034890137467,-0.16703586454832411,-0.15264697835110858,-0.1580513419954321,-0.18624673575095455,-0.23757249027747213,-0.30670864799286013,-0.2975273032571358,-0.15580456385245622,-0.05506855597579014,-0.00011111845077511601,0.030621936254259696,0.050667073393799174,0.07977881806704659,0.14800839271670196,0.28763802092566726,0.449623652175906,0.5310384207008615,0.5365230580528858,0.5173548544912289,0.48803951719647476,0.47110775847474445,0.4789058387058524,0.5073599435248434,0.5494064028943139,0.5764337869027295,0.5734550651554206,0.5462568795386304,0.5165783020962789,0.4878123714696566,0.46231186390242984,0.4395862996773497,0.4230765763358264,0.4056268493753773,0.38264772419649834,0.356477916223509,0.33780120930488694,0.33629967741006594,0.3508545727904796,0.36823844519486487,0.3804082783225033,0.3889817409162722,0.3993193665541866,0.4088705839423048,0.4091100726982314,0.3899065910378046,0.35918630069510366,0.3288628534040348,0.3091560542760578,0.2940160115814932,0.2794354723061625,0.27035543937125744,0.26081410635116814,0.24697845743671548,0.22728598959675464,0.20536853247069664,0.2041912602563709,0.24181907465704536,0.29999088678140184,0.34314144965765264,0.36211628243248595,0.3785907708547008,0.38535845297641314,0.3550036539467444,0.2533159356030521,0.09356836156448378,-0.03718606278250688,-0.10145816066828897,-0.12177928587244341,-0.11962015946870266,-0.09995968534394775,-0.07009935027895331,-0.049882662878569545,-0.05783966420742643,-0.10354734519151175,-0.18133236633710625,-0.2739453583378153,-0.363262184938279,-0.4365076229972703,-0.4808380287197041,-0.499317653077996,-0.5031913682831359,-0.4991660954860844,-0.4927203204029266,-0.4871827343871848,-0.48073381814489496,-0.47492323170857326,-0.4665327001377076,-0.4381561391646906,-0.37326787371616305,-0.2716496146809474,-0.16013854872130506,-0.051005167567681836,0.06064457480387541,0.1879891748409957,0.33682173261775955,0.5388912645346766,0.8037000759889683,0.9582794707410867,0.9514788472273762,0.9212743517212931,0.8993617706680119,0.8758192473252405,0.8473514937960902,0.8201338165685627,0.8033342323212772,0.7963668545001913,0.7812518883849143,0.7141251698335245,0.5357146827830739,0.2666085698725022,0.04156922375147988,-0.06512903235767423,-0.07002397372345395,-0.022479160518643234,0.015774514889380725,0.002770441295826592,-0.058201240271587164,-0.13327345167885424,-0.19090126507623095,-0.21513548410083222,-0.20634783691763314,-0.1871978860715894,-0.1800734564929722,-0.21455726060255867,-0.307299092345615,-0.4404916795703098,-0.5925939459591454,-0.7228277052940564,-0.8023788599368634,-0.8424528182914383,-0.8704062225218736,-0.89947801027617,-0.9272265046851075,-0.9467840897474763,-0.9504524034101456,-0.9160773123105153,-0.7417635568823351,-0.024533885043218934,0.6367600960879513,0.8160457452043587,0.861876469441713,0.8674503747467166,0.8497458438453527,0.8031952526789499,0.7002263539577277,0.4686868050487533,0.021545280352496535,-0.4479646687156372,-0.6984357730363457,-0.7987269836800915,-0.8261882788653747,-0.8075062626425276,-0.7369411472487759,-0.5953674354019854,-0.3900573843392283,-0.17470604157912684,-0.018749478511327265,0.06864478159063625,0.11186464023447423,0.13145569706810242,0.14026055618688127,0.1561466053204439,0.19041682610644167,0.2427672059599533,0.3054573108241433,0.36561268905640526,0.4177316732875095,0.46347111088320464,0.5087190289661652,0.5486783271287897,0.5784316106735788,0.6135253311414147,0.6515245987236676,0.6878510770755362,0.7162305512109072,0.7331855976078581,0.730054598130622,0.715816588600765,0.7103660196960069,0.7195636506565316,0.7237637098014392,0.7091374862736992,0.6817111344179032,0.6506535373393763,0.6201252619581351,0.5896836562529687,0.5624018815636578,0.5443638349295186,0.526348924163104,0.5013915927563022,0.46068923069649403,0.4021817975983009,0.3395068359627896,0.2877430681181548,0.24974380512323324,0.21891285809954453,0.19341642727494177,0.18143769230894533,0.1869118016184664,0.20412090171683114,0.2296377859004408,0.25637770468652993,0.2779672394538692,0.29765232245960427,0.31293149810012133,0.3219568344064785,0.3372335517565412,0.3602300504139123,0.3901664814111905,0.4251192156912703,0.4692074106622211,0.5198246922570214,0.5697003267951066,0.6027639845170486,0.629738637603417,0.6506743741733685,0.6745284865161414,0.7062436542791622,0.7349986875933896,0.743135365912974,0.723194146799809,0.6825341644229568,0.6336964158675782,0.5769419883956289,0.49275993440913485,0.3207952296885909,-0.05087522194070292,-0.5364000537001479,-0.8006870810605042,-0.8968267740635013,-0.9339857745116227,-0.9459415175952227,-0.9353245885263748,-0.8889179384625657,-0.7967639655156921,-0.6737068524092636,-0.5522195462036356,-0.46351879245566546,-0.43467548594329375,-0.5022033805257119,-0.6759483962589955,-0.30249364173979615,-0.10630647121801376,-0.030519384400749115,0.010966426160519927,0.04121093561533936,0.07009540333456815,0.10974924699723676,0.17062429642998442,0.2329300134806183,0.266382765324176,0.26843135166942944,0.2847815572445969,0.3353604943242099,0.4137494056586051,0.5150408918687348,0.6178230203204643,0.6821265178656407,0.6959031302544012,0.6805859295175738,0.6490054863055149,0.6116893432934535,0.5821617176664116,0.5589087888037128,0.5347840388544993,0.5091059815126516,0.48489019860588595,0.4609624251131762,0.42915254271036096,0.390992338460676,0.34801706489627526,0.3020285079662711,0.25450072691404313,0.21543231820083897,0.19659717684903352,0.21188458755787518,0.2926255297108699,0.34318828372088817,0.23875464067603774,0.19733276398310234,0.19478274365895198,0.21215840092440413,0.2477944834297265,0.3026935548017851,0.3665482633804304,0.4146153375057105,0.42524327475316454,0.40531333329708,0.3766072865984898,0.3425511480094555,0.2997104010928872,0.24250907670043068,0.16665413263917198,0.09286886208907903,0.04765484359651322,0.06683535317129066,0.17836423926968903,0.15295443494877606,0.07294408826402132,-0.054605499581464316,-0.2302566432345725,-0.3506444718655921,-0.3208820810680043,-0.21601282660420743,-0.12472851113141839,-0.07552960206186046,-0.0667226433588606,-0.08605074294168251,-0.12172477710385908,-0.15229453014594593,-0.16691785396129233,-0.17133706082214953,-0.18104992591663627,-0.1909063687924978,-0.19877734731298766,-0.21205504261846805,-0.2273661732555431,-0.23606667404698697,-0.22657092218197417,-0.19962092086117988,-0.15112500828516928,-0.08444543384442355,-0.00827616723656082,0.07120497387133128,0.15664813777317937,0.23547824761794897,0.29602147319917893,0.335958507856078,0.35399797700352165,0.32937817746207115,0.22020782622998367,0.02116122651380317,-0.1721676980501703,-0.295411424943019,-0.3676411772896513,-0.41590529639782164,-0.4541468575461608,-0.48048035755885954,-0.4934218235051356,-0.49935056939778716,-0.5071350439736956,-0.5060084662829099,-0.46998063915253957,-0.37137747462508425,-0.1779961471835644,0.11265042623843145,0.42022033697232264,0.6295344080053117,0.7435335624259036,0.8039768607967132,0.8360245638219966,0.8362948385368733,0.7627444934763064,0.5698136933076157,0.290017055502799,-0.02377104338162662,-0.3340916532421868,-0.5548108738595158,-0.6498036068416044,-0.6717487280338243,-0.6681770751929973,-0.6522988987781763,-0.6112047334466776,-0.5100375062252437,-0.2922668234387357,0.042114261218450195,0.35123268141505387,0.5523368905834265,0.6557009603567772,0.698718158883166,0.7070822526427113,0.676980377340517,0.5805465246614544,0.3553389524027662,-0.00859293173372195,-0.3843531011356746,-0.6224572524631614,-0.7450729030898807,-0.8190713027372414,-0.8744839865980116,-0.9138865823478002,-0.9378910874139494,-0.9506419199755807,-0.9559660957479816,-0.9554092633287958,-0.9470856638838901,-0.9226322690779788,-0.8580418199087433,-0.6735717088717863,-0.1754050884957987,0.43440139065056765,0.7109407579363569,0.8079194402012249,0.8451161005337342,0.8603240004383456,0.8657481635259295,0.8639421095487234,0.8533088782183039,0.8295221651926707,0.7870799376008007,0.7192569409708353,0.6157284927794231,0.47529915816466245,0.3253218340131552,0.21442491048916165,0.18787926390464876,0.26008402988420193,0.39075805461908014,0.5289987360416114,0.6398497368276166,0.7147371675414315,0.764711800105858,0.8030223079899389,0.8398969269248967,0.8707202736448963,0.8867090691053491,0.8919910154085334,0.8867940780634034,0.8579941309111431,0.801342893109967,0.7557460839545237,0.7409512925602129,0.7345449755425109,0.725685327485806,0.7122328863742937,0.6915249980639717,0.6639216680388887,0.6240838970531296,0.5719856784841745,0.5128296676612624,0.4581448325601369,0.4207412903776505,0.40461908142515157,0.39023280740277755,0.3568671505826703,0.30462227396597746,0.24645067457176406,0.19705674550115201,0.16474183749043594,0.1508822056971003,0.14826399474921031,0.1289437659416276,0.09617437887925383,0.09007886567051812,0.09858814510623302,0.10575054912323856,0.10774523442148204,0.1028717742699436,0.08700374393371747,0.04462504649788706,-0.04489602283344286,-0.18652397469967888,-0.33632705013647574,-0.4478581913419713,-0.49077551686184745,-0.48571697633706484,-0.4819816685663346,-0.4762145551062656,-0.41692378914116157,-0.33379562224909254,-0.28655264037498357,-0.26494961158424263,-0.24745396445670462,-0.23074824675146663,-0.22245966454028623,-0.2361152025448314,-0.2928355586169672,-0.3378676915792761,-0.3089252754090449,-0.30317998933620693,-0.33112406771584135,-0.3811365056184204,-0.4166658287891894,-0.40104713760232324,-0.39072811962032133,-0.41491210687183694,-0.46378234950702263,-0.5007787938017662,-0.506645347121423,-0.4967913601189582,-0.48980669756453055,-0.4804450819080234,-0.4489097719876843,-0.37818676680811913,-0.2963664203251083,-0.23657992927967111,-0.20820234758976738,-0.20431801520430584,-0.21697216722214085,-0.22434819721968705,-0.20963544595066766,-0.16102823530348237,-0.08846234928407197,-0.006082862872263699,0.06009126419955194,0.09376640144192079,0.10133812424571267,0.1011213588500022,0.10409101092132034,0.10746989533194846,0.12083499501541474,0.14966205541740435,0.1879815460992869,0.22170696655939592,0.24176367260063245,0.24222941313789823,0.2332419132311566,0.2142309173974171,0.19102097109637362,0.17469915998243238,0.176697453285927,0.1976618014828365,0.23291302230090793,0.27884263413076166,0.32033391008485895,0.3472912050646729,0.36425167550728627,0.3679801254377741,0.35232881329440824,0.31692553980089594,0.2633787172936917,0.20058472712364447,0.13122449331250935,0.05965748931711686,-0.005282315854562032,-0.061300098944375485,-0.11532184838931038,-0.1985789946173855,-0.3208113935690958,-0.45937832361372616,-0.5723007652318959,-0.624694395374928,-0.5845670761760232,-0.4377755025976661,-0.27366354716079144,-0.12407236833059951,0.18996941079794483,0.45129656029979875,0.44277400651259735,0.4853495285300334,0.5869181852664076,0.7190218551463686,0.7809540940817667,0.7558629360720373,0.7370170613056677,0.7745517222159978,0.8591319327551824,0.906383699654986,0.8443511885056386,0.7546030794079069,0.700756405872902,0.6899198602100486,0.7115744882028024,0.7481076013519142,0.7843352081031181,0.8103981310956191,0.8212610156542387,0.8049186031109368,0.7229392587244424,0.3683725610398808,-0.40595217634508574,-0.7029972820793292,-0.7726394651349922,-0.8005571048201755,-0.8235071150091897,-0.8529371448148089,-0.8953877450713599,-0.9484530171676183,-0.9909256345339504,-0.988609809629162,-0.9323606273200887,-0.8491965879624535,-0.7639246013127553,-0.6767129750914667,-0.5602850099944169,-0.35249361371991245,0.02731167460359412,0.5024321050212515,0.8141890078073194,0.9419793674637473,0.9788513345843197,0.9773199073633135,0.9641924651868338,0.9519348119622246,0.9448431055541842,0.9412937400843152,0.9381288603311053,0.9339475021204794,0.929425775119432,0.9250940011853319,0.9200937339945625,0.9127583646149278,0.9016958261578831,0.883731005595009,0.8549840306850256,0.8109913182831023,0.7519969410098024,0.691907523907526,0.6461560378137403,0.6139042557251164,0.5817652406853936,0.531351972774541,0.4561366390822295,0.36160457945751445,0.2577595990532473,0.16713849896894484,0.11039149885496784,0.11005935471376828
