0.10779982638445071,0.06968642704417677,0.02803741927603387,0.006438263624308787,0.025111395373446376,0.11433904782565285,0.25278479443546054,0.3675875680604265,0.3980151948979174,0.27699630723188123,-0.03929692703831581,-0.360861188791468,-0.5276461874180001,-0.575625550721547,-0.549367678016889,-0.4531694791794056,-0.2760821234156935,-0.03301262833373621,0.19832856803829563,0.3407233753927769,0.3966035769794377,0.42824413628092683,0.47509408025909294,0.5391568637400794,0.5991314211104539,0.6134602486302967,0.5612669456347585,0.47405468093113656,0.398830394383545,0.36053047575619007,0.3713443510870234,0.4261662669995793,0.4029470393540439,0.2224122545599534,0.041084966092064946,-0.14853495534456,-0.3658320287039148,-0.5806193823315633,-0.7492630955477387,-0.8593452907141543,-0.9232477753983871,-0.9560447269987443,-0.9709407975547516,-0.9768817751782919,-0.9794664332507197,-0.9813979804160018,-0.9825910218948332,-0.9809833563357463,-0.9726129905137413,-0.9451129136042942,-0.8474956567394044,-0.565767793439562,-0.20765351366191595,0.014012226809644628,0.1266835357641551,0.17860862412986006,0.20136432829614243,0.22893384482063941,0.2949192295739697,0.44574494685830063,0.7151711972815665,0.7925231635862658,0.6820943293696868,0.6353305629413623,0.6473852896446024,0.6706850925821298,0.6614873170495646,0.6401097675979419,0.5917253793944508,0.48406515588781973,0.4028626039986886,0.37262653501482446,0.3761129859754895,0.4039233819206291,0.4522803740984326,0.5117228963764509,0.5656783429098187,0.6096849847556662,0.6471622344261975,0.6828917022810104,0.7127073807965175,0.73295038740272,0.7445383170385529,0.7454333737687495,0.7270875403543849,0.664590081426646,0.5082051409360562,0.2607966055102081,0.13463023121213447,0.30532216126630013,0.6480890356845048,0.8515906053328517,0.9308984505938244,0.9657365921271874,0.9829152794315762,0.9888312907478549,0.98629594189946,0.9779925471268801,0.9640508973258226,0.9379953633000578,0.8817024675068525,0.7584965660946535,0.5009963773473667,0.09059439473850583,-0.2587002972249199,-0.41719643005481205,-0.46293203414802553,-0.4649929935196941,-0.4706188646998971,-0.5051901953179513,-0.5747615549509547,-0.6574291917031501,-0.7253525016723411,-0.7696070415022677,-0.7940792171511224,-0.8075926021012515,-0.8154688910051074,-0.8161132073921831,-0.8042620480590922,-0.7794692098832829,-0.7428523869183732,-0.6866410290655182,-0.6056506303300059,-0.49830767007585874,-0.35217218856552557,-0.13930775999122957,0.1744500539228566,0.5169470012337989,0.723230321639187,0.8002576117399821,0.8112486369464781,0.769304373576939,0.6819402580312619,0.5798112942226302,0.4792485123465837,0.3902029754622637,0.3265457345023186,0.3006478142935786,0.32990122888490153,0.42828618957523307,0.4408318034901954,0.29412900199400605,0.16000255638315833,-0.042039348721607875,-0.23687874131227524,-0.36394081394454264,-0.5418385705714858,-0.7583268311701926,-0.49213930340569273,-0.27697543886404347,-0.18814182206030391,-0.15368486124217937,-0.1495133450234765,-0.16986806032884336,-0.21469156627767774,-0.2811538023744365,-0.3547578704128687,-0.4151852333702272,-0.44662359882377317,-0.44361808088197985,-0.40522176028987067,-0.328219106111049,-0.22726037841882632,-0.13440217258113196,-0.09133763992145146,-0.09836392564439765,-0.1076035610449452,-0.045629334545232665,0.10723330495223586,0.21633346724572944,0.25597008958835965,0.25661648867587583,0.22945445357037625,0.18517260731436322,0.13502571633235882,0.09226463944161926,0.045059339987089365,-0.10271432747607599,-0.10250362574702128,-0.09329563765685128,-0.08309268002622335,-0.07622664007615816,-0.07665969890027226,-0.09490620992440023,-0.14654094215877975,-0.2413560203834696,-0.3495724861020468,-0.4224920085934819,-0.4450157434328651,-0.4278724394115735,-0.38006329607479594,-0.3128641065019791,-0.2327110624025317,-0.12928490898542486,0.01876421106486348,0.20509546799428108,0.38648858356915816,0.5273431808825603,0.6231142370235809,0.6822382443212471,0.7147011367035979,0.7311799725887402,0.738151108654729,0.7372838382326419,0.721641978896864,0.6792272590337055,0.611662469442888,0.5159244010479087,0.39702187579033327,0.27770316484998203,0.2003636685704859,0.17965701918754717,0.18912275192577702,0.2080237861011136,0.2119060709326159,0.18955750370098234,0.16007467132067998,0.1585658376520088,0.19821887533808447,0.26603435434449413,0.32523909573752796,0.3417377618138644,0.31809480959766406,0.27401506084803406,0.22243871766808432,0.17573745200306226,0.1482721399835799,0.15454164664213116,0.19507384330704663,0.24937064178418075,0.30271287513786216,0.3339256615730294,0.3313866564077334,0.3027673389565713,0.2690283053179119,0.24696391055082847,0.2489786549018349,0.2623322978448638,0.27044549364192816,0.2650122497132958,0.256079152859134,0.2543233749526592,0.27072603340377155,0.2939413945210034,0.30209675549297826,0.27855542902583025,0.22186992558670132,0.11594631898147478,-0.0151233726781823,-0.13124667352993288,-0.21387072390638912,-0.2798175137505943,-0.34136981902109115,-0.3924169536354462,-0.4254566009951852,-0.4490077773022441,-0.4705773905492002,-0.4917572086657745,-0.5063614324423212,-0.5049897237974669,-0.4833535083807373,-0.44692245941019315,-0.4203520982591375,-0.42316556598095345,-0.4596390744358112,-0.5201377636814675,-0.5781706568345193,-0.6157261845259192,-0.6263356432004012,-0.6044086917076511,-0.5467555563162507,-0.4686372416827073,-0.38396859857821314,-0.2795821543172491,-0.13132195088477153,-0.027146343334317022,0.025235306642027052,0.06359780087826114,0.1200682415946643,0.21676766746390416,0.3088139233710785,0.36895109206973004,0.4297772503849604,0.5068622127564886,0.5839101472817074,0.6469390054744815,0.6893464814247706,0.723574602315798,0.7614513192009729,0.8007857116108692,0.8311409539405711,0.849917744475979,0.8610115043798027,0.8656783181825848,0.8643582688712298,0.8552648408490522,0.8380963703461255,0.8115062565820172,0.7761760038970186,0.7331781840269548,0.671946194033691,0.5569469433034615,0.3305388525936715,-0.035308247658819375,-0.4366873607476629,-0.6913635697733679,-0.8069293448126044,-0.8534828070169451,-0.8674965109380068,-0.8604041362669019,-0.8301552631601398,-0.7657210866998566,-0.6520942166900277,-0.49318752577172875,-0.3162455756662941,-0.15626036482189845,-0.027329772127527092,0.06563435718482177,0.13009666394256816,0.17088559213121485,0.19595715578749215,0.21971188282593623,0.2438162016530504,0.26311829566701267,0.2695503074770457,0.21763408508944432,0.0969282096218547,-0.07936738047927282,-0.24693369962230044,-0.35430264096952785,-0.3844430563938194,-0.33585961020175925,-0.20107239512912425,-0.021304037237563488,0.14679379198986114,0.2715911748321877,0.3420413713370375,0.35184422274658367,0.3065642758648657,0.24711237186609675,0.22999794986495928,0.26869845894354155,0.3328079627829513,0.38617381425055897,0.4240347872960338,0.4408804261606513,0.4379612291112333,0.4206070828660568,0.4037926296132842,0.39780374246693423,0.41072802160011956,0.4386330986150501,0.4764028695262979,0.5214559697569969,0.5780581587158278,0.6514567936437167,0.7283885780909651,0.7894303638263489,0.8290295360648933,0.8507021064222292,0.8551818823866196,0.8402937629241288,0.7964067418167872,0.7030431890927262,0.5422505893842385,0.34341627387238705,0.16724355018731227,0.03246307447414824,-0.07236354516173066,-0.174517372016537,-0.3137049736985873,-0.48694990572713387,-0.6188259670336705,-0.6947513300499666,-0.7773520103538578,-0.866580373902278,-0.927352680486768,-0.9560539638392841,-0.965551560015338,-0.964990621197563,-0.9585055331269658,-0.9460694526554392,-0.924914688328364,-0.8881465563555343,-0.8235688742568646,-0.7183530667313635,-0.5612264377876565,-0.3368330382756766,-0.045545055266931235,0.23620473239591633,0.42914912553782814,0.5474642427647821,0.6353672855767191,0.7248728742686962,0.8166584455452092,0.8709278846481863,0.8463452537609554,0.7731020513507245,0.7053845751593222,0.664546162536149,0.6519202788497142,0.6620542808140987,0.6869037676857717,0.7185448215143786,0.757120592463458,0.8016189047053421,0.8469796029290315,0.8832367895732557,0.9049269812681239,0.912259445969782,0.9056543996579095,0.8778833434221339,0.8095004137990209,0.6565083264960441,0.39139168529254464,0.14015962300131776,0.00909671834666627,-0.07748698796149471,-0.18762631777876548,-0.34355516653904705,-0.5208799711085524,-0.6639678333686954,-0.7441478107615175,-0.770605153764843,-0.7600789301185469,-0.7182306414013925,-0.6542814370418528,-0.5891864319789863,-0.5430183142884698,-0.5326556550380925,-0.5546174827501889,-0.5925109788452292,-0.6282122654767637,-0.6495725103262211,-0.6552115061198707,-0.6485051438182026,-0.6310078052125807,-0.6011093971885456,-0.5486791615373146,-0.4712435657255025,-0.3797614466856243,-0.26881018459218214,-0.10443890632567582,0.15561711935683642,0.4729053900916302,0.719767456291669,0.8454015842389673,0.8939956477871753,0.9044866798801703,0.8962655296131484,0.8750987053103344,0.8442878909593491,0.8143417378994997,0.7827715014023353,0.7229799314141808,0.5744255247192576,0.29337042813251674,-0.036468128249831644,-0.3017030052513878,-0.49120426575962367,-0.622811310670384,-0.7171259895689606,-0.7878628799553069,-0.8375926748085493,-0.8712132150019534,-0.894370464370471,-0.9060600348190436,-0.8916943498800256,-0.826343396438773,-0.7014531345492857,-0.5538358781402694,-0.4185887223031683,-0.31020411337360304,-0.2303204874128355,-0.1684991559065449,-0.1203607329962562,-0.08527815334110594,-0.05116744913203873,0.002852356763022038,0.11392252953531017,0.3160598600103,0.5560584478216872,0.7301936018842253,0.8235233848072026,0.8706075085116683,0.8935061869865752,0.9011050585659302,0.8990096156947535,0.8911156284804336,0.8818260147721927,0.8777897739412983,0.880395626973738,0.8851131670747164,0.8840063105406264,0.8730430276734533,0.8477413519154523,0.8005994137503903,0.7190855957155452,0.5976648126354569,0.446543423933194,0.31329554334575477,0.23310184209997198,0.19955580408966536,0.1886391816683439,0.1793957183073425,0.13626393158777594,0.01960981777125913,-0.17219160786884935,-0.36649913856179356,-0.48428560754854444,-0.5280585668618415,-0.5266417380783636,-0.4956219095958464,-0.4397586445330543,-0.3500416725333317,-0.22515037563567744,-0.09907783893693078,-0.04047350578636417,-0.11694927027850781,-0.31194747176182763,-0.5125821868686833,-0.6420766365069819,-0.6981914515437825,-0.6936647183308614,-0.6244418245054534,-0.49347725482346605,-0.32323298689365876,-0.13893322593596724,0.026545274018114684,0.11566576403971016,0.10178231358186678,0.013955617201711186,-0.09299896653301017,-0.1667230594048118,-0.191664953806862,-0.1644769488389362,-0.08151649868561768,0.041439698465300136,0.15140955112061716,0.19744689946753763,0.18928894306975344,0.16120056229456967,0.13693018726219652,0.11688733029552331,0.04010352811379643,0.044165967682282904,0.07323307815498184,0.11170617378070002,0.1531531685154869,0.18923295225584433,0.21085214371340272,0.21596096784635188,0.22031678854331818,0.23409210609568576,0.242611668964806,0.2185886757214514,0.1465110704558174,0.03452409454276372,-0.0678533826053986,-0.11285184911648932,-0.08408924317225883,0.0007350460880124186,0.1064394356678308,0.19597093267618684,0.26840375720789755,0.3364190248551875,0.39600439448917085,0.4298753994754648,0.42561970224961493,0.35246544404149177,0.18922048887022885,-0.05244953978355719,-0.29685682146092696,-0.42339350388406677,-0.4652730264266087,-0.45599291949495235,-0.35478949238841295,-0.21699318469487625,-0.1404871886145837,-0.11058858789296248,-0.10772975652121933,-0.1270212351522435,-0.18261811486208337,-0.3632048562405548,-0.434569737735208,-0.15635043207006935,-0.0843977871908057,-0.057558067611567815,-0.048222416911184285,-0.0480948135951926,-0.05092334641406027,-0.05287739962464802,-0.049592241356017135,-0.040900639947705354,-0.02742883037357453,-0.00413754639383353,0.03254146320765389,0.0774968819867079,0.12249188048005792,0.1593934166680399,0.1929176279279508,0.2332974643637877,0.302077927162136,0.43054772319983203,0.61017288320671,0.7408710387558202,0.7869319445059813,0.8025687412117654,0.7892449228931914,0.7206668443475486,0.5819440716191087,0.4038535199695856,0.24606066775229313,0.1379321189503637,0.07529370601603774,0.04623672316685145,0.03411264554340857,-0.0290240064971868,-0.14913391668982015,-0.20421300551097188,-0.25859183623582926,-0.31134669783739116,-0.3456458788471755,-0.3347799658205792,-0.25636692778576636,-0.1874526049416021,-0.24268504309503244,-0.4136158815717534,-0.6171010456059572,-0.764152077253222,-0.84125309321506,-0.8734151795501799,-0.878511240771246,-0.8642664496213777,-0.8297013367859308,-0.7673291369903248,-0.6695486663715845,-0.5229030487291856,-0.30381150060353357,0.0066858956411510635,0.32447332279719476,0.5543754453844009,0.7034950085446536,0.8078556561696928,0.8834657127725714,0.932355965022498,0.9587482902232867,0.9718127145090827,0.9765472721377713,0.9743562389884223,0.9617716043451048,0.9313591602934816,0.8706291291268183,0.7687866547394188,0.6053062037224223,0.3951530947111361,0.31386572388566514,0.3122043627407484,0.3024612023495799,0.24821953915947362,0.1344373961740059,-0.0368928236919833,-0.2468352825975455,-0.45370029376935755,-0.6205855919874335,-0.7392162279659902,-0.8196907919919887,-0.870844177004055,-0.9018317382540939,-0.9172588517668376,-0.9201716605237388,-0.9120025815102577,-0.8919730786611129,-0.8564285725575004,-0.7966185828302208,-0.6959645494278727,-0.5370623578573895,-0.3159941803465131,-0.05789675103491272,0.19680317385972107,0.41699409426183365,0.5817214056851208,0.6994571386348666,0.7846724920002578,0.8477708262486465,0.8941765884572445,0.9283139551178591,0.9505300224785502,0.9560689298539728,0.9480022812488964,0.9377747680823635,0.9316932818599296,0.9328533993412159,0.935438247422925,0.9337415006956646,0.9264744524457773,0.9149073747121719,0.8988321112088313,0.8779806944212104,0.8525192600465774,0.8213637592331139,0.7887242845582992,0.776269713112585,0.7921580653631782,0.8197304862740322,0.8362372998736662,0.8340680511476476,0.8095452635146637,0.7549159627622208,0.6547111271679162,0.48574083994736106,0.24195788598044926,-0.032658897175568996,-0.2665608586560153,-0.4314159022866293,-0.5325334557691425,-0.5833469024801308,-0.5997666332512186,-0.6019962942859481,-0.6060464246990904,-0.6258330906852979,-0.6635010716578507,-0.7039531879174208,-0.733812049596102,-0.7513287798409012,-0.7594716666177265,-0.7711121793130263,-0.7992789687064262,-0.8447670949029382,-0.8874986538805189,-0.920024464932477,-0.9405403032580654,-0.9472473342424165,-0.9418959000731894,-0.9258489970691819,-0.9044493319099334,-0.8844016071378683,-0.8637464793651889,-0.8373423880088117,-0.7973071299318882,-0.7231358219490253,-0.5929117447285139,-0.4045833818944675,-0.16461736788827622,0.08071062156500029,0.28128989277697175,0.42317994626974464,0.512823536660113,0.5689338942633365,0.5999319502487863,0.6116721357317418,0.6067474813690539,0.5878489415222792,0.5572139145258266,0.5061420855242926,0.4298784599247931,0.3251927558068191,0.19782797591589182,0.05533034649048684,-0.11332744991494535,-0.31008470138586297,-0.5252714692525589,-0.7093236916817711,-0.8205440475903754,-0.8743430397750003,-0.8944611708790134,-0.8954469619798457,-0.8739154437619449,-0.8109973791821155,-0.6566716023919338,-0.3646373404654537,-0.06245163960310515,0.10571314050838276,0.1999522489639528,0.27680846880594084,0.3587025261346307,0.43884522522156866,0.503365034876302,0.534578080733492,0.542522770815536,0.5612132913089377,0.6078688204811287,0.6657341452684573,0.7139523221459337,0.7490913384806674,0.7748460063954062,0.7896855753648463,0.7883912652994192,0.7636202299306409,0.6946271574473419,0.5642349680439732,0.40255503970391476,0.2706613407302379,0.19144974570339912,0.15857254802842735,0.16777755619694745,0.20930137572449956,0.18310450791990723,0.15940782313528024,0.16795236592557086,0.18899676649417144,0.2110434464918768,0.2289514183334347,0.23582268131000425,0.23282800958842523,0.21945692216439994,0.20430533116719024,0.20583593016414406,0.23610979353108985,0.2861743677815929,0.3151054663739552,0.26119342415772645,0.04454872775648529,-0.3244362546793144,-0.6351137138598114,-0.764541839602629,-0.770802531352347,-0.7100249646671187,-0.6200146480142986,-0.5196277857849985,-0.4139579604129356,-0.30850736485655994,-0.21036044211453608,-0.11902680106625552,-0.036864645281909796,0.0065626196209106116,-0.009662998571589951,-0.07709268622207942,-0.17124149951659373,-0.27281977557193204,-0.39151638715412496,-0.5244132418638203,-0.6396990999951713,-0.7211672400073277,-0.7678374783246071,-0.7864221239089242,-0.7831312796779712,-0.7565551167590877,-0.6935946656471618,-0.5644761833357145,-0.3466771408611221,-0.11834678388992757,0.03011489791541083,0.10021282388447753,0.12706551826323748,0.1349766836728286,0.14627510336319463,0.19264965111585422,0.3581245847123303,0.8437398313951122,0.6863800364926006,0.5248614062350054,0.49396075748030327,0.5225134670638276,0.5923534466233663,0.6800621893090965,0.7210059409994434,0.6691311494137061,0.5776283418663531,0.4861862855458687,0.39717985576090403,0.31060709899033395,0.23625222064648915,0.17905989920586313,0.13640980084045715,0.10787890113308884,0.08220352498982038,0.048940415298061125,0.006688219290420157,-0.0449571977834785,-0.0916978769565973,-0.1070231968644796,-0.07569387175527396,-0.00963613850783893,0.062228538504861444,0.11429632541569516,0.13286603359320176,0.11762121938815343,0.07944709856144451,0.01815333586627836,-0.08343867956244394,-0.21118564517430094,-0.31322246042351315,-0.34024031080683476,-0.27859965168408596,-0.15093531844662889,0.006900031686827119,0.18095101372255362,0.3666159531657101,0.559024648314793,0.7235609552971193,0.8302943955057637,0.8784703398031218,0.8788240412459665,0.8350486170044898,0.7391183774981027,0.5985550063204471,0.44534748809158115,0.2887547722682258,0.08410896339190428,-0.19776894976489406,-0.48291524411623565,-0.6638853181473677,-0.7396547272544008,-0.7500505749974435,-0.7220306444444364,-0.6615173892150719,-0.5678910533457554,-0.4424432223394892,-0.3012929997011433,-0.16685303987531466,-0.0578591334403725,-0.002914384603854263,-0.009477804288912312,-0.05284874312670215,-0.09750223282522583,-0.1351001574967754,-0.18625803387456058,-0.2627064322737342,-0.36516546562292246,-0.49249086123385216,-0.6199877508624011,-0.7115829492940964,-0.7716135923790776,-0.8203398951953331,-0.8594264145604046,-0.887409357212654,-0.9031126448150348,-0.8940116849688657,-0.7474321737587329,-0.29362315611573075,-0.10638341543713462,-0.1776634643970907,-0.28814399528388335,-0.3417396381377307,-0.3203808064042107,-0.23610147791419908,-0.13883297798543917,-0.07138396891257019,-0.051068742953885735,-0.03451996849289679,0.021659908629760957,0.10732890201684789,0.1980564887898844,0.27458248299127674,0.3390993885028046,0.4097883375257023,0.49604681841908105,0.5899806002313944,0.6769163301956211,0.7475411817767229,0.7945669647409022,0.8015855154879383,0.740856120778286,0.634459144190286,0.5724220527505453,0.6113256712854519,0.7330352744283724,0.8325295188253293,0.8660679668312143,0.8775941984110703,0.8545354685408549,0.7323829813797161,0.5505580149766046,0.40872774273536644,0.3185421863311545,0.25789070638978334,0.20809868865195788,0.15296894918612935,0.07330647113583744,-0.07556853209843316,-0.49393009716429337,-0.8543053775096698,-0.5953961277615475,-0.5194831496285643,-0.5445630316466038,-0.6963010431506924,-0.8571530687067781,-0.49094053764575707,-0.31941121050967497,-0.29018619036471405,-0.31829573557094903,-0.3742521084081424,-0.4442162397651744,-0.5132253994035867,-0.49583823290920165,-0.23968129802911417,-0.006890460798036013,0.09452858910442612,0.12009350114634797,0.10456945135305937,0.061000682232970616,-0.01192206314773404,-0.10558274081876673,-0.1780614197461066,-0.18705289779025866,-0.17943319943394181,-0.1824590333535074,-0.2025666112663052,-0.2327946571781679,-0.24952938441153855,-0.23882891135525033,-0.20554674068293077,-0.15879974686908468,-0.10493657874749,-0.06208160847253575,-0.048442352181651244,-0.06991561996783686,-0.11209415947063273,-0.1683577365507246,-0.22245709442802794,-0.2590080264879648,-0.281473965818811,-0.2965110900466649,-0.296615150477488,-0.2573447457364041,-0.16125907476584608,-0.011289570523029552,0.16760694068664572,0.3565192086081816,0.5328427382776553,0.6590998977156195,0.7225341814401394,0.7382240291527568,0.7165859209711518,0.6585777377427388,0.5659472401149988,0.45196200463456754,0.329442935916995,0.195616767136797,0.03870577072317197,-0.15986859877116266,-0.37857060787898134,-0.5622999391003592,-0.6812423062216881,-0.7459859194886236,-0.7757078202561312,-0.7856153950016443,-0.7894684356405632,-0.7900350093240305,-0.7820691728421167,-0.7513175248618368,-0.6721181271645311,-0.5086555442462278,-0.2543291160640452,-0.0030377698090840416,0.18329307065488096,0.37643337029798196,0.6044715300718165,0.7769034059974594,0.868755012192721,0.9178440173926633,0.950015997486587,0.971796469240328,0.9803915987560496,0.9752294737545959,0.959142647843265,0.9301534818424537,0.8812633189952642,0.8072632039776846,0.7301372219545792,0.6690668204864866,0.6076686169552565,0.5180858939998854,0.40661817469519296,0.3137631614580497,0.27618713150105495,0.29156364339709595,0.3316258748984502,0.3659545175333559,0.374740147828178,0.350006267878846,0.2942919280650571,0.22733457865549542,0.1597108443248186,0.09706106189311856,0.047197067273128654,0.014315146417764869,-0.001895391467546082,-0.002963238796908618,0.010210468584209395,0.03116930794589196,0.05719174504010234,0.07020317491166334,0.06467760670988293,0.018558539281433552,-0.1052790026344705,-0.34406351257520734,-0.5926119379432168,-0.756505868401319,-0.8406376696880153,-0.8645010645937636,-0.849879089224612,-0.8255172845848342,-0.8032832603828879,-0.7748824857556619,-0.7362835014562357,-0.6927850637982765,-0.6549510517754961,-0.6326988122172058,-0.6219906111122157,-0.576014677421546,-0.41949987800386834,-0.17384876816767603,0.04526017768864608,0.2051852004363924,0.3100690927780638,0.3654591407558088,0.37867526772405014,0.3686099764819929,0.350183290138906,0.3281272107456096,0.29559490508851416,0.25080653567612254,0.19571847053072985,0.1300791818073574,0.05454894374563031,-0.031146194917074634,-0.1128357581929378,-0.17993312487081653,-0.22192593986804468,-0.23223125164942338,-0.21276147376822818,-0.18314665299233263,-0.1611086318698424,-0.1557743296380393,-0.16375137471605808,-0.17211912876126073,-0.15350821261452785,-0.118747070617866,-0.09996956579528679,-0.13878693152540014,-0.25924434299231586,-0.47623501221618764,-0.7066223716004908,-0.7792615938003118,-0.7346197259116388,-0.6727279345085361,-0.6197086924146332,-0.5753135344652741,-0.5125709977602793,-0.42759538789628004,-0.34818909281514876,-0.30103006079742417,-0.2995124554280027,-0.3573311022045334,-0.4652342796784426,-0.4455277993214213,-0.297879661528027,-0.18773961796362354,-0.11140499002059528,-0.05493915263162275,-0.02018483681588442,-0.02149151876372437,-0.07130881880728135,-0.15712381941252562,-0.24353020162196337,-0.281774549224408,-0.26098055272263404,-0.18692751793443074,-0.05816130688219626,0.11318842780316099,0.29065206574076397,0.43158651468806625,0.5152877085063318,0.5452374440132397,0.5459949107876225,0.5377683606369202,0.5225245804748904,0.4944482800832077,0.4525818627581944,0.4169500767250488,0.4019131805820125,0.4162202952462085,0.4500998306792526,0.49805375261012613,0.556188548362039,0.6068522871974066,0.6332088650536739,0.6305390569551045,0.6090682590626711,0.5829162439804334,0.5615499202985731,0.5411127791797941,0.5075605687137393,0.45327766283934173,0.3850878439632764,0.3120857861711887,0.25400821770183524,0.2230901443421647,0.2189542405920765,0.22458085623479582,0.23080647217321232,0.22320713280488855,0.19340969132115318,0.1439165125130742,0.08117661012301845,0.017960469257715335,-0.03714427304775544,-0.09234094456127484,-0.15020354782182296,-0.21565314326787063,-0.2810906212136419,-0.3306535246946227,-0.35296028773838317,-0.3541539930401004,-0.3406824101158543,-0.2813306696250014,-0.1496203674203218,-0.03606400728886632,-0.02188330539360454,-0.06584382076277569,-0.11700668883002048,-0.16914128975091205,-0.2188475681108735,-0.26988518234041453,-0.3198736094507636,-0.3552656261614531,-0.35248852306723644,-0.30468348152210567,-0.2214173189857509,-0.10689959385926254,0.058331110339019825,0.2863039343898015,0.5085421155487878,0.6558551938992988,0.7247406221561733,0.740241536866884,0.7106075736824958,0.6157389596380242,0.40786605991819,0.06499349965111255,-0.247004432140316,-0.36106194876481973,-0.3308427652124166,-0.24321341881059913,-0.15065821939712687,-0.08173752171515371,-0.049415941691522074,-0.05997508230058347,-0.11645436816122731,-0.1989686615664278,-0.25701971895054215,-0.2728280723335192,-0.2622852357905259,-0.2364414271423061,-0.20411352776712832,-0.17704168166198972,-0.16842620832803598,-0.18069410934619773,-0.18742945838532973,-0.166007551786791,-0.11313116372206723,-0.02177869445392862,0.08954851286350074,0.16901802449454456,0.18903342511259508,0.17617548667376362,0.17247044640346276,0.18706272985767872,0.2267447959696665,0.2727538844239785,0.3101859012470357,0.32607854192820784,0.31491975080393675,0.2666989054903155,0.19877371752408315,0.15663720798057193,0.17343474350933025,0.25379856041356186,0.38075534514583,0.5093342784398929,0.6083074659927924,0.6722568473397834,0.7062219535957471,0.7104381984732846,0.6754984134845136,0.5611186536393351,0.27059076142859617,-0.22518357555098606,-0.621286248515003,-0.7977996695850782,-0.8661752837779472,-0.8898519262171107,-0.8881574865976684,-0.8632792184586005,-0.8150945641020474,-0.7546475733888399,-0.711854220863074,-0.742234929346308,-0.7702199778184073,-0.39955543446796804,-0.1779567582497991,-0.056726693591998695,0.056688553030153736,0.11843559658822542,0.06014429699276214,-0.03303575181680903,-0.14269096854460767,-0.21004781203372533,-0.20227274610405366,-0.18897728817012263,-0.1927461257068495,-0.21712616016787115,-0.2478451678107873,-0.06839461701582294,0.05298770323262327,0.11548351049342849,0.18229944570749973,0.2128982899787617,0.09950599752523051,0.010384445858342388,-0.041042263269445274,-0.0731989431427336,-0.010606844289157391,0.07085592100170349,0.09486105182088714,0.11085654980879893,0.12922654545793227,0.15862542679292305,0.21160026505615756,0.30131739299722304,0.4284948687105845,0.5594076089264294,0.6595177828854873,0.7207938939623075,0.7530979702888877,0.7531685998412041,0.7163547924315686,0.6618114689387041,0.6181094425409633,0.6031967140675017,0.6137821594913071,0.6321598699595246,0.6459433467287969,0.6510372250966736,0.6430299138794959,0.6174311440482877,0.5790007540365532,0.5346383355576364,0.48468903765152754,0.4267939808021328,0.3625962062773426,0.29053690238452423,0.2085366039873866,0.11932094805654425,0.039450831238766956,-0.019830834994201275,-0.06955858075489434,-0.12449732898750754,-0.18357665411959995,-0.25242219890968004,-0.359369484295776,-0.566432672112156,-0.8550168092731454,-0.8011407260211771,-0.6300520717736341,-0.5420820234851916,-0.5083699836998563,-0.5072427394848149,-0.5284565484847213,-0.5684561458109249,-0.6253542727828466,-0.6942166068614438,-0.7559955651888256,-0.8048735262452413,-0.8403745845927606,-0.8614598502728316,-0.8699183725956218,-0.8646489512415263,-0.8257645720516061,-0.6673016406682153,-0.026601715356642904,0.7157173771285994,0.8993144349256933,0.9410854473310368,0.9519152566575818,0.9505878166432999,0.9383780303824201,0.9113769390176295,0.8711991269560856,0.8281352065900466,0.7889408588005528,0.7534412840124741,0.7197407770764237,0.6886198270268016,0.6196109615519656,0.2790216554546825,-0.18482129283723894,-0.4544388352627937,-0.6262971160748377,-0.7530741148044274,-0.8444059490028557,-0.9046327307461842,-0.9355756197209985,-0.9315896572163153,-0.8843801442493525,-0.8031968519960682,-0.7195755302948779,-0.6450339584788852,-0.553631283076472,-0.4202200822069767,-0.26355258697485484,-0.12215625613103716,-0.002559961948948475,0.1118915714952948,0.245173269087146,0.4071380507660762,0.5728391657478437,0.7050188377884054,0.7802588697796436,0.8139615714737971,0.8310161910068415,0.840183332426238,0.8457864623619729,0.8499726828228339,0.8556032391538044,0.8636654580555534,0.8754693457143786,0.8953573363784361,0.922608978227083,0.9292703069313808,0.8755882871085833,0.7932382510502757,0.7381755038726804,0.7223972802514235,0.7312325321812697,0.731921681128883,0.674890743501063,0.49099034607890146,0.16412838790786347,-0.16884235391168986,-0.3926291325304859,-0.5237313614460863,-0.6011007427562808,-0.6407720581909278,-0.64917220301805,-0.6345731484029573,-0.6015026814104959,-0.5618272860174366,-0.5205726541986334,-0.48505230953300904,-0.4597829557789887,-0.43797062500213585,-0.419986394329014,-0.412997023774527,-0.43519500069912664,-0.5019530159643915,-0.5887929969615456,-0.6341535046342859,-0.604245197314115,-0.5210744883498579,-0.42560214521543405,-0.3660489725728236,-0.35793406319044996,-0.3881667708024738,-0.4412618099898483,-0.49782892690906255,-0.5549884140030309,-0.6007720839370666,-0.6258775713107828,-0.6250502746900145,-0.5991959648221663,-0.555550267966977,-0.4974620685829756,-0.42869995830848734,-0.3567902670062689,-0.30071613614544895,-0.2718659352942825,-0.2640770898172597,-0.27198760123625826,-0.2801692314858723,-0.27570423472489963,-0.2534037386646917,-0.21439743510838616,-0.1602974842818432,-0.09400004465619685,-0.03919414378856192,-0.03210212878833284,-0.07597434787123324,-0.1434160464762566,-0.19390398143058513,-0.20817096676321284,-0.2073527280280062,-0.20532396528514696,-0.19812497752258768,-0.14790902464780695,-0.03619618963246115,0.10965481653414985,0.3004878112598977,0.5975078084444967,0.8890430817956224,0.9455435497173209,0.9103133519075689,0.8652884991451365,0.802797292205408,0.6978547043081847,0.5428120309235448,0.3678149916864665,0.21114775843335337,0.08070622286598109,-0.03059559535427299,-0.12487722840187036,-0.2049641255685703,-0.26359070095802745,-0.30314512802870336,-0.32451251438357986,-0.3301114539404085,-0.3454494309492971,-0.40630691583305495,-0.5019331863096181,-0.5891086349382316,-0.6429238144501817,-0.657723704307105,-0.6270239072038614,-0.5482244102241723,-0.41804275855348577,-0.2616420637686698,-0.1313759986229625,-0.05779733335067065,-0.0073752069400866,0.07008020755041848,0.19218300859561074,0.3474727339781371,0.5021061736649565,0.6214668717244606,0.6865995330660725,0.711163068163206,0.7226545748049542,0.7385253848826687,0.7603117242918549,0.7824192336363112,0.8011042899471451,0.8198756613885763,0.8444692674787383,0.8707738209934534,0.8893293571515354,0.895279997770499,0.8885028493034979,0.8726871754889426,0.8507751342521281,0.8222914722706225,0.7790752382625983,0.6919994755313605,0.4804105851927801,-0.0209565149138992,-0.5889354564971566,-0.8319185699205743,-0.907248211706376,-0.9263226954411852,-0.9187922473187484,-0.8865631721342944,-0.8179176538000004,-0.7001354507243326,-0.54842340153258,-0.40359489526694514,-0.2786213009427385,-0.11012713838775232,0.2703948110031234,0.45549647186460746,0.5034860308819956,0.5595097144604642,0.6369805281208155,0.7250908933147532,0.8071580877873874,0.8701802604774571,0.9117542244193227,0.9332304013105107,0.9344977550639448,0.899034678640192,0.797553752789048,0.6394753752977106,0.47196229670335693,0.3328551774112037,0.20950579196218183,0.04409140042305791,-0.1940999330149687,-0.4676818637514997,-0.6754275940502403,-0.7860231105790965,-0.8293036485451106,-0.823304594639544,-0.7664676869941273,-0.6428485877992436,-0.45812499389115424,-0.28815930689259467,-0.19946879437086323,-0.19667981482853975,-0.24618005257234774,-0.3099543468217889,-0.3509752951915196,-0.3355461462106978,-0.2395259368168672,-0.08617387202965586,0.08240375443575483,0.23309990079416618,0.3680477125796344,0.47392017139131287,0.5316186083465191,0.5242764906105631,0.44852347631190426,0.345120020975565,0.28243929374172605,0.297831732371721,0.39757564865065553,0.5372530480383363,0.6432752642067091,0.7059753459114974,0.748960987359223,0.7833327340301416,0.803483361564367,0.8084614368733014,0.7985763353472047,0.7728700156231059,0.7228432642903928,0.648753179116792,0.5567219136559299,0.46528574283712837,0.39486398033667996,0.34708025357596933,0.306894228551179,0.26473487127069945,0.22712355833292336,0.199324203942869,0.18698464125992478,0.17218138764965998,0.1331655953722746,0.06288991626817253,-0.023533391022139707,-0.09920708272851332,-0.14476042503733808,-0.15587051943395816,-0.13660773201814205,-0.09959948657967765,-0.044240147515008925,0.028030965086225476,0.10761221681810218,0.17920928050481902,0.22817911887298886,0.24112254439219447,0.22188556138514287,0.1884375018907649,0.15687074462449913,0.12889059756406857,0.0993723179620276,0.047427349945497056,-0.0048855250111640705,-0.04102606581786296,-0.08056984676448224,-0.1374352332235628,-0.22371712042108138,-0.3641586735008668,-0.5768883931686677,-0.7097558515681974,-0.686053656392154,-0.6029770682492523,-0.49892225852063965,-0.42705684129649985,-0.39492265483519884,-0.4017455981938751,-0.429859511313355,-0.46079237690524755,-0.4785580210312701,-0.47679622530127924,-0.46275856714329305,-0.44446131681896045,-0.42477873093237006,-0.3948385849125065,-0.35293867712469085,-0.30412682516704387,-0.24203097349984604,-0.16484494720819082,-0.093087659006741,-0.040772926548810505,0.0002305002440499045,0.038000224813076314,0.04775897186326664,-0.01028966808851234,-0.1570722670790278,-0.3633541214901236,-0.5500513148228886,-0.6691887601306682,-0.7258195277282066,-0.7323550354240298,-0.6881347440668849,-0.5974539494156531,-0.4855759755646725,-0.38280611299238854,-0.2834967806822439,-0.1891866427330668,-0.11679538773054318,-0.07979062760492396,-0.06823672238079506,-0.08003329798523023,-0.0857562486900281,-0.06775138509057611,-0.032429535247950184,0.015292134987209898,0.08482368927887907,0.17557737722358374,0.2634284117542941,0.32625965175366844,0.3500800158702934,0.33206773297481207,0.28948715122164537,0.2447382776089457,0.21438890502975974,0.20957990229631235,0.23601803342730243,0.28719215575923135,0.34531809670144836,0.3915340118502457,0.4065202612259823,0.3719827837122282,0.28547226471237863,0.18381331096640272,0.1087549510021859,0.0729053944398739,0.09175981784312442,0.13809130344780884,0.11009714460621348,0.10158036255988244,0.09236633079373445,0.06494435529971182,-0.022531404221433838,-0.3068936598158251,-0.7348150600703939,-0.7444444347471446,-0.6729739957887105,-0.5941989675830436,-0.5193688619225247,-0.4640272897572349,-0.4342303253298605,-0.43659354355362656,-0.49093528950481,-0.6770693399255867,-0.796279143420519,-0.10835143945830476,0.07740290948294917,0.17582620807277377,0.26982038492018257,0.3909325942828394,0.5490121188396231,0.7179487311682811,0.8211625382328118,0.8247081318155187,0.7780600711302612,0.7329638213413519,0.7176871527526882,0.7326445517590295,0.7622182461889867,0.7839732612854281,0.7834918248046091,0.7602189408310006,0.7227612440353811,0.6797998055915462,0.6337686277292663,0.5764860146457956,0.5054165817932438,0.4216336010937503,0.3293101292985838,0.24057107139210396,0.17361703237685885,0.1392601659766422,0.15243057337601185,0.34788687809751484,0.1429860286054397,0.07395998664018043,0.056329410132093784,0.04907255918409037,0.04251362732265396,0.03192381097601198,0.01344815560038588,-0.028527955986050253,-0.12664569622083496,-0.3048887776646401,-0.47425688434615465,-0.5341804859637921,-0.5305226154239391,-0.5154633722203168,-0.5127434211079197,-0.518612750799291,-0.5138356738000059,-0.4863371812901537,-0.4335896017929737,-0.35477163462118616,-0.23526053241647524,-0.07968019902143297,0.07411720428629674,0.19642619660332744,0.2727103803503546,0.28908985509731,0.2030357002777979,-0.0334433889657903,-0.38958651267964084,-0.6706128745655956,-0.80850753033134,-0.8647560941665635,-0.8836623861365538,-0.8787047587009944,-0.8577272311085626,-0.8346268514769979,-0.8265762140757212,-0.8328913937852891,-0.8449317577584159,-0.8589994541346729,-0.872615031273081,-0.8834874074483204,-0.8875661290743282,-0.8771871897847742,-0.8397511708430634,-0.7666791335558779,-0.674713597357248,-0.5908549103848111,-0.5349769892342622,-0.5106802146165461,-0.5067744030731793,-0.497348320170681,-0.45830046364371774,-0.3857446332076434,-0.27817633755385063,-0.11405316405197254,0.10913511687515814,0.3370863700476035,0.51376061789972,0.6353061098897701,0.7153813526532121,0.7698675416045174,0.8051632558019519,0.8255533584889885,0.8386834744244577,0.8494256192584647,0.8573086750004335,0.8634440018069834,0.8698770826562731,0.8787910479997717,0.8893993764418959,0.8889131720084376,0.8583795492374428,0.8045447683765167,0.7547306532888756,0.7267673631292235,0.7205404202844797,0.7250217202301646,0.7319271388182417,0.7404698852334116,0.7471977790618258,0.7398445952112364,0.7006790075929012,0.5948741739819197,0.34346666843359064,-0.06580912174325573,-0.37099800290231594,-0.46754871871390613,-0.40172345368087986,-0.19284433937639497,0.10084298059830511,0.37848722813955105,0.5799819122530776,0.711890893510326,0.7871557799446933,0.8126512711917767,0.7898039910261574,0.715759810178512,0.5993151981117941,0.48163488119035386,0.3942410247235733,0.29951856649350367,0.14358460610451504,-0.04606479606888924,-0.184808450686392,-0.2209455372290702,-0.10882700963144584,0.1572707465045753,0.3476037860468798,0.37790583745027606,0.2964837033439035,0.10563540190716553,-0.1959856794586141,-0.5015510856931686,-0.6818875097378807,-0.7626380670155342,-0.8027037656421689,-0.8297093738736816,-0.8506032409501704,-0.8643502881272,-0.870280048798795,-0.8646291094386732,-0.8416208491938731,-0.8068451775103906,-0.7878427865982756,-0.7936685840649933,-0.8132312985433807,-0.8273618389246571,-0.8249411212443802,-0.8002947200855368,-0.736494681420861,-0.5963141426200272,-0.3366368857798818,-0.0030367069732521504,0.23638578411894884,0.3446347417397509,0.3816505178143154,0.3961165739583552,0.42231993690058933,0.480661784726726,0.5743978499421527,0.6228747987957199,0.6075222507514616,0.6015455482077852,0.6235677756687669,0.6614929624786141,0.6946892857581728,0.7048193936041973,0.6850408401011994,0.6289488217749258,0.5073619302564355,0.26362203084162955,-0.11618396930016034,-0.45528310645086245,-0.6410824494262769,-0.7237998871028004,-0.7529620970361399,-0.7471934222454554,-0.725052720663321,-0.7125075066081434,-0.7358429523604926,-0.800072743113392,-0.8791773272410605,-0.9446483014206657,-0.9778811613360016,-0.9585343572368299,-0.905613811204651,-0.8651391858302847,-0.8489374585888796,-0.8436203538254218,-0.8368175388124066,-0.8170511996661146,-0.7719669574968908,-0.6908064220087056,-0.5699242849743762,-0.4233338979726046,-0.2869485942070672,-0.17243667357682066,-0.06822660517321681,0.01439678812885128,0.05714651552296196,0.06120350976505056,0.0474761595234667,0.027197177730402776,0.005061437050665968,-0.01498908597947439,-0.011509244937138507,0.04872489689845234,0.10256374563026047,0.1340105827965499,0.1615984724980272,0.19411528868643912,0.24111903690750325,0.30990806850521724,0.3900388810971752,0.4386720302774925,0.4130661713414715,0.35558427524571806,0.30117763248755186,0.26051040991011243,0.2330836637144803,0.2188583232155493,0.20820226359793031,0.20935306767601866,0.2546356268865994,0.3687222514371381,0.4973230441525559,0.5502198517256895,0.5287031228372088,0.44859257351822585,0.31121468447240214,0.190774733188702,0.12661279437038697,0.09962144491067308,0.0986962980683578,0.1327387260390901,0.24201290760781896,0.4178613057036851,0.42695706663569655,0.37670166763628304,0.35030941276530964,0.3202930913217091,0.23059482539236906,0.07067646469242951,-0.10035482069296572,-0.222526373785822,-0.2841106991965706,-0.29646982265722716,-0.2683424710330811,-0.21387714356212456,-0.12670470994638255,0.00656658214496675,0.1678224337823999,0.304705410710996,0.3841564217438676,0.4113349035072656,0.3959195719198833,0.36381000980798606,0.34223793161190535,0.34428157661382697,0.38092392233470784,0.4675258351580197,0.5784063614488396,0.6813108812617867,0.7583925725928459,0.80726784458584,0.8350579253284992,0.8537850922081356,0.8665603155772348,0.8653174600552129,0.8365942216180016,0.7622948424053558,0.6388650144257109,0.4883340914558764,0.3323908539319911,0.18347620835713285,0.04633658596628364,-0.08483829281072948,-0.21657793718944474,-0.34295707305428735,-0.4415923697584699,-0.4864598502607539,-0.4860698319465663,-0.4662888128710048,-0.4795636826094395,-0.5571176069080462,-0.6751232498817307,-0.784818077957227,-0.8627899286062521,-0.9111096685901763,-0.9392849402091106,-0.9539468574975444,-0.959471809410545,-0.9579439887567052,-0.9476615107337955,-0.9215254854868233,-0.852255990830952,-0.6416455523499772,-0.07732971502445778,0.5415664328730248,0.8225004200957223,0.9220794170011923,0.9522695045188871,0.943931350133816,0.9102899297453878,0.8593417678541099,0.7922793064054465,0.7014880236712565,0.5690027883682471,0.36776545973906344,0.11606899729028716,-0.12555155537448134,-0.34936665406801565,-0.553334443185127,-0.7066426857409647,-0.8010267588611306,-0.8445435324598434,-0.8377516452946158,-0.7432026422359389,-0.3822819607216803,0.28921558936187886,0.6611950003427979,0.790854531564652,0.8380182802426079,0.8533628814775346,0.8553280732383183,0.8538688375937455,0.8520450281161414,0.8510624026522218,0.8465124884626314,0.8349546223106213,0.809647242561323,0.7446393952067694,0.5475795890844465,-0.06358545517719548,-0.7016878954291794,-0.8873391370746405,-0.9351056879092472,-0.9471197442846929,-0.9412349929608943,-0.9127945533185591,-0.8516612841341608,-0.7701826084608207,-0.7154621472449295,-0.8006006355842215,-0.22520590182917993,0.17092440618963073,0.2254858247831998,0.2394806005100334,0.24921974156258464,0.26704487259593906,0.30163982037222303,0.3600354535277367,0.44720664925601394,0.552209483727238,0.6381598456537798,0.6905241417377915,0.7054038676655896,0.677443296649986,0.5936583495507681,0.46910621281434284,0.3536469248269539,0.2922420759137253,0.29142464700164356,0.3275982993153862,0.3808124576554317,0.42855703810760654,0.46631831039532523,0.4923376730181828,0.5041151889282819,0.49879754879686145,0.4684397305133825,0.3819444052528598,0.26313712445043336,0.18344801646404654,0.15038096808055001,0.13840161337829138,0.1408419511585771,0.1723553501702973,0.3148906362731474,0.8028167799400574,0.3673947742473828,0.2754644121550149,0.27446594096642796,0.3248794280280298,0.4512075407232867,0.7475220785984523,0.752110171781387,0.38018168225217863,0.20964521588727122,0.11466729932747023,0.046141666048977924,-0.011239496591747692,-0.07115860855989202,-0.1524259683903486,-0.07389269475551458,-0.0062389212828652405,0.016102395480922658,0.023292691711843932,0.02134399158480153,0.007740985919635846,-0.02807625339380345,-0.09790621315131365,-0.18114643838932445,-0.23537087697081233,-0.24622100875790148,-0.22560161737667886,-0.18331288799085266,-0.11899730077078689,-0.01750094910136679,0.13268035733229488,0.303898587763509,0.4327244171531418,0.49180801606816615,0.4966617374328992,0.4665028954527481,0.4110726705903589,0.3090743199625233,0.12484468408177171,-0.1860852827732246,-0.5721903221117998,-0.8266332786739872,-0.8872413886331215,-0.8839559835600461,-0.8809434156678816,-0.8849649995398501,-0.8940450222113884,-0.9058404925641377,-0.9170206814821695,-0.9248303183449156,-0.9285516912183416,-0.9282509743740603,-0.9226227919699781,-0.9104816987893428,-0.8934565156881747,-0.8745381305517153,-0.8557999425431032,-0.8331215854147381,-0.7964561326442525,-0.733319585081499,-0.6214929482500924,-0.42764435341701784,-0.1311165026566662,0.21603423153864068,0.49463377489549926,0.66615461576347,0.7596519904572415,0.8078853728299967,0.831970903656519,0.8397430391736652,0.8314614079440055,0.7987758234001856,0.7173750178810137,0.5262254030032646,0.10508793220658078,-0.4577306953013982,-0.7726150321167753,-0.87708246486139,-0.9005436992935364,-0.8784873292902263,-0.7785858987956713,-0.4526299669260081,0.12048657170234864,0.48950887570145246,0.651162193575304,0.7281418214499611,0.7607388911332869,0.7459734381788632,0.7299724745160598,0.7598327526971126,0.8009432701268749,0.8172601676760451,0.7971922380409868,0.7387845726981331,0.6601848163033491,0.5831435627874848,0.5275574044138779,0.4958246094646733,0.4786726492589344,0.4755801499628889,0.4833290084485014,0.48817282690012126,0.48383764118271416,0.46233930506433757,0.4163056850640036,0.3420764417970103,0.24109940050979603,0.12058972534246355,-0.010078220033069166,-0.13589260944825024,-0.24255761519025915,-0.3272626973020856,-0.391490195167556,-0.434281647271127,-0.4488054863457706,-0.4311312565287035,-0.3779087248916249,-0.2820343969555333,-0.14109452660858915,0.005858627864681278,0.12605560538083999,0.20942589511747173,0.2652027097806501,0.2988933301960409,0.3099695900499887,0.3070355079319064,0.2988292964219913,0.2803207584050418,0.24356866493969734,0.18466615742612358,0.08595850787771772,-0.0305345767729298,-0.11463102836777073,-0.13682800824273417,-0.11181050294495659,-0.04703286096539888,0.051157976349808384,0.18026528860904276,0.336495205819538,0.4923223409385529,0.6113492115012824,0.6813386390726209,0.710964591401349,0.7079321621237888,0.6795127332024811,0.6256547980431043,0.5521616962141731,0.46475566820293046,0.36574361572745306,0.26098703750243796,0.15407376070672005,0.0585156843353653,-0.022834906800084823,-0.11230591505988298,-0.23588229525344367,-0.40308053894133994,-0.5719929459558352,-0.6863840368456928,-0.7537068249725414,-0.7925985025911945,-0.8003001871183998,-0.7671815475921047,-0.6920506371756244,-0.5850707997402138,-0.47108780504258224,-0.37405681171078187,-0.30860991058042586,-0.2763077900287005,-0.27491648244693767,-0.31173415295465046,-0.32323055775238446,-0.11516326439478472,-0.03620617087344826,-0.019613852855223688,-0.022653963506697336,-0.029719809485846543,-0.033550549348004874,-0.034614351370271634,-0.03781956392800295,-0.05434005866060492,-0.08599445505027319,-0.09707166696765797,-0.06090927714699955,0.0044312644477991275,0.06534635029301246,0.07971938418374976,0.05721261383031131,0.02535105834799465,-0.000444151052926456,-0.01901473950978777,-0.0351732491121226,-0.04775954682567974,-0.056532039092187486,-0.06716315844293382,-0.08019687230450073,-0.08554400472090343,-0.04154340055508692,0.10670942004158837,0.3832165004710886,0.6696199915654043,0.8412220092844216,0.9167829295395525,0.9491170627604635,0.9648182088513428,0.9744390792371004,0.9812602460221245,0.9843510924032911,0.9816065481683359,0.9743343176863741,0.9666088648430502,0.958813528354202,0.9480333660598309,0.9331991832789751,0.914410533904175,0.8917757408101005,0.8592680668012106,0.797472193100663,0.6538773883523916,0.30272806733482505,-0.3131506994984793,-0.732731616827006,-0.8826110966460042,-0.9363019987898972,-0.957899325114846,-0.9665582228747878,-0.968216296072006,-0.9646325239898131,-0.9560897910103845,-0.9399669414431303,-0.9080481903263461,-0.8452618386068596,-0.7321639660030821,-0.5541482904802414,-0.31773778007747244,-0.0653157963992997,0.1451776986598812,0.32016852902479287,0.4725848615410925,0.6002332391942956,0.6976489361025321,0.7630403370642741,0.8012910370735041,0.8267853944440543,0.8491169849280276,0.8699116013342136,0.8873562426487032,0.8981547349497372,0.8992622602612491,0.8882549378629466,0.8605214883491067,0.80715920965701,0.7351059992645301,0.6921931515164376,0.7136186756116427,0.7663369368213196,0.808778724085625,0.8244657142650831,0.8097777466825677,0.7661046894324062,0.7036120704939614,0.6330780053790732,0.5416088185672332,0.37981302302572223,0.12035413190799153,-0.19323318337013765,-0.46335377277620093,-0.6360764652077486,-0.7158747936903849,-0.7257740879880838,-0.6834071027208916,-0.5963603423197537,-0.47637372764888064,-0.3660960201361454,-0.3130066341773216,-0.31859220565478036,-0.35419257951038347,-0.3795217996661901,-0.37439170762615687,-0.3615440560584088,-0.37909654864474635,-0.4239171276011056,-0.4640030906300608,-0.4706236946986745,-0.4006056247370393,-0.24349457405705038,-0.07503934376784681,-0.03289368814113957,-0.18804592122268332,-0.4766366763120885,-0.7027703414295827,-0.807385056530128,-0.8434142914114349,-0.848720729276266,-0.8449178887753681,-0.8417923045801655,-0.838091732104386,-0.8258757391171597,-0.7914786707024548,-0.7036746982575942,-0.49591600917570955,-0.12332048859254764,0.2486075735023002,0.463895033284964,0.5519989804400529,0.5775511847542807,0.5725311507461599,0.5556005880525856,0.5286261085691549,0.49321318015664434,0.44748359491372874,0.38594812281353247,0.29096200228260866,0.15148406298461653,0.01886435049418942,-0.06856851408826635,-0.12446448667429957,-0.17226791950671141,-0.19481848372233523,0.0680303101707944,0.15187370489718308,0.20189617970675036,0.26207061563954204,0.3695627500522037,0.5870716171681687,0.8852101165324605,0.9704434096256067,0.9484121471273739,0.9443573455032009,0.9493293018887798,0.9507202277859452,0.9457335654193697,0.9355118145517026,0.9219254806519529,0.9055402877307197,0.888456388292319,0.8636264194539524,0.8095990810509793,0.6734044442098801,0.388096945607451,-0.003406928826939104,-0.3308869472339759,-0.5433599476247567,-0.6747751227580343,-0.7542406388959709,-0.7955030557956068,-0.8056471580125621,-0.7850761161113977,-0.7311631781117164,-0.62210643859425,-0.4591914291693993,-0.33772984640701176,-0.2915439956282682,-0.2939413930284664,-0.33415775586286134,-0.4364787213936845,-0.6874660113736862,-0.7042889298553174,-0.2774132308358958,-0.10134688819826468,-0.008599467634622196,0.057524537973581445,0.1114320891144213,0.14126788686583275,0.1026671170320459,0.009018140184148683,-0.07291276843527844,-0.1236512070537861,-0.16006230317054118,-0.1959473179167084,-0.23134089795694987,-0.02164253001460975,0.1470726861254758,0.18920729901710567,0.20179009703893824,0.2109295020678363,0.22441976957377932,0.2259275704879488,0.057835130874982314,-0.09525316269328894,-0.12964766037662756,-0.1236832317720802,-0.09256030564141891,-0.044254031983685924,0.011842776435180127,0.06413952338838094,0.10567659287381069,0.1368986788903647,0.15600603643969305,0.16478578119169454,0.1580871346385925,0.11617313469706941,0.0328282722848594,-0.06420947471611406,-0.13640137207604255,-0.1716038813891489,-0.17784073151653332,-0.17259999211748367,-0.15583905861724817,-0.12894750218554732,-0.10664807952656201,-0.10191818791141458,-0.11906633929668173,-0.1429466324183241,-0.15864467526752526,-0.1605186144172467,-0.1489601353836257,-0.11684301895802134,-0.05476485184270059,0.02478896815390494,0.10231630559151225,0.15628476175674608,0.1792348978586466,0.18630402350890435,0.19991445540522057,0.22636893817720996,0.25088002978128615,0.2543489471677048,0.22601976430331847,0.16845003191441446,0.10755996669566284,0.07335873170313846,0.08047900187869492,0.11937472357170709,0.163760424011475,0.19726570842556695,0.2212017797561831,0.23655613306433007,0.2443093718769213,0.2562462165872843,0.29432657079277436,0.3785645047370802,0.5097255916363416,0.6443035818301078,0.7300641644761018,0.7730426498698817,0.7892472867029324,0.7842927956598335,0.7591730560604607,0.7160301076787448,0.6657113290878811,0.6193222409795901,0.5803973349420647,0.555375175039725,0.5397661715095282,0.5206572275808137,0.4985380054832021,0.4897508627927348,0.5038990965364413,0.5275904368804945,0.5565363839538517,0.5441365871856401,0.4899815491410347,0.43097220765605226,0.3685388934240289,0.30553034736593937,0.24513869447881081,0.18253700133553225,0.11303636944059503,0.03854214061740162,-0.03728511728771752,-0.1128880660472339,-0.1865902345303212,-0.2591052419389987,-0.3324763720550806,-0.4140599132800492,-0.4997340048060348,-0.5790012888943811,-0.6511618847571295,-0.7113555077755416,-0.7523765753789265,-0.7783337637985625,-0.7926445099144802,-0.7960729067971867,-0.784200626574654,-0.7478081182878102,-0.6768265378956526,-0.5984825874582448,-0.5774378708120327,-0.629413692985881,-0.7098092544724823,-0.7718907463229668,-0.7995863669098423,-0.8086485695969088,-0.8127010170670013,-0.8073710189667688,-0.7965984885835758,-0.7986131349395957,-0.828899453682204,-0.8886480003255852,-0.9469325307698202,-0.9230240857957603,-0.7445001414933322,-0.45019691593074096,-0.116492529650284,0.20837445097140403,0.48363845631472496,0.677287008344628,0.790583183601973,0.846715979626414,0.8712454194564443,0.8790829043426912,0.8751587225033407,0.8621434811794776,0.8466954659772463,0.8355204888822012,0.8302205012937492,0.8269741082338463,0.8247115941012767,0.8206906499029115,0.8133032881229594,0.8016367187726778,0.7856077077838349,0.7649871918697867,0.7412912550524181,0.7180395030838779,0.7057025519143004,0.7146817936594387,0.7366185457360584,0.7546898076184779,0.7587432456728059,0.7527169856543148,0.7461156072267581,0.7476125562281557,0.7666400284614246,0.7949024660522217,0.8230457419288155,0.8460488964553058,0.8553593609099207,0.8436890697540773,0.8266193436130481,0.8181407563377803,0.8104259668977369,0.7876906313177638,0.7331055975068453,0.6286834434143709,0.4671928673216085,0.2544281516071478,0.01624706926564974,-0.215830683811262,-0.41269282605264446,-0.5539134648294606,-0.6314035416929221,-0.6423331887477391,-0.5643580572252711,-0.3366538604417675,0.06653658157033686,0.43939097926550225,0.6407669042794167,0.7282111068496013,0.767387401895384,0.7872043937413299,0.7942708052710167,0.783208933064781,0.7434832130162266,0.6540568401262314,0.4695266681718467,0.13251834607576007,-0.31332123131543377,-0.6599756094965472,-0.8405386245843467,-0.9240369726284523,-0.960755676287445,-0.9761055176401536,-0.9816493524941449,-0.9817322093391347,-0.9776691393110314,-0.9694239617057773,-0.9572139051545332,-0.9394921388920682,-0.9054988612742546,-0.8170050247362795,-0.5694165595208378,-0.10182717203291067,0.32047099004716173,0.568020997172117,0.7026098716190976,0.7652460633411127,0.784839474711194,0.7913057157193584,0.7991290853185908,0.8116344810505074,0.838980428545909,0.8487560261147521,0.8004096294015389,0.7323928116734814,0.6868501303794491,0.6678596212342663,0.6567754003765613,0.6271226796071248,0.5672081098816307,0.4949677331964976,0.43799946322301037,0.4074167404949992,0.3969245029709746,0.4026364427903682,0.414662712229478,0.42159848802237826,0.3897594154310665,0.2697491794118713,0.013380698190017243,-0.30689635970056084,-0.5113712343440362,-0.48484760871109367,-0.24217700638992815,0.06590614364727387,0.3190017950164881,0.5245950395709176,0.688357858418554,0.7693202509471612,0.7231583985937706,0.6339696402303676,0.5792905771323845,0.5571545225135844,0.5492147149156287,0.5388613163726977,0.5126467227653728,0.46178010860751584,0.3931470487429254,0.32228844464441203,0.26884339599409834,0.23671759180122498,0.20578616153913443,0.14562516947897142,0.040526503906292546,-0.10029518829166353,-0.23446468873355628,-0.34004010650867383,-0.4455482018306781,-0.5926957033569399,-0.617031382336101,-0.36512950145494344,-0.23192229003018802,-0.2008139311098003,-0.2408123773549172,-0.34947310378725716,-0.52803658181166,-0.7111723155407118,-0.7821901890058837,-0.744861288630456,-0.6529306679233976,-0.5108763926275757,-0.3191601081735708,-0.09855425211980594,0.09206569857221118,0.2045016092983205,0.25492646441463473,0.2860916136044445,0.31723077957339985,0.34679508384804675,0.36946866470350287,0.3808141071816428,0.3815458766696741,0.37732864151883383,0.373478018795686,0.37505205893361027,0.37705815616346944,0.36433345422925273,0.3338947916095255,0.29923935148847325,0.2595253317066213,0.21582417472487406,0.1675602299615806,0.1281983545421372,0.10122820525141471,0.0798258300967629,0.05592404328902359,0.027559361712346266,-0.0001234803103693898,-0.019093594976693728,-0.027160233434376846,-0.025756796275570874,-0.02783188086704107,-0.04065067100697953,-0.058975667519851484,-0.07605697734938359,-0.09538002734945666,-0.11761653447902422,-0.14152524924563933,-0.17914096315310726,-0.2257553027714558,-0.2626064655748288,-0.2807954880426756,-0.27785412600820075,-0.26627905141547603,-0.24396593951590487,-0.2140066168191074,-0.1844162478880683,-0.16804495773324554,-0.18205012252730632,-0.20985896679698848,-0.23128565246264143,-0.22327901760439028,-0.1872226483335451,-0.13613462534796814,-0.08807286025146191,-0.0581243977168018,-0.06642091088950046,-0.11655918214019313,-0.17276441137378373,-0.1875442171880078,-0.1456899236476623,-0.06381593320469997,0.02398983910108981,0.09683928305150855,0.13635723155399962,0.141976752418141,0.1350833754589497,0.13509385255454345,0.14959314758250733,0.177554771757423,0.2237912887040075,0.3060745892609028,0.431432182947707,0.5661294931666657,0.6655541055607508,0.7087198019224735,0.676370160193575,0.5300163808001986,0.24043960200099793,-0.06880046938342751,-0.2661095421763014,-0.3752325677695506,-0.4456839608146548,-0.49581764272907963,-0.5176570977207454,-0.4970269231119863,-0.42601991025215036,-0.3255062286914384,-0.21212918888358367,-0.08604979368335591,0.04392378082602161,0.14386003227929492,0.21774292444277216,0.28444911755127317,0.3345841381637792,0.33924452317398085,0.28977774545643653,0.2037882358438084,0.12030563142614548,0.07929826364687784,0.09554394490033265,0.15286214722720246,0.22210324935849518,0.27468537928745884,0.2909536838305017,0.2626321848088008,0.19928975384127573,0.13080737768978268,0.09318813801504822,0.1140767780668917,0.19771426538901732,0.31102656577819865,0.3896842501980004,0.40457582458157715,0.38706828198392856,0.35933389043997427,0.32476715749730134,0.2931257290925753,0.26523635434641446,0.2516028266176176,0.2891064365774708,0.16948786802155677,0.05254021767061691,0.012376597917696188,-0.023025912182385467,-0.07530875459885786,-0.17234399712079101,-0.4484797980252196,-0.837813458529725,-0.38572739511561177,-0.26056062750975517,-0.20975250313846702,-0.18258894439634313,-0.1609229741160943,-0.12566851521852349,0.03359541635897404,0.10330856287287898,0.07868579782659364,0.04587653043949836,0.006213914631543669,-0.038102859492253054,-0.017709532793751544,0.007560860355893706,0.02725674935510158,0.0405426875412973,0.04647882219189215,0.042555321372075745,0.016581879834406767,-0.056594934623977085,-0.1838029764596835,-0.2929944000610053,-0.31601913967264156,-0.2465617650413296,-0.10456340443266793,0.08303839818932358,0.25767160539510925,0.36714213114449135,0.40150828142687245,0.37919500159385655,0.3405404753456389,0.31027220199857974,0.2942425621701276,0.29655972707212297,0.3186202790180843,0.3594588493403275,0.4026180358147917,0.42278381672449006,0.38675068803676854,0.25197128419599313,-0.015434066845392237,-0.34778254613195775,-0.5966140160796755,-0.7267861109480418,-0.7852954537918804,-0.8073825133787723,-0.8064914619736223,-0.7816061568629357,-0.7220181884130847,-0.5986179154422719,-0.3553069185322664,0.024368734915161692,0.3777818724314292,0.5757527184026805,0.6588401142357185,0.6761384609416999,0.656791586822694,0.6093991677180827,0.5405735421145288,0.46058881777292265,0.37452188409227855,0.2866720962536495,0.19632384279999426,0.10599640533782081,0.01864326732664103,-0.04976946352521079,-0.0701836482111493,-0.019052290606695003,0.09052239714544304,0.19909681323013856,0.2856442130772301,0.37714839537901446,0.4872833814146941,0.5944930287006085,0.6591977818346608,0.6793378964311718,0.6788370389458379,0.6711569551001925,0.6544299840591848,0.622228295448052,0.585412802856882,0.5816785581928364,0.6486309898568542,0.7538104449805219,0.8366679259831524,0.8823647679693457,0.9047429564558382,0.9137934989918997,0.9142316068466347,0.9082938106416314,0.8963507330129313,0.877484911604438,0.847111932637638,0.7889151513111895,0.652766577494461,0.29393103528748143,-0.31358473154022787,-0.6884044217283453,-0.8258565771321261,-0.8805470277254939,-0.904922949803272,-0.9158383656738248,-0.9186116457943274,-0.9158457975981159,-0.9106170099059111,-0.9013155355611783,-0.8816216985251749,-0.8467926534536108,-0.7979406261603287,-0.7455401364764791,-0.7108131991914202,-0.7283088607084504,-0.8617912738817572,-0.7675402120490218,-0.25256739130200295,-0.07525864123601783,-0.012505658048871089,0.020723775338769602,0.06979101859958796,0.17751858616054936,0.3789135833828212,0.613420259213601,0.7694447402306694,0.8370023315721361,0.8450406114453717,0.80719541696023,0.7413183940112595,0.6691169757545915,0.6051405720793307,0.5510120176076005,0.5054431700387659,0.479164007323413,0.490909757405216,0.5021570327795732,0.4082853071527575,0.3157589780408755,0.27571598365821676,0.2726153842021036,0.30266413804492254,0.35656977592129446,0.392629991424773,0.38973129118347644,0.401603863751968,0.4534192013813309,0.5007437326091273,0.46234805549801933,0.40106989820819744,0.37883031665187666,0.3933073356559695,0.4322501267862156,0.4826725564047065,0.5407101103376296,0.5954991671537264,0.642011764890172,0.6476635362421017,0.5889848726826517,0.4777900523279483,0.31571402367032797,0.11846206939961429,-0.08301907899387143,-0.2794724511396683,-0.4681643498480052,-0.6350569560020191,-0.7471856484579151,-0.8027444270831509,-0.8186819865397965,-0.8076775401277219,-0.7717241611077219,-0.7067127434831902,-0.6206828364445849,-0.5333599049485956,-0.46616138773527654,-0.43352640483549043,-0.42304620606377913,-0.4088528239990731,-0.3687831412345314,-0.2971228973706601,-0.20095682310389307,-0.10158752915708484,-0.021821930098329747,0.0415689024880489,0.11177985882463772,0.2065751826847741,0.3140773062598518,0.40977173519006527,0.48233141349634207,0.5429989878483187,0.6202353073021659,0.7147004309697759,0.6858405503026135,0.560805118920322,0.491380247054974,0.4852128317161434,0.5282207420930254,0.6121894318437394,0.7053657743563655,0.7371692860333445,0.6858518290861503,0.6129029047916414,0.538823530357638,0.4367368061290986,0.2838715361944522,0.10056893350486133,-0.056122911668699246,-0.17749879160310517,-0.3105189860788412,-0.5447952890959438,-0.5960832128738474,-0.307875547566265,-0.20121706700988634,-0.17958729674840224,-0.2021452784134584,-0.2560769589605165,-0.3374747587803651,-0.43731899528077944,-0.534486029879606,-0.6153031831875364,-0.6718175938060373,-0.7048477414489723,-0.7215311941360697,-0.7332389143529505,-0.7507128326047261,-0.7796567873500336,-0.8160746168851625,-0.847427944141899,-0.8646459025397697,-0.8642649928067999,-0.8359318845499444,-0.757183453086434,-0.5963168892101992,-0.38845235440256776,-0.2598634896313217,-0.2672356040108715,-0.27199880051699477,0.21700585054859553,0.532062611856694,0.6343787500858905,0.6755034388245182,0.7006696039964386,0.7275335136878622,0.7543304346251228,0.7715287714286082,0.7670692173353638,0.73216847909815,0.6680149083347526,0.5594972435086282,0.3701429621146028,0.2274817550881962,0.2012802825635676,0.22558238767630237,0.26228674399417146,0.29918085826754287,0.3339554202661208,0.36633678042146767,0.39511709792307725,0.41708729843444786,0.43584700938941406,0.45317583320606514,0.4301821976180778,0.3204093879846869,0.1512825932914867,0.020647423057633563,-0.030173252301854882,-0.03593995227309864,-0.03480759214010058,-0.03748493366053159,-0.04156192802243583,-0.04411135523473175,-0.03487963377617558,0.09859767783384935,0.2325129856715237,0.21506255549564848,0.2427353769328658,0.296520754532485,0.38899601339311346,0.5464793813531729,0.7704923520278161,0.9149986341697146,0.8823198222290602,0.8076838378109081,0.7477572882045854,0.7073760706430164,0.6875911380844887,0.6931665173068067,0.7197336808752622,0.7454840367419958,0.7541759224212803,0.7525428764727283,0.7570384257406851,0.7700856646560313,0.7827120733162969,0.7844012928128791,0.7740699245790578,0.7502043640461368,0.7109599367300317,0.6526277270545612,0.5708851272020327,0.4620089589314887,0.31177590425282675,0.11600529109089658,-0.11414809589563173,-0.35817103438022696,-0.5920647986660222,-0.7776534054229072,-0.891578488064796,-0.9460790045175409,-0.9677175882106327,-0.9745231702759828,-0.9755819208357973,-0.9737808239521284,-0.9698331094232158,-0.9637536950501305,-0.9540704001562933,-0.9380349734166348,-0.9143747464462292,-0.8968877562405134,-0.9019279582083781,-0.9208843616655785,-0.9253200937192915,-0.8879003973537136,-0.7641430589574792,-0.5057546076417989,-0.18106679663545666,0.10144964486236756,0.31092785202526035,0.45953479096711247,0.557935565472685,0.6149657179013682,0.6473483936073887,0.65914294327236,0.6472436790943914,0.6116186582514442,0.549397201220566,0.45681514538292056,0.3256036637155451,0.14204679973107448,-0.09236052447112732,-0.32423061917067975,-0.4944333341477298,-0.5976483236314042,-0.6592423442831131,-0.6910636064461225,-0.7020655100742803,-0.6946657208632336,-0.6673886308852763,-0.6164874779352086,-0.5521768749578004,-0.5069809682156109,-0.5034312839706101,-0.5105634661616799,-0.5013382411271357,-0.4609135254258366,-0.4037012612392229,-0.35395002489958904,-0.3408603705247113,-0.3879502190310955,-0.5127671540528943,-0.6188696485116453,-0.49077425503359934,-0.33204184432115286,-0.24238173055672446,-0.19175617427086994,-0.15608067070809972,-0.12269909124951359,-0.07239595303242491,-0.016872758684592346,0.01152087134626113,0.027238829829020653,0.06377781464043161,0.13571314054684935,0.23031675945785235,0.3222049750702741,0.3921198030423024,0.42888623522582525,0.4290171892770833,0.3972671721411823,0.3491038801773197,0.31424096640991134,0.32857026071033774,0.444185939226927,0.6224506024844889,0.5166377547402424,0.4281050549956119,0.41432039575333324,0.44266475867743965,0.49371349818482346,0.5564714840582176,0.6205554483365677,0.6742506075866103,0.706027954362999,0.7102461546504296,0.6907842828983484,0.6661112786397321,0.6470207061206276,0.6206024378937326,0.5649946497315967,0.4820130798109633,0.39098846879704635,0.3090448275355458,0.239189759285573,0.17552824796898828,0.10344153709455553,0.004341991990718811,-0.09855096702715792,-0.19494651913619787,-0.28249214323101857,-0.36154513733821564,-0.43723061391354484,-0.4895927976264258,-0.5044002268020926,-0.49483707542427063,-0.4704741577504154,-0.4328680665529712,-0.3912450875670181,-0.36393342846867005,-0.3692059592879995,-0.4014732949339993,-0.427184405109791,-0.4191811701705887,-0.3729800438640364,-0.30493603992673346,-0.2349221068159308,-0.17512200206509934,-0.14060522522589738,-0.1488040241106535,-0.19544109270959092,-0.27035418383113796,-0.3606680110706923,-0.43739164328203906,-0.4729731915000698,-0.46296157495262097,-0.42509781479743164,-0.3728764823531947,-0.3011289961506556,-0.1889308267419458,-0.05631491779047046,0.03391207978632954,0.05254596275845228,0.01940817272951388,-0.03791528694006991,-0.08979133094460373,-0.11751621692997018,-0.10583938011844425,-0.03536628375427731,0.10230054513791272,0.2775480793992588,0.43354459474544976,0.5320076997481188,0.5657447578283086,0.541499520607329,0.47190506659365455,0.3765022170209267,0.2721471642446967,0.1585596762066248,0.020824035688725075,-0.14466027084363492,-0.31206371561342555,-0.4201072160015585,-0.4155641461132369,-0.26066963921182307,0.005265352528571493,0.23396739617346685,0.35962050258117584,0.4048351082051422,0.39984088572261645,0.36927145062962946,0.33711943299443903,0.31849491579547357,0.3200781182224115,0.3373461109363923,0.36197824197374473,0.3762017656087925,0.34322086578482025,0.1372991573000881,-0.20074518567568145,-0.3228460086585468,-0.3065257427077564,-0.2601487503212592,-0.22474166508283616,-0.2079449705942348,-0.21372920822397382,-0.2683386809769937,-0.5770360638839377,-0.24946073521449277,-0.0807816828855799,-0.03111155966605082,-0.005844591580885857,0.010448635508261467,0.021888412206720432,0.028771384355760536,0.028704819728798427,0.020084832626995813,0.00149982146422497,-0.023570386231064045,-0.05732678985231007,-0.08450551064643087,-0.09825767619936952,-0.09951326256325947,-0.09402385663001701,-0.09058006178901212,-0.10644513743530196,-0.15937428019918992,-0.2675037824148198,-0.42084489560784744,-0.5770880480819911,-0.6825143311785514,-0.7138109523375429,-0.6860031989622389,-0.6161662551065358,-0.5100634983301883,-0.36768316707592213,-0.19782493223979342,-0.043695700339959634,0.05026160837126106,0.07879146523066566,0.08278020002828974,0.1184421346500526,0.2434316444528358,0.4841951851443673,0.701197432824298,0.7894485784707603,0.8186771194182402,0.828466183880583,0.8283920809897255,0.8209247192874863,0.7988763110320253,0.7512263721007477,0.67138639953021,0.5577847301688622,0.4107716197628892,0.2193406168381193,-0.05517873184271983,-0.3972527369888575,-0.6587981480932024,-0.7886092255555903,-0.8413063999453891,-0.8526857562508464,-0.8312831009299096,-0.759065823027986,-0.5812185732835029,-0.2228517032956239,0.2105485865554947,0.48947595305750796,0.622213934055013,0.6820123594927965,0.7112490804002067,0.729577331113692,0.7480075682995303,0.7703235080455989,0.7996312725593058,0.8279208393360532,0.8510838058990231,0.870501808301728,0.8902655165454983,0.9145595088923927,0.9408011308140702,0.9560017406387518,0.9506499612582837,0.9232209166240427,0.8718899571409571,0.794562770518862,0.697081006281668,0.5899307060791612,0.4595137441233686,0.27541405665755175,0.03153240009537356,-0.1826951198653522,-0.317289302992641,-0.4081143062559875,-0.5003479953967191,-0.5947150538624736,-0.6666978646681941,-0.7041257434591407,-0.7136862785728403,-0.7020838477855132,-0.6724692214553717,-0.6274825413537779,-0.5545532111382822,-0.4167710294418356,-0.25117560755039586,-0.1467868773529764,-0.10233071875477091,-0.09057918240621408,-0.10088053927693796,-0.13798101500522508,-0.2793279056509488,-0.11271553160746621,0.0056130994894688455,0.0520370992687179,0.08707665678229372,0.12323816443047482,0.16477197858695222,0.21470126725315192,0.2815445428982878,0.37877383702696155,0.5092025082006525,0.6507271446131923,0.7273555064395173,0.7355065020155617,0.7054607674543014,0.6484360476768525,0.5752778208576782,0.4927030858272681,0.40450180925937823,0.33135474583668,0.27554783296041,0.23145981825191608,0.20553220546170267,0.21620182746611669,0.29374171574119257,0.4218519608987667,0.485720614171986,0.49731579727122777,0.5055781798160014,0.525203464422368,0.5574546988357179,0.5977641075695138,0.6329718690417483,0.6514050066925176,0.6543845588035779,0.6459599078229272,0.6223680879338036,0.5760112429486492,0.49323963489102746,0.37174738638466237,0.21528610902582007,0.013037568318779854,-0.24373586814043638,-0.5115706980949964,-0.705677759300499,-0.8064607204988146,-0.8539986812380024,-0.8800013593791328,-0.9011268507101601,-0.9215256947048556,-0.9405888155126529,-0.9589149572599922,-0.9716752938469587,-0.9533664112806907,-0.8564024049217456,-0.7058558299650552,-0.6146230899094696,-0.613013267709326,-0.6669132273468031,-0.7123920128765735,-0.6853173879474733,-0.5594819309000905,-0.3737976893003628,-0.20581561822187489,-0.09925344702288438,-0.05236847059938318,-0.04940981892897864,-0.09868861053137457,-0.25889361004083045,-0.22527190130782657,-0.14772948651244522,-0.09055516017790816,-0.027442993714495562,0.04760158850508597,0.12061789207989235,0.15487540112265893,0.07610073632175378,-0.19169187316275071,-0.49372270072427094,-0.6258110764917385,-0.6224514095266654,-0.5001978832315062,-0.23472109390385956,0.10865140011838906,0.3560072747179421,0.45678712636236474,0.4352294007040942,0.2759540580471546,-0.08173594960236452,-0.4852857264530053,-0.6775271328884405,-0.7296177121295506,-0.7183125172085665,-0.6397829201729475,-0.4176713319335134,0.057790850611599616,0.5181929361154798,0.7086848578558127,0.7642706653197361,0.7671975525462998,0.7536364031019372,0.7433623152024921,0.7471513863137266,0.7562829601897277,0.7567002050253553,0.7444657566348706,0.7250958677942289,0.704552577587824,0.680046229495884,0.6478699413905704,0.6087342580550072,0.5667372453749646,0.5240810695191809,0.477097420674976,0.42589084625931023,0.3774532741869779,0.3414029014097277,0.3293056581436319,0.3433004953054098,0.37492958235778084,0.40392843491053193,0.41288909948946745,0.3770461276357113,0.2959305603886765,0.1866505802915263,0.086363775953917,0.024667964744749464,0.013652481103217684,0.1397493735114871,0.41094695294958805,0.38691082232994256,0.3902687630844093,0.4108366603620278,0.4456357596988756,0.49676957184206166,0.5671242009597616,0.6502320842930326,0.7281858001934116,0.7875325867158312,0.8201041102246409,0.8192668268317257,0.767843593215605,0.6298841432889616,0.3634819057031707,-0.007351690850630188,-0.3495012741977056,-0.5619743824577667,-0.6706004808252477,-0.7290217771307757,-0.7646661601768407,-0.7805805779012196,-0.7718665225508146,-0.7359149120605725,-0.6836164533982712,-0.6390111683591024,-0.6133828534000332,-0.5960943629699018,-0.5716201802123593,-0.534631415134461,-0.49093719556581455,-0.46192381948534034,-0.44979560216514247,-0.4461937845327902,-0.44295308188390053,-0.4393686252964423,-0.43982236232531474,-0.4465931796251537,-0.4729327363016436,-0.5357939995119273,-0.6531018293662404,-0.8203800288046619,-0.9421138046681006,-0.9299655130816897,-0.8636864602879989,-0.7730398042289415,-0.5615534735499258,-0.3120197264981726,-0.1397784326236887,-0.033783274735771425,0.014862953364983836,0.021657480746961423,0.0008810895618082796,-0.0317880754867849,-0.06108293141139705,-0.08034308104700755,-0.0703084159617394,-0.006127174808563098,0.09727934861478356,0.17222073319932174,0.2056442500122392,0.2286868163113579,0.2528140903171732,0.24140003801107804,0.13787025402465064,0.03692603945600029,-0.01827967142101631,-0.04586419602166918,-0.055269800042302725,0.018570303115342194,0.09027256232156,0.11262855380107974,0.13170090062798165,0.15581493919229777,0.18849493255612287,0.23625281321972827,0.3079921342787289,0.4102965736673541,0.4658970496541655,0.33608753311432454,0.19398241257823073,0.1162735069602439,0.08652366087885402,0.10553064351002764,0.21279964944557467,0.12455976791901922,0.13622534909501186,0.17559118056217735,0.2243338834806883,0.26453503532483763,0.2822036162806746,0.2626916659986857,0.19036896960370495,0.06667083438952467,-0.06988778406425153,-0.1972721311368965,-0.3181411982910412,-0.4362029680905026,-0.5325802088121283,-0.5918350431349244,-0.624580999875553,-0.6446224371976911,-0.6563648166654648,-0.6587094147789332,-0.6533149473659896,-0.6486401628437933,-0.6563660899021517,-0.6726099392876695,-0.6843344493581782,-0.6775777911248078,-0.6501359228332783,-0.6026053919751321,-0.54039027548013,-0.473263437692607,-0.4057675846451369,-0.3331457790822745,-0.23911950277375074,-0.11634362619854882,0.03241959481226873,0.18028094577798356,0.29182647652015875,0.3607897172057005,0.414506905141833,0.4717338481809194,0.5388907783136184,0.6017187991300122,0.6464207050767896,0.6740550640920653,0.6943887761473283,0.7103097802552183,0.7190998998902434,0.7154190967116455,0.7004529953732845,0.6878013573708863,0.6875733400905457,0.6986661073212421,0.717332035502981,0.7364256866477288,0.7555707877261387,0.7741602183960942,0.790700725683862,0.8056731672471974,0.8217380600934732,0.8353738402199402,0.840588973655138,0.8347215494538822,0.8168298570975775,0.780779366053425,0.7082166504994724,0.5587081090298184,0.28102402582008124,-0.05897152877827452,-0.29883775200160134,-0.41654613368926435,-0.465469377846181,-0.4819557708152712,-0.4859336535375915,-0.47864937296691284,-0.4374942315170185,-0.33526390211680185,-0.16385547424118507,0.033917173552669204,0.18777674614730655,0.2640773272004062,0.2856947834910327,0.29919088563501056,0.36355042833841683,0.49090942233791773,0.6208115187231024,0.48310889960675213,0.22374286528555612,0.060059437692238295,-0.04973663576811364,-0.14709043925622858,-0.2816744259744519,-0.5557634448448425,-0.8767342464204148,-0.6682987926209938,-0.5247458376919047,-0.4917566110747819,-0.5296089428132804,-0.6165983911988119,-0.7216536366166619,-0.8068285165861137,-0.8445828266690628,-0.8190873666932349,-0.7117601777127767,-0.533067909228509,-0.3789898604603386,-0.3035654966414372,-0.27059854197505434,-0.2433517849042955,-0.20052277166391308,-0.12017187100313868,0.029565279779242195,0.21121125116280812,0.25204422650487746,0.1029460583604883,-0.10760606103186879,-0.2624253122793184,-0.32462285114380657,-0.28241132043755757,-0.10019771474789563,0.1883845861921516,0.46790812841960316,0.6800933256230047,0.825394950136872,0.8968875513536918,0.8908254053871482,0.833736350553332,0.7692428472772348,0.7203652166900866,0.6921507674454763,0.6891099835674638,0.6937961592504663,0.6888236307358129,0.6860719490184953,0.6965246023236081,0.713222425026951,0.7158721043736873,0.6626893732010994,0.5420014381695442,0.42809923389179355,0.39181026042831185,0.45449427801892395,0.5686306104301905,0.6593466967924749,0.7096453514995353,0.7425083082217221,0.7679774316151468,0.7841750943028096,0.7896232964487913,0.7804641941919033,0.7499166661557213,0.7086674497911828,0.6928474562886958,0.7555249817642244,0.9203246247881959,0.5863230762282385,0.16775505513889438,-0.024645342790744186,-0.15553807206600065,-0.2837973876997753,-0.42975345930284625,-0.594694492923923,-0.7528536942361732,-0.8702613407618093,-0.9283823935757939,-0.9388845322505858,-0.9280054123791935,-0.8938958943894122,-0.7938195278885742,-0.5872931583320552,-0.3609251290855727,-0.2430245179735752,-0.2553721083159307,-0.351708386698975,-0.4516680509387651,-0.5238826764504088,-0.5764097053464708,-0.6267744334694428,-0.6752810246934879,-0.7182452571632846,-0.755989410900054,-0.7847278299630333,-0.8025544540533867,-0.8140395507306124,-0.8254760122475208,-0.8360193238846041,-0.8389177029282444,-0.8267216593894188,-0.786898504673929,-0.7026914543332496,-0.5512534762498932,-0.3102901897786301,0.020903833042819838,0.34501839475986246,0.5665893436633099,0.6827262720695939,0.7354911113565317,0.7574814562352487,0.7746138513988968,0.7875408068236827,0.7784866790932262,0.7436098683542086,0.6942458841502388,0.6393760176983573,0.5884792057450009,0.552419693341609,0.5454700529325747,0.5851468729226175,0.6969854430878545,0.864914888847215,0.8521489754523045,0.6940759062953599,0.6002312172146526,0.5657636402017492,0.5642599267493932,0.5771771290402328,0.5873498553064798,0.5834190206395906,0.5698250501373403,0.5562434661532735,0.5396660778298922,0.5215993726275392,0.498885547730144,0.47004772447696214,0.4343156367616531,0.3866971257792984,0.3119594443628255,0.19234555489116098,0.018049129149480005,-0.19995871427073894,-0.42890700518366026,-0.6251552537880056,-0.7663022122917609,-0.8546815619762215,-0.9084929176275354,-0.9408863208701549,-0.9584376444549636,-0.9655885938557254,-0.9619632381739504,-0.9470008301024492,-0.9219188221848581,-0.8939895228173701,-0.8687112353330477,-0.8449291792302526,-0.814163465716824,-0.7710019154091989,-0.7170127960051852,-0.6530599481838405,-0.5827982182449581,-0.5091353542927175,-0.44201173264924687,-0.3969559150082143,-0.38116430511704597,-0.3528330931000482,-0.2808246561734889,-0.2159877776106492,-0.15908863039771892,-0.08103575548303467,0.04609218149965977,0.2137038177496188,0.37151375961384225,0.48876638913971643,0.5768939571076029,0.6387955513147736,0.67617180647401,0.6944719659486234,0.6957016764769403,0.6796343294493695,0.6390151811137361,0.5646791516931838,0.458663529728581,0.34225582103913194,0.22676011531410128,0.08473672102095672,-0.32434985849544495,-0.27572528213612135,-0.1622887606799672,-0.08812939899577439,-0.013771663600269273,0.08056234425920931,0.21276872212132342,0.3659484421472289,0.4211884926294746,0.37035979234188904,0.24213820101625932,0.04877939466591538,-0.07628083893069085,-0.1587672004223885,-0.2350183694686209,-0.3268753718165546,-0.44500274679038593,-0.5894729975390863,-0.7225598044437865,-0.8095447087687024,-0.8585660399766636,-0.8846582136505664,-0.8945363832934883,-0.8925097737143621,-0.8805328023442816,-0.8567961596615715,-0.8147121282489665,-0.7349852625458534,-0.5587472197725902,-0.16231905347318895,0.3656179377935642,0.6803145635087094,0.8111204422372862,0.8664159533580024
