0.3049997430745278,0.34581817069235815,0.38021232328623683,0.39996733346594615,0.408134349441114,0.41830920770826474,0.4434791009993272,0.4749636636275691,0.4988040516525967,0.5023131936818006,0.48342155994416486,0.453914901000502,0.4206019489463414,0.38583242970812864,0.3493961068113432,0.3208106459401813,0.305120322494658,0.29737953137811174,0.2948309880591527,0.2915975880506739,0.27688813866361367,0.2436326158308173,0.1981694678785645,0.1466105788361044,0.09758701161474874,0.05587693411257026,0.024253266317717206,-0.00090934493693905,-0.01969877783778428,-0.02879186828642293,-0.027707009041417287,-0.02170363933177506,-0.022953128156286196,-0.03690487506586073,-0.06006840883742487,-0.09502163130243864,-0.13700088882254569,-0.18434723798374927,-0.23955818669860957,-0.2942245172072639,-0.3277656593785189,-0.33675513333165014,-0.32871666512147985,-0.319814268329727,-0.31207902521704595,-0.2955415700334392,-0.2651129047077176,-0.22180187143637572,-0.1822983303361733,-0.16225700963760947,-0.1721926199977181,-0.20770270306208363,-0.25534648904171986,-0.29416517962499134,-0.2962158553017037,-0.2598849778106602,-0.21835469860685147,-0.18753507999905566,-0.1625466071047025,-0.1348874392566375,-0.10900826138068954,-0.0930251801961508,-0.08755917699586671,-0.08851819977401965,-0.09108175570134634,-0.09169701526136474,-0.0900431240559302,-0.08378844983807415,-0.06794997151343683,-0.032871167270469674,0.01795672510918201,0.06864725834390838,0.10828424899605896,0.138677359515383,0.1634413016863617,0.18247127964094892,0.1915143208366928,0.19017384455846945,0.18168074920352195,0.1777045457098569,0.18423980693262013,0.1917663222256593,0.2000570153843704,0.2043603257808408,0.20010179422082772,0.1858089746239539,0.16791805458704662,0.15866443982577613,0.1674728294344592,0.19647945978481945,0.23702215521826836,0.27693603937163414,0.3145993594737471,0.34772110441771437,0.368974150750136,0.3316317761738966,0.21262796927888566,0.12590174218383765,0.09721113800226908,0.09202711809299306,0.0909258578197366,0.08527957315617953,0.0755312981822345,0.06402192367817384,0.053739076168325094,0.0455894508009831,0.040105417666941645,0.03527460342172977,0.029814278434411427,0.022139679104166834,0.011136469564297407,-0.00512021171386338,-0.029481289082216602,-0.06434530358519983,-0.11865577567128545,-0.20938440542869935,-0.2574198163703325,-0.2086330650877395,-0.16682114855445082,-0.14435826132264526,-0.13714357497675791,-0.13858417429980646,-0.14562168883744425,-0.14919551799701333,-0.143386393970335,-0.13404351772852466,-0.13419647462411488,-0.14633649450611913,-0.1630635901642195,-0.17381662340218013,-0.17168173072584866,-0.15908298306683272,-0.13999452869206894,-0.12147750303875174,-0.10949847113404043,-0.10561484487437883,-0.10882415955741874,-0.1183014770340392,-0.12769684761075897,-0.1337365139160908,-0.13648560054702674,-0.13753103289436466,-0.13921912621671478,-0.14477250285573431,-0.15150158031814154,-0.15329450397197275,-0.1437205022004396,-0.12920056592391585,-0.1171938204703412,-0.10553311356117004,-0.07906764472949793,-0.03409832307029414,0.01913657625076481,0.07397542076073597,0.12840007914411275,0.18397976225594123,0.23373123787874805,0.2640999264094663,0.2606678191511756,0.22085419138566764,0.17009610976859307,0.13607135395362258,0.12383200833106249,0.12798685633761403,0.14191193227017135,0.1558947690508375,0.16376030913739287,0.17003139651876142,0.17601968296020348,0.18468918862403885,0.19847864079494182,0.22276359539874194,0.2615212330629098,0.3126878849631063,0.3582668439478309,0.37573800612742225,0.36357890432888124,0.3411788217516234,0.3123370115863442,0.2772233327794518,0.23334557862580815,0.1906918546265978,0.1546147907768561,0.12696195930679197,0.10687423142596472,0.09781664591625895,0.09511705592455011,0.09012640690621661,0.06871975107547242,0.033559673504896095,-0.0001181174604418036,-0.0222464103347901,-0.03614751703485575,-0.04548417331382065,-0.055667467984879516,-0.06943633180838865,-0.08396300442265382,-0.09641598700839399,-0.10536637973261695,-0.11267680580738401,-0.12542822220638225,-0.14525370646208005,-0.15932446440909234,-0.16097186127035862,-0.15330648318500673,-0.1423193732850133,-0.1368892298870829,-0.14209729702063278,-0.16253502563734892,-0.20263417456420715,-0.2692525809857606,-0.37178975851835605,-0.4916384179961002,-0.4404005493721426,-0.28502164798667545,-0.18361682759805642,-0.1262184323537574,-0.09506137640719954,-0.08041660710904597,-0.07349042817036122,-0.06844580743188791,-0.06223626745676214,-0.05602407127809301,-0.051551044488519715,-0.05138806679275057,-0.05741723512120016,-0.07498347400833479,-0.10748014061924646,-0.13677183748441857,-0.14354362456259978,-0.14251869403073866,-0.12708118061868764,-0.09066823352159228,-0.046964413844686984,-0.009893058423814442,0.018411633444823942,0.04030461043297115,0.06343226450673034,0.09201536332098019,0.13247863042111593,0.18857845709506943,0.24455411011330014,0.2722224977637431,0.25535995077707185,0.21199184964692921,0.17810873196058824,0.17760673060316895,0.22905477351810827,0.342600295471231,0.4237047950263577,0.4124842932413471,0.3947038335694237,0.40423792864481095,0.4328115411875083,0.4584922424736621,0.4563384428188657,0.4219551581879561,0.3729276200776445,0.32604716566248354,0.2930704490722163,0.2749494769881697,0.269344364144044,0.27036995232334377,0.27424493549943585,0.2755575829800383,0.2682354937292382,0.24950242262451397,0.22106008044376488,0.1886073386887176,0.14824576598030687,0.10015302459869696,0.04717426318142403,-0.0051382503780615305,-0.05262721730133043,-0.08818236516833731,-0.09999839391071239,-0.07980219387295764,-0.04129606275900586,-0.008209776739105471,-0.006104007008658826,-0.03093452003065917,-0.06685887491734128,-0.10553590002021333,-0.1396610799981688,-0.1682185942362497,-0.19448799521021004,-0.218053668859921,-0.23180266987303763,-0.2372613677255549,-0.23754307205653724,-0.233200009077369,-0.22282850897456405,-0.2048482035698355,-0.1848443208036926,-0.17416113515589896,-0.17619044471032203,-0.1819323650935586,-0.1801166544091124,-0.17070006431119325,-0.162625427430928,-0.16736049002377715,-0.19013568609593065,-0.2372668446654586,-0.30589465330753096,-0.3610330470536254,-0.34860374827864726,-0.2754224381825899,-0.18859770511154908,-0.12943528955214595,-0.10811874435424558,-0.10342934050072886,-0.09881097472949955,-0.08508263484579988,-0.06373115933052932,-0.04449716484572423,-0.03375006034961669,-0.03474366749489903,-0.03017907306610966,-0.010857239098534614,0.017049375883905052,0.041501466958115615,0.06807575018251918,0.09624599244788856,0.12358030912976378,0.1490618296193929,0.17488074778678264,0.2053878621492687,0.23864690247461653,0.2682904376780762,0.28709763702453034,0.2977894169136555,0.31421502828860765,0.34693558261761637,0.38708962009602954,0.422624379388533,0.4415664406133612,0.4355103731736009,0.4135965842572682,0.3859494931213018,0.34487282810074116,0.29207853321027655,0.23713512420353516,0.1895008856184563,0.15271357007784728,0.12933409937376666,0.11701143557408321,0.11268271516163958,0.10628132843423096,0.08809117519128822,0.05253245447866611,0.0015012655832699396,-0.05476085602202134,-0.09993123828465059,-0.11701075927013525,-0.11273023418900244,-0.10522941689618073,-0.110334192407526,-0.13153546017987103,-0.15494389272465928,-0.178400575421893,-0.21655845233585203,-0.26601693255549574,-0.314141711145851,-0.35094548447902335,-0.37145359236051595,-0.3751010579384311,-0.3698689702400597,-0.366478745625598,-0.37017293290388537,-0.38379099625193697,-0.4004966094039439,-0.4145058831230968,-0.42432255634237215,-0.426270336013677,-0.4175356820184658,-0.396129168001251,-0.37264476720304057,-0.35206092037713266,-0.3401155430265016,-0.3311076525039465,-0.3158695517060524,-0.2878779910709278,-0.2453512553387021,-0.1969768054300579,-0.15237550461018803,-0.12022840290833725,-0.09566514493162155,-0.07218601343345331,-0.05001338105334778,-0.02508167544798732,0.0041478621891334585,0.03345643920946506,0.050728124204790434,0.05646781078198317,0.05713101366879657,0.05456163886612292,0.04845268986559375,0.03870434912510968,0.0275385545254612,0.020376414285306975,0.02276660298100875,0.03164713050302933,0.04554340760413898,0.05992019612495394,0.07172255213804148,0.08159239817640328,0.0914079289417343,0.10714301170527349,0.13045583232099484,0.14708816547138534,0.1518493161137259,0.15670584190769538,0.1723599060271113,0.2018514911617363,0.24127244718823712,0.2860499498542644,0.334170084318381,0.3773543471134133,0.4074930760342664,0.42107627793616603,0.42456354101319616,0.4296089122391678,0.4356754627491244,0.4309548671633786,0.40869023324681586,0.3724897852605653,0.3274857932802536,0.2777858108012038,0.23532958875056975,0.20188753415814864,0.17807065485436666,0.16116449175615152,0.1494268469942783,0.1327472369100615,0.10733793272724611,0.07997079642587338,0.058515111658764496,0.04426822182930483,0.03164748760091275,0.013446522421789285,-0.012783244817306383,-0.04231004704555225,-0.07092205812008003,-0.09393294344515771,-0.11418571109215898,-0.13718677595218057,-0.16769241866228954,-0.21083446237230843,-0.24941829643007285,-0.249415265104241,-0.21920149865982072,-0.1875518241193184,-0.16075424810232086,-0.14033858196862503,-0.12896710862920333,-0.1286762467763121,-0.1422542175953657,-0.16756712818534378,-0.19919002689762316,-0.22770063080361674,-0.24416404544785072,-0.24145357510250273,-0.2218292974671063,-0.19484162143912884,-0.1687604849939505,-0.1536959197734629,-0.1551993239846573,-0.17254044813529676,-0.2053787724480774,-0.2631056427838346,-0.32571404649420665,-0.1588058211765629,-0.006146201698824469,0.06910221777287907,0.11461031247695108,0.14596691749343726,0.17039898229402867,0.18961155932542384,0.20234911364281039,0.20388027828397723,0.18959806642656948,0.1680807321706963,0.15044971437746027,0.1427439439710101,0.14862438203692144,0.16738342058057903,0.1835722536562451,0.19007211325928663,0.19416342727333813,0.2073427850042512,0.2288209397203123,0.24544861543551005,0.25232410413642853,0.2576592104556484,0.27204666116336806,0.2933547571140455,0.31029921791243,0.3106372688891764,0.28888919396593743,0.24621308447640416,0.1994286190102372,0.1602355463407971,0.12415629030163437,0.09087006996768102,0.05896856978637161,0.028613739634514034,0.01082639515667615,0.008069817376934933,0.01806662674590192,0.034948493341883095,0.052957544148914196,0.0597022849956321,0.050730942810508856,0.028922085563251262,-0.00014039992054368382,-0.028943862432296328,-0.05106626384743726,-0.05977242311096849,-0.05777248598572894,-0.06075481099732728,-0.08499921745262601,-0.1405327683809742,-0.2207916884420901,-0.2971512173187971,-0.34352265526987713,-0.3513884372618501,-0.34473056477963626,-0.3474415872651715,-0.3735919502282998,-0.42295602185965964,-0.48325166048907797,-0.49853846651964334,-0.4371004040083309,-0.35991101193330965,-0.28923384319153994,-0.22386279954963825,-0.17251555611682892,-0.1474846810183314,-0.15518508692261615,-0.18090909889362988,-0.20366070129817096,-0.2120800704883195,-0.20577743099544615,-0.1868352327404837,-0.1617658531106869,-0.13501553992603654,-0.11272492018622447,-0.09280771789486789,-0.07593026181979143,-0.0660589367813347,-0.05820993801135963,-0.0470978887330154,-0.026520666298730684,0.004675442591534482,0.047476442211324826,0.09242731200019605,0.13307456565419562,0.17046937998258938,0.20120664478273673,0.21939264618459825,0.2265884659115547,0.23163219979071106,0.24254240310060057,0.2614383300247892,0.29085350663964626,0.34722343100611086,0.43846197916018653,0.5204441207035414,0.5170822761762591,0.4624768004550256,0.4000507578896217,0.35948617879931505,0.3577371795587407,0.3974360974697069,0.42250906824012036,0.38662833341414,0.3409703235556508,0.3160155400287139,0.3064449701926619,0.3067584056063871,0.30889155429168214,0.30145669199289254,0.2739013015641046,0.23139338979564913,0.18176734721663768,0.13426833866500404,0.10049401371080979,0.0897307496197462,0.09457254332056811,0.09915177776115802,0.0911218675804401,0.06633643573246653,0.024491497536570022,-0.02677195001216244,-0.08070062485383171,-0.14055510931999332,-0.20396882657812176,-0.2672719832520924,-0.32650205023035495,-0.3676402208184412,-0.3611635680596644,-0.2887186861631757,-0.21687340009347966,-0.18127283974529848,-0.1648337188390922,-0.1513429999124771,-0.13865678603407927,-0.13117522255922423,-0.1309665783401507,-0.13789857313485823,-0.15126315775299076,-0.1730937532145912,-0.20649996122200642,-0.26940244967698407,-0.39297996211833025,-0.427044127249437,-0.2843595354957718,-0.18879959971628146,-0.13811452098241836,-0.1085273317449456,-0.08826025847518319,-0.07368205680068236,-0.06390251420483814,-0.05727097092320171,-0.05373153271464695,-0.0539662233976967,-0.0610552024361898,-0.08073704979397614,-0.12239432605842362,-0.14311017974070495,-0.09181289793514513,-0.04853852673318377,-0.017393645611134264,0.009016671739554616,0.03217374343452687,0.05202410813528677,0.06842612599999859,0.0846037560828104,0.10415654483835576,0.13346168804834477,0.18279740211948953,0.2594527643037237,0.3220629186998396,0.3265617717396126,0.2987675293458518,0.26592247682514464,0.23618502099225433,0.21664328184758383,0.20935410062779075,0.21097949612493014,0.21809281347125656,0.22886989597935836,0.24747981369385666,0.27383007415584626,0.30479028531172386,0.3388595055919032,0.37257683648932627,0.3995856041855196,0.40802726996998734,0.3841915218098058,0.324998575605453,0.24433916023881028,0.16692375030645829,0.116518706670166,0.10480536940136027,0.12566983691969913,0.14695008864362935,0.14632386463482827,0.13892684695905302,0.13264141569814775,0.12129650970472018,0.0984910978373352,0.06097673113417357,0.013284120753638407,-0.037094840042286394,-0.08447577763916575,-0.12506218610382167,-0.15789116287989172,-0.18329371488950572,-0.20357126633403697,-0.22047633317119972,-0.23949222618731064,-0.2624042875809295,-0.28715706450776274,-0.31007083325857243,-0.319723192073492,-0.30780206198944027,-0.28120374625658473,-0.25181909484559073,-0.22469731489743144,-0.20254626656063793,-0.18445088530898018,-0.17011675510318489,-0.16427873376005733,-0.1675509771961484,-0.17408213206182627,-0.17983403715325982,-0.18166762512950338,-0.1799045783466357,-0.18163468751576142,-0.1930871307300658,-0.21839946158554063,-0.22143874065058738,-0.1723724063768293,-0.12719912357621174,-0.09811876812808959,-0.07559847888753268,-0.05681297479928026,-0.04140196136737459,-0.029665136129659837,-0.020583535060740427,-0.013241943543057817,-0.005315704588612132,0.004874559574573912,0.021974927965070258,0.05348397844827802,0.10439830231928449,0.17311905689754253,0.23787686941342223,0.277601539217335,0.29273283639858416,0.3018319796131766,0.3173880306697806,0.33526240805536633,0.3507020913003941,0.363985086224015,0.3795236286226502,0.39278071031720474,0.4014506571582282,0.4014411038711624,0.3966637950031477,0.3911694798385172,0.37936284142810384,0.357973142263599,0.3297634371728324,0.3062438698793469,0.2868516309420939,0.275574974621638,0.2811887242008576,0.3027822146533114,0.32533132475885124,0.3313060543745962,0.31527782474853105,0.2832752140374719,0.24948119058378337,0.22408781253896679,0.21296467023162827,0.21455536664855285,0.21903679802792098,0.20345136927584062,0.1597916558176007,0.09324844120896426,0.024019237319043648,-0.028236903874013536,-0.06247659614643324,-0.07962444130014851,-0.08607726137776829,-0.08998478675520995,-0.09123113936609124,-0.09499808968356283,-0.10093567604016455,-0.11420706961389876,-0.13835993356339063,-0.16783378363103135,-0.1932366367674032,-0.20906413659186196,-0.2269499164253369,-0.25919258087946884,-0.3157173097847121,-0.40814061076953095,-0.5043326855210668,-0.5238919683760312,-0.4755583831680127,-0.421779078510842,-0.3872793141269119,-0.3722745324494207,-0.363902089963119,-0.34826874493893006,-0.3211117485140366,-0.2910953085986268,-0.2662471154287836,-0.2527131794836903,-0.2516762025464114,-0.26020250015187785,-0.2690811010464439,-0.25816342598776887,-0.20741898791176014,-0.14046454617620593,-0.08908620181168732,-0.05686639389731001,-0.03816259161075734,-0.024430495571983204,-0.009313674540126896,0.01807422724630047,0.06493147857959841,0.12764235406146232,0.19405848368168965,0.2508394277498909,0.2861227123117549,0.28849556598533654,0.2775540940504038,0.2718891413422876,0.2713038868089629,0.27483166395381214,0.2835376789952167,0.29731434923602196,0.31821525412851437,0.3376663720836216,0.3530774414021437,0.3590698843996229,0.35154358164867144,0.33240094888774757,0.31610745304924837,0.3087664011202815,0.31314688714258354,0.3321618385980029,0.3616105810075621,0.38954313389488504,0.41233007445533193,0.42212138659482046,0.4126192361237924,0.3844983910045222,0.34603279592353486,0.3172138863000593,0.3004142669847091,0.28022358331556,0.25061069048084567,0.21996073424583232,0.1968345528947422,0.17358317824735753,0.14647494979311898,0.11252644737996882,0.06937557409213325,0.02500354770627949,-0.01199958589481724,-0.0406090386560399,-0.06115242018801434,-0.07904979465107412,-0.10347519324052165,-0.14613531199178165,-0.20419203585187456,-0.25531507576712764,-0.29043673389502933,-0.3162504008582929,-0.33582986975257256,-0.3507470882071119,-0.3560712062838251,-0.3581386390734813,-0.36613672030050237,-0.3833607072085386,-0.4054483596219502,-0.4225499826135796,-0.41631282295233524,-0.3898845711625865,-0.3475337836984632,-0.2981486142186001,-0.2560015599689014,-0.2309077299420335,-0.2221641218951337,-0.21173681098830624,-0.1858672432071237,-0.14541855317324343,-0.10401771900468268,-0.0682363943152874,-0.04295601475150112,-0.029603413799081702,-0.019192036685376737,-0.002273965382971976,0.02106922052336088,0.04619014431985947,0.0640187163236288,0.07375810402868867,0.08019891530129929,0.08753826555819154,0.10339842808838387,0.12941668900260084,0.15828989682408565,0.1893575160132901,0.2152929197248878,0.22760628651665574,0.21538093456781926,0.17773495541367335,0.12831351287658233,0.0852429801515691,0.06142855188763691,0.06557829758075835,0.12009632362221405,0.2532311495676175,0.31774227238075464,0.30159333533041577,0.30155556177205123,0.31971047597231184,0.3469871941337562,0.36739965744418024,0.36138058990744965,0.3249992701768964,0.27744428102380836,0.23882567902050508,0.22137082795467034,0.2167666114510509,0.21339123320977085,0.20760208286384238,0.19795626397723382,0.1851399218750572,0.17179450355585774,0.15679855529974052,0.1385965954416344,0.11419314041297263,0.08117550822152511,0.045973672895073175,0.00868144694051161,-0.03303203764900961,-0.06887757940535749,-0.08919578203409717,-0.10449016591446006,-0.12435248481542281,-0.15450877752002648,-0.1918568920353414,-0.22963172087212583,-0.263911252459494,-0.2916446561149388,-0.3162394034054157,-0.3427399269788654,-0.37214693415108674,-0.413094771232536,-0.4691984937598844,-0.5193024798413541,-0.5454154146464678,-0.5391006968864568,-0.5031948442194262,-0.44588481069491986,-0.37530894919299596,-0.301477717314258,-0.2366621222754383,-0.19300134280209866,-0.17523159310129274,-0.18568152928800324,-0.22180877574970914,-0.26964610848655945,-0.31657109113916154,-0.359593618840813,-0.39742313591878126,-0.4132126311851131,-0.39148744084611686,-0.336267384047147,-0.2595246812469534,-0.17612377932408924,-0.10305887982402125,-0.04968074899346816,-0.016333247358304496,0.002711422351851817,0.01629785124752797,0.025773620331068253,0.026488647967218823,0.016117470577069918,0.005130060725710412,0.012263099153354108,0.047187549661316205,0.10457410843675748,0.1706460322521505,0.23358769226115128,0.2924372819390746,0.3487521133451645,0.4075729089587951,0.4635055916525191,0.5003620212764288,0.5163623123207421,0.5234257931036641,0.5350024183503653,0.5427200122054961,0.5338685247111408,0.5010890658397991,0.45579327229141675,0.41453973663140237,0.3841620454080594,0.36400944774987015,0.34950461256898474,0.340428673735474,0.33957708498565725,0.3533441282151721,0.3767816473217763,0.3846609542825275,0.3605699005902108,0.3095211396838865,0.25250813287062107,0.2031716801109046,0.16622467289148568,0.14155920127693775,0.12216602043000707,0.10151477445142855,0.07907350193172115,0.057851220816395335,0.03893037677167128,0.023429807518893078,0.009242367048723653,-0.006637752618159168,-0.025713304338279185,-0.04809819890502689,-0.0737213466248077,-0.10771601533782858,-0.16171101995313333,-0.2421280604345748,-0.33037451212047786,-0.36334243142496636,-0.31566999955725517,-0.24562583801250423,-0.19526663533281818,-0.16679535461598938,-0.14978403291642303,-0.13573818638391205,-0.12291663840004946,-0.1110028914917984,-0.10307714080854045,-0.09968760964434006,-0.09914589442594536,-0.10237201733256442,-0.11396450543146121,-0.14137634281215924,-0.2068779940338449,-0.3765916394172914,-0.32678180698482107,-0.1716322895261714,-0.11052534751639333,-0.0790706709329428,-0.05946639892704527,-0.04542242997413603,-0.034200911050481175,-0.02506527043446164,-0.017202258943578,-0.00966703042446718,-0.0002450002924871535,0.014476251710626577,0.043469943147076966,0.10413016015403041,0.20459706915236917,0.23030589329210774,0.1846480103902909,0.14200515947524542,0.10921281887411179,0.08329661270407208,0.06361385796105369,0.04833903296750543,0.03567973477134696,0.027286999102541898,0.028801927087991692,0.0473563065850718,0.08874570600531378,0.14802250958146615,0.1952782079070035,0.2167700789250023,0.227066473194922,0.23851021822650317,0.257405987343313,0.27683708607045887,0.2873984578762552,0.28669437571829615,0.2798249772283174,0.2669373571973823,0.25536310038255333,0.2511041348226646,0.24951976991000374,0.2527122562323695,0.26396009727720693,0.2757150122940632,0.2706096458898499,0.24812305151420538,0.22158899224344064,0.19903397975094625,0.1770131233175384,0.1413022863491003,0.09002721331872976,0.02659702996862946,-0.041975967160354566,-0.09963202466351438,-0.13107030983555723,-0.13274630371757934,-0.10951985291517595,-0.07075809715643691,-0.044097873731100745,-0.05295588451770319,-0.09806704878167319,-0.16840246595317773,-0.25544417535230207,-0.3589555855136168,-0.4731129410328872,-0.5609101245088237,-0.5909543751724212,-0.5713515653930171,-0.520472813089792,-0.45584032355594406,-0.3929264406367987,-0.3502560828061884,-0.3300490827992961,-0.31148336741612537,-0.2879820039827233,-0.2641939693968997,-0.24357808026945316,-0.22898464969419366,-0.22459003315011955,-0.23100435202932051,-0.24777229241102444,-0.27473060229837704,-0.3030890776333298,-0.31629435155056607,-0.30160550093115196,-0.2643255338494809,-0.21237156448108513,-0.16566393276558464,-0.1275056132168065,-0.10114037937925209,-0.07914336516055814,-0.04960430797898673,-0.015519169350139498,0.013087595578684608,0.044466294818776377,0.08069454681110605,0.10874214594057507,0.12682491987480882,0.14980769745860914,0.18698297486842919,0.22902118689953405,0.2651221918135996,0.29226906543452474,0.31153873312308156,0.32924957580150627,0.3436970080081213,0.3593103919786209,0.3786513560399042,0.4015621381104095,0.42111762691307203,0.430757549354695,0.42669364194914206,0.40853914691450427,0.3739753371751429,0.3202560897213653,0.26419159093948036,0.22333264915674678,0.2006871464234712,0.19237029722730414,0.19102346019079164,0.19031898105485454,0.18322171882550875,0.174575593899464,0.16788142410537876,0.16580785210543364,0.1664699412599463,0.1671657817473862,0.1608689157713578,0.14246061515255598,0.11717943052075132,0.09616856341493353,0.09109135907043678,0.09635084083947965,0.09584692430705853,0.08000194330845371,0.05818687264317948,0.04156421189956148,0.02753841992997505,0.00017774901507485108,-0.04864831430869707,-0.11002171735453854,-0.17202011081911972,-0.2276045696402942,-0.271919970986676,-0.2982858641357167,-0.3013289046009652,-0.2796142293267559,-0.24865310966141646,-0.23279395938980504,-0.24443000813799684,-0.28516536604910436,-0.3367342876368343,-0.37814303481458533,-0.40308272550299756,-0.4118660432342419,-0.4115051512424014,-0.40964462771550963,-0.40485571509956136,-0.4052897704847531,-0.41262139816829846,-0.42089413902875455,-0.42322328201570464,-0.40429035752967357,-0.35308875226764586,-0.2747070185814708,-0.19628299391665854,-0.14571272437475222,-0.12606174243932058,-0.1273679682431555,-0.1331057364844394,-0.12672245472086036,-0.10312354502608269,-0.06260130285525993,-0.009769192555634042,0.04521813365909959,0.09794962527730929,0.14847298676237625,0.1986649682950903,0.2445816525814353,0.2758433870008375,0.29054578197424236,0.2951444185752742,0.28783661765278645,0.2673712065422238,0.23795587290632375,0.19706713264845438,0.14503231502031663,0.09929112292522961,0.09111827964688696,0.1504036524671578,0.2514244455590004,0.3096707273743405,0.3286656899081225,0.3374452949994482,0.3487687645331374,0.3582413878735976,0.3575427556193224,0.3415267841055842,0.3176873306549414,0.2905578655691787,0.27133091858523695,0.2601431021808618,0.2519953402470395,0.246758009016368,0.2512207386588632,0.26047166323819604,0.26663420357386913,0.2617031594773868,0.2470259183976141,0.2248249900615508,0.19105491892665788,0.14756800039374832,0.09863586964986684,0.0497760376684759,-0.0004374735810864562,-0.03583254644523751,-0.04306606651618886,-0.029448902725836106,-0.017867041221544113,-0.018192800027012138,-0.03272046293851371,-0.06084033278352222,-0.09743659347210164,-0.14358304370276773,-0.20998338563015612,-0.31492780162892914,-0.4471857420173888,-0.5347899837574741,-0.49799161015769855,-0.4037479379926889,-0.3238667369098717,-0.2691997043875986,-0.2293122523331863,-0.19772586385538515,-0.1730711506619544,-0.15728419136715835,-0.15227862103609438,-0.1551157963227719,-0.1630105553274192,-0.17296084477225043,-0.18262645968106064,-0.18635104876943165,-0.1822885311749428,-0.1813253554375856,-0.19909865530859605,-0.22914359300119155,-0.22608046530788362,-0.16706475341111815,-0.09565399110474646,-0.03472349561939217,0.010972198180263522,0.04269549347717832,0.06085897867268768,0.0713842925267803,0.08196084986658123,0.09739538848021995,0.11889739092047703,0.14537511005404985,0.1811375405893347,0.2219499009217777,0.26503480717471234,0.3104197148979257,0.35130160419635625,0.3827851821435014,0.3994273342377397,0.39955061067447833,0.39146591971263844,0.38686933048371114,0.3911201137536543,0.40039308286700864,0.4106395584000736,0.41597069891433974,0.41353303658316776,0.4023558118058369,0.38433464762919933,0.36342147827530746,0.34426453494277776,0.3311646371776652,0.32339190707278115,0.31754292110297244,0.3082331490914535,0.2906736073685173,0.2666438386049409,0.24176047066969797,0.2223953113198009,0.2109664683473045,0.2031229696808314,0.18895944952988433,0.16615586244543698,0.13829233558065654,0.10638668470441548,0.06857006601548582,0.027521778336011493,-0.006319282246839691,-0.03608430566312671,-0.058335139956591876,-0.0719620042799605,-0.07722841435474205,-0.08425630118963895,-0.10096709540776759,-0.1372759095276718,-0.1976462779432658,-0.28132410575606276,-0.38244721779037755,-0.48801724661703777,-0.5770946900509343,-0.6336978544051707,-0.6518458766168134,-0.6364115057277134,-0.5941751898888653,-0.5435124986228449,-0.49785074756203734,-0.4562674120148611,-0.41831645572636417,-0.38112619647710505,-0.3390595177901392,-0.291509186091331,-0.2553927536668515,-0.24350725851470936,-0.24627887216843927,-0.2523059309206062,-0.25319763683762264,-0.24783712126510204,-0.2374355878004096,-0.2242601291834075,-0.21475031640539782,-0.20974342751678646,-0.20440602978646755,-0.19823439547661761,-0.18805464739547845,-0.17119737048010453,-0.14628228616701092,-0.11376743596584347,-0.07695359780899848,-0.03949109011358398,-0.0008667365231574269,0.04005204343028438,0.08318820293121185,0.12767124448934283,0.16990748370851974,0.2123531704524323,0.23527497400272335,0.21620463028106054,0.19170764536927584,0.17245533188206358,0.15540978118995483,0.14213415642943455,0.13538415864423428,0.13690971732943663,0.13948548582139164,0.13829064555400167,0.13242721883241423,0.1265149408525278,0.12227984342642445,0.12100273130561034,0.12201698535034101,0.12454356643079931,0.1294354038602834,0.13661968488390888,0.14738540016060495,0.16435307362247525,0.19698314883613002,0.25405003097859136,0.3222112625831413,0.3372111555482404,0.31012083267733176,0.28626814442207266,0.26297318945658926,0.2204101839848438,0.1581446621374196,0.107775476495774,0.08506147199208805,0.07509075758198754,0.07260128727379657,0.07576217573069441,0.07697120276981403,0.07251879267883403,0.060682560797428176,0.041898800872509114,0.015151136748077615,-0.023469336787313035,-0.06974458334345389,-0.11266410375834868,-0.1492749119205768,-0.18362128255140034,-0.2134269493416628,-0.22234359283929325,-0.1851862584354305,-0.12241430378173347,-0.075866981087994,-0.05377949939717798,-0.054499648551081074,-0.07556657161603322,-0.1114250297365748,-0.15710837675347222,-0.21243373872383362,-0.27695072049718117,-0.32552013389474077,-0.3094139679014762,-0.25100602692436574,-0.20052628216488427,-0.16371608261510276,-0.1371730933237886,-0.11770377175800152,-0.10571788854492895,-0.09796604566551657,-0.08969630951481523,-0.07918756673110895,-0.07037913935771598,-0.0669977220115671,-0.06772411144692493,-0.06537902276653244,-0.05309813865973292,-0.031193870057623502,-0.003593698120637852,0.025284123414524046,0.05058703159671361,0.06508772472392443,0.06668805760485504,0.06425224979742832,0.06912381692414897,0.0888862438299657,0.1255260584076237,0.17345972873172094,0.21959693615041195,0.2535988558607944,0.27355096010579744,0.27722570857433093,0.2636746557559744,0.243782675199369,0.223604222548912,0.20708350754855942,0.19492747009985614,0.18621958981413478,0.17868896781861224,0.17470421760913954,0.18173309439499177,0.20122927542837288,0.2257186799628635,0.240160557711448,0.24071245317209192,0.23342580416985265,0.23071656576551844,0.23459260735935544,0.2420298316500838,0.24478340325776318,0.23185698166630056,0.1993590232204698,0.15151824099922953,0.10625114462063959,0.07421001847676459,0.05268557779673922,0.03544725136043905,0.017032257098088654,-0.005396514700492394,-0.02828652687003452,-0.048141706897696875,-0.06182626165609886,-0.07043949070198974,-0.0777278203615431,-0.08713869129647654,-0.09978785100785094,-0.12029409093200959,-0.15106214683138103,-0.20385445827467108,-0.309238073741229,-0.4600047176120956,-0.493412371060632,-0.4466678133307643,-0.40316467165839803,-0.3642921113258755,-0.3266823358520684,-0.29696047805357234,-0.27448351235326274,-0.26179344075375016,-0.2520742370690643,-0.23949892482203464,-0.22862284538588426,-0.22766883014616865,-0.23174311048263596,-0.23699081424749935,-0.24089608215429925,-0.2440976619126185,-0.24755079834837487,-0.2510830035273296,-0.24539573901844308,-0.2227945385268886,-0.18739577780278,-0.14515118911258468,-0.10366465116606367,-0.0666676121817909,-0.03651523611952997,-0.014538085988934116,0.002596600280986058,0.01909227264136708,0.03590199033079104,0.058466953561766205,0.09610502663096643,0.15155726599005717,0.2153930442411494,0.2682360400196271,0.3109925010770726,0.349686099791291,0.3809289890599465,0.4068655215450465,0.42773921062771464,0.44699065954418576,0.4728768168172915,0.5013832035097486,0.5196718189531002,0.5175111602173069,0.49547000345721964,0.4511982013976253,0.3987808440541403,0.3569917737991278,0.33072917146224834,0.3155792384010596,0.30787831389113063,0.30142638020320706,0.29083864381744295,0.2771466121951001,0.2653472159835008,0.2553294890458947,0.2472621315325076,0.2373762270656422,0.22172251285641106,0.20086128579880724,0.17780617918529057,0.15151659038294243,0.1252953883073176,0.10148268725664493,0.07663896920229582,0.05004267939199549,0.02677690929210385,0.010253901713584763,0.005229465452260173,0.007089247287746582,-0.0021928082348930834,-0.026829029407237217,-0.07260357673419439,-0.1302931784391347,-0.18011238154120235,-0.21740934104218865,-0.24825376027432558,-0.27953527764992253,-0.31001091310852574,-0.34525304692140524,-0.38042447806759544,-0.396190266365852,-0.388950105521894,-0.3527712350010208,-0.2990640587630845,-0.24283579648089346,-0.20001295252683277,-0.17734948675501178,-0.17746919575786313,-0.19437077232904032,-0.22158576184220777,-0.25276961379357243,-0.2736030356129132,-0.2783103489896891,-0.2692567916526614,-0.2572317463154574,-0.24923763092926063,-0.25188018554917246,-0.26233485997552924,-0.26771955232754896,-0.2537279771877694,-0.2196236494919073,-0.16921929158204563,-0.11567786279227023,-0.06486633254149478,-0.016693746447503804,0.027876891161722813,0.06530084648264607,0.07661492651506097,0.06737154630808587,0.05697788895759823,0.06269416869519925,0.09133892637818725,0.14979551941207475,0.2446066750750728,0.34842717530609824,0.41776716137017134,0.4358821370978501,0.4113858295344099,0.37880871378383885,0.3586217350453673,0.34673473481435396,0.3306849459424532,0.30097763368446556,0.2578014007714319,0.20553890853151915,0.14718920931862875,0.09889922366957649,0.07998878320850442,0.10268124355271252,0.1388303007453869,0.14987689309064955,0.15469192016879424,0.1581078877862763,0.16238055681528887,0.1692233192227396,0.18351723974878123,0.20433177603459649,0.22592696291378792,0.24303364089385915,0.2561982518891577,0.2648209750886456,0.26706403806184525,0.2630100711349517,0.25134918756835145,0.21279925502490607,0.11091568082198333,-0.03356579992500184,-0.15331427377742704,-0.24413669258906034,-0.2841109244937366,-0.24136447849144338,-0.1745183897969936,-0.12746824576579113,-0.10600282069134902,-0.10746367719478739,-0.12775219790238093,-0.1642291213615725,-0.2146766826976688,-0.2725141639400278,-0.3252928714324758,-0.35376522097776797,-0.35104420682199655,-0.32927918604436734,-0.29820573944653395,-0.27105572286835905,-0.26456684484200327,-0.277264371617628,-0.29311966776756004,-0.30297656167310455,-0.30294734114264776,-0.29132215122612815,-0.2744833178067143,-0.25726579632223806,-0.24415576702956734,-0.2289146725388746,-0.20883367787852375,-0.1880501635274791,-0.16821315890842214,-0.1501773739822373,-0.12843946933121156,-0.09578166509140106,-0.05138710412182271,-0.005082852317247693,0.03573402177794814,0.06750362891186848,0.08908970186916311,0.10575830234156101,0.1177288391704032,0.12082090055272142,0.11838421578312701,0.11829581955108578,0.12341387448429281,0.13954129380525737,0.16215110623586027,0.18321103261323105,0.2028640460363425,0.2119568310115136,0.2093736810611101,0.2015213508038906,0.19057493171119796,0.18705307543395758,0.19847474143785834,0.22131731226515872,0.24847089973992423,0.2650252551701503,0.25902381660690416,0.22763326685366225,0.18500525715643337,0.14482556099008254,0.11628629105479638,0.10299779115580507,0.09884851708763455,0.09593537569950648,0.0890773655831924,0.07836746996635718,0.06840595980266469,0.06263450418926585,0.06539425755719877,0.0775769942220145,0.09547594955116555,0.09946790993868282,0.06644595827060672,0.021442984669311573,-0.010931852963584445,-0.026754515990442714,-0.028460847432844404,-0.02363066655504697,-0.018555803537161013,-0.017924940524488203,-0.021374394232571484,-0.027720337978503845,-0.03586626327545918,-0.04953879391678042,-0.06645936204370644,-0.07861710685380978,-0.08508219376012388,-0.0865594756985444,-0.09024869984710203,-0.10081579131878474,-0.1172434321432887,-0.13863728442912132,-0.1632091998076306,-0.17935083449416772,-0.17314863233515315,-0.15443018247714138,-0.1399891791143279,-0.13029739697894252,-0.12046113073439053,-0.11073652593695331,-0.09954003747573464,-0.09017896617621295,-0.08382649555036478,-0.08246026296217943,-0.08310331255124885,-0.08959025769832825,-0.1029177824551049,-0.11771088492688998,-0.12787859378455027,-0.12940274753760742,-0.12322195660674573,-0.1111758904382373,-0.09593556716666195,-0.08406992700915265,-0.08030009214447252,-0.08537830650535577,-0.08716929712116574,-0.06915358422696145,-0.027276395266219017,0.020558186597836373,0.05491533983576602,0.07402090593768637,0.08528799896418773,0.09237837507321663,0.09828810294631768,0.1068835512990302,0.11960242179330854,0.13854603957466022,0.17170348265995247,0.2245517800456607,0.29432089746875767,0.36503906710029815,0.41541279994174785,0.43376190992655106,0.42874045926677007,0.4099202684195042,0.383521593939289,0.35099826919501803,0.31336582686649045,0.27360756166256694,0.2375806627092067,0.21422832883541018,0.21352075095954487,0.23330085730951877,0.25733352153677386,0.2681063646381506,0.25954842675507755,0.2346936386006788,0.20441323405195186,0.18055341820167536,0.16699996732621228,0.15721501354490247,0.1461544418703313,0.1362433779047718,0.12840781174300853,0.1168738610642073,0.09544964636074878,0.06279672960908372,0.02223664346974719,-0.028689116328235027,-0.08044003305135908,-0.12115253161951459,-0.14817594200224277,-0.17226637832427671,-0.19938338667501176,-0.22693581484639208,-0.24752304587534654,-0.26304768061206263,-0.28130678604368714,-0.305341498493025,-0.3443009362616103,-0.3884134985338063,-0.41049391177491085,-0.37935091851239927,-0.32616407583601253,-0.28813953235550654,-0.26601524266755977,-0.2585056921205915,-0.26305037327474995,-0.27156181111434563,-0.27759735448400485,-0.28109798220644727,-0.28073257955799724,-0.2641859891154251,-0.22224514248682745,-0.1693807912293391,-0.12774110490987975,-0.1123067769877292,-0.11959986796248878,-0.13941148692983554,-0.15774578562103783,-0.16011200847768958,-0.13922750239804182,-0.10304155912155172,-0.061946840094942966,-0.02584572667751511,0.005216244832078744,0.03809034651678687,0.07408431358539264,0.10857447902552983,0.12226364750773389,0.10826985236647328,0.0894789944867718,0.08593905119197753,0.09102813157938955,0.09374311577734336,0.0985812994120928,0.11600203940365524,0.15079124277152817,0.20415252240432788,0.2740205144516182,0.3509511250048919,0.4138583124764601,0.44558439497517466,0.441898723567717,0.4154964780191472,0.37767643927289374,0.3352206203135183,0.28819321331798325,0.24134002547215697,0.20364888268606543,0.18112436064103404,0.17648819853706496,0.18071711337551888,0.18809378724486028,0.20366823573841467,0.22812149879696367,0.2554237124656703,0.27470447515387353,0.2800174241789356,0.2740472077453462,0.26085285004044556,0.23676106933696778,0.19864219564784405,0.15257416764376577,0.10083280035684586,0.04869418251216007,-0.006332428120756058,-0.059304068480270956,-0.0994639891902743,-0.11551139144868423,-0.10310818744862478,-0.08358872482957933,-0.0791276013234944,-0.09519120974303714,-0.12531299588096878,-0.165811834248192,-0.20109625128686062,-0.22664248967103165,-0.25030869729193633,-0.28826210628370974,-0.3371373874578594,-0.3847107351361674,-0.40955397432507035,-0.40892937673665514,-0.39159221817918394,-0.36863486481387714,-0.35024373955685995,-0.33874614929493463,-0.3265885375913133,-0.30870949466515124,-0.2871024711173832,-0.26553303964355945,-0.2433664297291166,-0.22185187389366992,-0.19889149183200028,-0.17735327037792795,-0.165581338234877,-0.15994818413276415,-0.1506247176690973,-0.1294870902318815,-0.09970378664961549,-0.06916699950301516,-0.03828389138632736,-0.005714701633708026,0.023798210559020615,0.05291683031908007,0.08644366889892341,0.11975898233309291,0.15137004779721205,0.1774999870064504,0.19581523617447552,0.20150593392638724,0.20000901271293173,0.19743436300016848,0.19978959276239044,0.20885585355400427,0.22593891646452527,0.24821494854488757,0.2734100703539236,0.30133300408609515,0.32917895407398773,0.35003118314110826,0.3587925969895706,0.35731833798155604,0.34915202492302116,0.34683720316589534,0.35498775504664787,0.3706094857519754,0.38761399356940435,0.391566253283877,0.37746422843274824,0.35435645300470986,0.33714443555759493,0.32298554607681107,0.30940385480811294,0.2981110715541144,0.28402417080621006,0.2631269740079562,0.23402409520268563,0.20431235644280046,0.171827995501963,0.13250550606763947,0.08510154761174449,0.03813624841940895,-0.004913416639516053,-0.045339232303675474,-0.08362502531832502,-0.11150614008979877,-0.12391460037727975,-0.12177834968108563,-0.11070592440004497,-0.0964763346295212,-0.08207715530114115,-0.07153656457662341,-0.06766403695173717,-0.07094571197373463,-0.08033979878628307,-0.09443129396051127,-0.11191646356348385,-0.12922905857580022,-0.14489974611921633,-0.16123700745498878,-0.1786423528993046,-0.1958900196225219,-0.21563526206011818,-0.2456413276852256,-0.29257572899211426,-0.354653461638419,-0.40581821372714605,-0.40005812942097474,-0.33809267896384093,-0.2678284062427287,-0.21047208811192125,-0.16641364749425339,-0.13140630516299076,-0.10375359418940595,-0.08096014007790657,-0.06159944288847418,-0.05012988693008625,-0.05074036142170727,-0.05853243625478464,-0.06348125091399888,-0.05837086002973905,-0.038787422683526446,-0.005188383193192586,0.03533385190663538,0.07371699866374945,0.10668819723390852,0.1287045248347894,0.13377989460728687,0.12745084743565732,0.12144438077005158,0.1261693030200588,0.1420494553346281,0.15930084985902568,0.17707281111020945,0.19675099341172328,0.21451911662135936,0.22899951129966048,0.24686304739327203,0.2743112096555696,0.3088396058136044,0.34527132529997434,0.37811384818792343,0.40391703130329604,0.4156305022702499,0.40866155968231027,0.3936216052989047,0.3829961384539857,0.3822423458896466,0.39040678013912344,0.3929503230760966,0.3782186973768039,0.3496104594754599,0.3188164203764632,0.2886491413122846,0.2585746919392677,0.2243616327052804,0.17955761122022737,0.1304984907483638,0.07963438009599585,0.045069437768013004,0.032132876286895776,0.034491147424453895,0.034849619456625215,0.026026954435762518,0.001837586691103542,-0.037635842742113707,-0.08323976137742138,-0.11964423484244113,-0.14558112222630698,-0.14882432602666198,-0.13302521316492558,-0.128138469443266,-0.14154873443796645,-0.17185920952781636,-0.21867427261771932,-0.2665839737206875,-0.29727247327952755,-0.31029795614737893,-0.31718734333400694,-0.32556966286962435,-0.3455414737153053,-0.3835595769435753,-0.43354578291394213,-0.472045926053329,-0.4793110500059128,-0.4441319572282134,-0.38127564498512756,-0.3153192613627848,-0.2537279234644383,-0.2000733453167971,-0.15871531741022668,-0.1363352931880762,-0.13571135795730796,-0.15235839011804098,-0.17465440042635902,-0.18399561484586122,-0.16554489058275765,-0.12210750641930175,-0.08166099834222816,-0.06480308264988398,-0.06463523429927262,-0.06591574512732482,-0.0561847030059644,-0.028477612193500843,0.012565463593171577,0.05396166244344476,0.09377981191426997,0.1341367280788236,0.18877696425608254,0.2765164844679111,0.3089138598188315,0.21317688443845678,0.15857118034881157,0.13144547248481528,0.114193137299699,0.09979510876308306,0.0898355316521709,0.08429807426258533,0.0815276427982321,0.07924702088874121,0.07543097592355584,0.06775965373350998,0.054939422785224824,0.037604504386320556,0.018207601089249018,0.0032424022228333565,0.0006117553461753221,0.020634601019007267,0.07432124556984336,0.13125191290083152,0.15530439137389226,0.16362136146535503,0.1657752580264526,0.16133768522389844,0.1519895158425198,0.140034662718299,0.12990432184914835,0.1249387712922527,0.1251708636155488,0.1264126297737241,0.1254102070775867,0.12132836255980357,0.11574448696748625,0.10785039250041034,0.095428622366433,0.07458346800616018,0.04103271870459193,-0.0014450936853511464,-0.04089626581324434,-0.07476117914369715,-0.10080997163288508,-0.1224782130903423,-0.14453607979674096,-0.16692542362058985,-0.1831011526385344,-0.18560048063986165,-0.17967062407269466,-0.16881469968159324,-0.1590741963189314,-0.15404537116290862,-0.1560503053434574,-0.16722527274814572,-0.18973419776640355,-0.22002348820734355,-0.2557790435633371,-0.29052801158145325,-0.32962888150805386,-0.3728047070903199,-0.39194983596346517,-0.36921218344218304,-0.3374562491483613,-0.31248240626546164,-0.28915211753417513,-0.26052963019340114,-0.22699782976780658,-0.18880422109786638,-0.15068323885139273,-0.11529105369630765,-0.08413105666483893,-0.04905784731215383,0.0018967488418172166,0.0848772886012736,0.20414055624920774,0.33034619664779286,0.4311851389136859,0.48379066151513395,0.4604627390786622,0.36171961396954705,0.2543097543347897,0.19254420939505343,0.17318710679735438,0.1851215284855248,0.21656936966793974,0.26007857779307175,0.301796241188878,0.33350724280511557,0.35895822520199794,0.38092804374016387,0.4003636078217564,0.4102055112665551,0.4081115587810188,0.3947322055837465,0.3664216867048952,0.32675337545685623,0.28659449609324905,0.2546508334940569,0.24589764503783376,0.25659544472843426,0.27726694544283553,0.29287440979493684,0.29697951127301914,0.29152791655956506,0.28416261924456404,0.2743000323936366,0.26308510430664156,0.25076985056496653,0.2301961496062,0.1921740778636996,0.13487872116847296,0.07425651200850673,0.021329893502991838,-0.02153963874127895,-0.06333171914811958,-0.10450416733062792,-0.1516302823627658,-0.19529605598809163,-0.224211414684634,-0.23374842124898584,-0.23397726732125881,-0.23494209939849475,-0.23537692478566855,-0.23834125691135064,-0.25221918818423633,-0.27623149292192906,-0.3067803761890521,-0.33761425589492206,-0.3611816887275099,-0.37144136145560924,-0.3701063351160114,-0.3625187046364326,-0.35342187386139196,-0.33900501678869543,-0.3263658169467755,-0.3200712094698531,-0.3173057178261728,-0.3155555273446535,-0.31310842241201464,-0.3083043833512485,-0.3023030046382106,-0.2948450256609072,-0.2816011760089209,-0.26287280251433937,-0.24345910420387337,-0.22461439226163415,-0.19484998706711948,-0.14966722971364368,-0.09772557744269973,-0.05197648423018201,-0.02221593231018091,-0.007916958352790186,0.0023316796869353477,0.02376235499528088,0.06532762834646709,0.1190284136510145,0.1682391366006432,0.20077744403403325,0.21510496112687452,0.22158846154911216,0.23095950255358988,0.2562483945457467,0.29366287700034516,0.3355204075567978,0.37399545837582543,0.4029050146118922,0.4072361999129038,0.38385250519220254,0.34495124124705995,0.3179606105248301,0.3120110666110969,0.3176249180120191,0.3226156690179235,0.31876093015625295,0.31096028854725905,0.3027490137135885,0.2898845102637375,0.2690531158740111,0.2464245971410886,0.22461221462662562,0.2019200414927699,0.17807243686193164,0.1574521153786454,0.14046311506803158,0.12775871779202858,0.11875342622600164,0.11144088555712206,0.10412128129003177,0.09688736559527733,0.08635685327961377,0.06939329063880625,0.04517635365615868,0.022096346592774724,0.0024170186811564307,-0.01825806351814698,-0.0354973441643849,-0.04993222442553691,-0.06383142290786607,-0.07290101127252843,-0.07448908750086722,-0.08392486541083595,-0.11912707986965336,-0.17890265302656969,-0.23136178565162696,-0.2625074035314676,-0.2754309909950177,-0.2794446249806852,-0.2857637261798788,-0.2946039906298542,-0.3098616254034832,-0.3233096410601215,-0.32296397442462665,-0.30279430009583735,-0.27125998082364183,-0.24585836361531097,-0.23506680123313636,-0.23803700997415045,-0.2520003134213089,-0.27602332581902467,-0.3019430044045675,-0.30745586608709696,-0.27883154862310305,-0.23273386293864515,-0.20089761311880597,-0.19654750694551254,-0.21435722660099663,-0.2387773337161715,-0.25023677276733686,-0.23769441768755403,-0.20288037721183932,-0.159004929919716,-0.12189644358374263,-0.09887336989793136,-0.08213712849375508,-0.05483389605729369,-0.0029586400980560206,0.06039807870948106,0.1069092190537977,0.13240503674228407,0.14040634974772123,0.13484014961443921,0.11577709741103197,0.09878385008030892,0.0947876968829892,0.10253977591041272,0.11662892912316339,0.1367484568444975,0.16060613238862156,0.18424235795307803,0.21079756709009814,0.24533813803077018,0.2889387094929752,0.33676228297622307,0.37206245019923473,0.3857069029349413,0.3781043702555355,0.35268787460907236,0.314086044790695,0.26878083218782955,0.2251493523048382,0.19111587490274626,0.17078155873414505,0.16448506988984385,0.1637685099529742,0.15309006518428298,0.12783056817879165,0.09557809276810972,0.06822737830653747,0.05494776249418839,0.055879594374912175,0.059524649192556976,0.05961538318285856,0.055296422786859756,0.04954681798359908,0.04528842952510823,0.036637073090260645,0.02057325869225854,-0.0016272656605060421,-0.03146434201943552,-0.06260817113751345,-0.08445398248745946,-0.09045128005878438,-0.08725816056976589,-0.08109953556444692,-0.07867923213608925,-0.08211791995370755,-0.09152604194996197,-0.1031877855526703,-0.11462030789139781,-0.1301870201270992,-0.16127590529788086,-0.21918348726067208,-0.28082024986614224,-0.2507003232852407,-0.18806992274573286,-0.14814354124031442,-0.12158488932601233,-0.10101974594513821,-0.08605232838559373,-0.07600959318189593,-0.07328127199440729,-0.07969025647330419,-0.09699837897086439,-0.12570321531303386,-0.1612915632296968,-0.19085083626699875,-0.19594394838629015,-0.1686285797500835,-0.12108277325172892,-0.07561843035298432,-0.04927266138722352,-0.04476129364456424,-0.055971023389362426,-0.07489903199092468,-0.09004564482849463,-0.08726221807761056,-0.04775246280280406,0.02270361705990324,0.08451093008693834,0.11929706465637235,0.12954373725055976,0.1094397321495935,0.06842846704297102,0.04162312111637523,0.04179047312510798,0.07045681996944861,0.14226694380910682,0.24640717477362917,0.32178231460309614,0.36631633260739555,0.4098718926383803,0.4597373981412036,0.5063805862367653,0.530091670240632,0.5320720408194852,0.5201160138501145,0.5000132156270466,0.46839030303499674,0.42250632603489297,0.37150603403858157,0.32120020853143005,0.2764794857694087,0.23882575441705914,0.20502629800091415,0.17888550649852186,0.15999841092783593,0.14681579618482993,0.1359704571524924,0.12292692074658289,0.10712233471173332,0.0901088119734706,0.07502711569588673,0.06501564240853447,0.05282626196698511,0.029195116179465925,0.005385476404150729,-0.012870413000164602,-0.025414801584288202,-0.03278551215134808,-0.0367904827687687,-0.03951602428241866,-0.04451959538197322,-0.054548460953437565,-0.07157474152258966,-0.103064885365653,-0.1665658142742857,-0.2764266779989167,-0.37984427359790357,-0.41018889230852734,-0.3888364762631273,-0.33969559401006466,-0.29921372385260836,-0.29039757832304763,-0.29615185165893926,-0.2768265319028191,-0.21372581044327812,-0.1465039212423674,-0.10056339838451978,-0.08325971772721337,-0.09435298073118854,-0.12624134677474047,-0.16027866391126488,-0.18116603311558044,-0.18637645879541534,-0.17776731544032362,-0.15737471501437925,-0.13081136243923552,-0.10685374077503171,-0.09194500163513412,-0.08529628732159629,-0.08284401611180656,-0.07784510730272595,-0.06359855774126688,-0.04033958954318607,-0.019794673837036276,-0.013288123758992281,-0.00943517791641076,0.0007417736373400615,0.01790539605426614,0.033261702258900884,0.04415302919095088,0.055605373109557044,0.06909219836255283,0.08963749440774316,0.1183058881916981,0.15407492879600151,0.19304632958014173,0.226001490295912,0.24285266278651252,0.237051890316807,0.22124807861901563,0.21762757201950286,0.22281986571126028,0.23105129990764312,0.2387859000380166,0.2466922339258705,0.2569997667417824,0.2734060694927495,0.2939720066405948,0.31099961450609204,0.32163977546753986,0.32734701051338955,0.33185263760928724,0.3370126167286065,0.3432951679049598,0.34924034604282,0.34880640275293323,0.3350950896629029,0.3001289392405563,0.2442798877419488,0.16902996381838176,0.08979850779673483,0.016403662157117662,-0.04295962732579605,-0.08464596106495217,-0.11075769405375718,-0.1256747750080239,-0.13806503101061324,-0.1541730308395522,-0.1825940646401329,-0.22390335456375882,-0.27221821756764214,-0.31827069512769723,-0.36008596468709314,-0.3902543655503314,-0.393640014492994,-0.3650107120098062,-0.32105847227792894,-0.2751763549425464,-0.23651222863324925,-0.20411828143180316,-0.17297374307109678,-0.14159896930548818,-0.11357023945279812,-0.09237932754192164,-0.08189493198627672,-0.084184327122491,-0.09442603004150031,-0.10334292611326316,-0.10759698918866084,-0.10954116810383606,-0.1167437777773088,-0.1353009956785188,-0.17151138409814623,-0.21907214614353415,-0.2427105744197119,-0.21540710873157948,-0.160673296175831,-0.10240929344521174,-0.04397468111228884,0.017343318041940066,0.06891249875844073,0.11014267306049398,0.1460733984847006,0.1721234209429053,0.18310484322822104,0.18379588766357596,0.1853624172071313,0.19201513072105258,0.2016474422209959,0.20715025356415318,0.20572157948749284,0.20463822298588757,0.21420766616624065,0.23242814753116467,0.2522088006250794,0.26240357779948936,0.2599833667559925,0.2492570460973083,0.24219624361190922,0.24466364836552687,0.25575327707079715,0.27910997860239756,0.31156210706921206,0.33927847725389887,0.34827911527264543,0.33401719268562785,0.3052142418524008,0.2734146612428532,0.24343036560534223,0.21652792968592924,0.1891628530480256,0.16050344402129518,0.12647688948886376,0.09216031000115106,0.061725654683377255,0.03369947233976006,0.007572815093934848,-0.014612846405050962,-0.035163743799780885,-0.04955549346561529,-0.05820543110217707,-0.060393035502426314,-0.058022699923526606,-0.0572118925984577,-0.0660407990099731,-0.0885365499491805,-0.12312274662135236,-0.15637350975636372,-0.1753290465722776,-0.17780255675671686,-0.1802137565124441,-0.1879203210281535,-0.20072552890858186,-0.22175310229327216,-0.25147393524549966,-0.2798775677737381,-0.294546405412454,-0.29556969576909425,-0.2891995668340331,-0.2774830548016597,-0.2620112220825757,-0.25211068812329207,-0.24907781401732054,-0.24638569469311086,-0.2447868488561788,-0.24608315942459016,-0.24982777240373494,-0.2517594135670382,-0.2502190117754902,-0.2446554773188711,-0.23367678070833062,-0.21666091879007343,-0.19504951034397391,-0.17808787207142965,-0.16799256695545603,-0.165323238231162,-0.16376522289875323,-0.15943575070940874,-0.14992721236664802,-0.12577205859381022,-0.07970126194814414,-0.007274835826999811,0.07925607422291855,0.15056872780045058,0.18841272474543516,0.20680609757634535,0.2239207768697719,0.24483668044309612,0.2527828494497536,0.23449298247075046,0.19665724417144703,0.16361450559915094,0.1422699347934089,0.13219463423318914,0.13016262594734715,0.13333493806806077,0.14095118807895002,0.16226950994359682,0.21245538195422706,0.29549960166033046,0.3759983054759973,0.4285039249678415,0.45909104411890583,0.4679147672568034,0.4585490961931413,0.43923981258297107,0.42157248239860245,0.4099678334843087,0.4047101516293083,0.3982283622263763,0.3822910195689243,0.3530676331344961,0.3158622788151421,0.2739677372248538,0.22856902656055483,0.18313950112265323,0.14694710861139398,0.12188641910971286,0.10261523559950744,0.07934940333946469,0.05167889609473534,0.01999085533838973,-0.01765550371903347,-0.05789201192079972,-0.0946819475375059,-0.12832794117399926,-0.1595165170529112,-0.19220466706496325,-0.22705710029002316,-0.26093735452081374,-0.2892471607027052,-0.31097495909242745,-0.3320691763657134,-0.3516008222936971,-0.3622167572160524,-0.36245971232107027,-0.3602457231930217,-0.3649160152849847,-0.3704077256206548,-0.3702277414046758,-0.36015848106052967,-0.33809635287805007,-0.30737545593551674,-0.27329511482747204,-0.24082321471269286,-0.21786875165042935,-0.21108004226031768,-0.2178267046753786,-0.22665564877400565,-0.2357375397438677,-0.2468917764688554,-0.2636749273395174,-0.2764168451417425,-0.2755258520351245,-0.2663193888295264,-0.2571019942545282,-0.2496543297823404,-0.24031932755041047,-0.21755994355577946,-0.1753144411434764,-0.12109718157920552,-0.061910067248481734,-0.013962616477132228,0.013012554616477424,0.022717390034082185,0.02600587348875851,0.031169433690969514,0.04232594269202078,0.05802145890029227,0.07699153662622253,0.10901916755263384,0.15682746619890536,0.2148196999841714,0.26594806860500814,0.3061559260813656,0.33668988939419653,0.3640189896329474,0.39602962994075336,0.43397773490233127,0.46583919893226156,0.47520355697198896,0.458820917217392,0.42478936435938897,0.38285696200728425,0.33801692241350845,0.29867083859947824,0.27288779602542135,0.2756557798020966,0.33687465067648364,0.45890590578140344,0.41530677815776046,0.3206427780548481,0.2759436741428274,0.2578257659476998,0.2494525674585349,0.24305405788369497,0.22831304290051946,0.20171199775560453,0.17160358880150778,0.14373403700488138,0.1218871582920515,0.11255632254081445,0.12331069783194587,0.14232896118528815,0.14555672314289653,0.12214066580157311,0.080865302564919,0.027577159713449765,-0.04698794247501727,-0.13461921347752867,-0.20773315849272256,-0.2591282636298687,-0.30466830364763064,-0.3358955880312236,-0.3016090952012796,-0.22797789107742858,-0.1789474633980383,-0.16385911244936674,-0.18160282731246236,-0.226243176855231,-0.2622379236120059,-0.2567292207128745,-0.2287251450956931,-0.19617530443711964,-0.16618424363218767,-0.14390301194451655,-0.13016954206166317,-0.12914789056322795,-0.1455625187424797,-0.18617366171934419,-0.24359662663262532,-0.29272081962435414,-0.312526503834625,-0.3049727377756717,-0.28420855898243846,-0.26148153116879425,-0.24122526042963424,-0.2178485602138397,-0.18477737263552427,-0.13723449700931872,-0.07718738466045683,-0.021066773388255546,0.02131428554765666,0.04593037723841599,0.05975197721590569,0.06802688350781876,0.06478012779623299,0.047316722322421005,0.020277862070582006,-0.00593783492136486,-0.020699636331163812,-0.01407346984609441,0.024075378554146425,0.08044097295387398,0.1236443475375128,0.15115270924919594,0.16616518783885714,0.17082695601725156,0.1691243067764534,0.16068471360171052,0.1432292523916224,0.1167695795852178,0.08938364329218575,0.07042862345481932,0.06275385588964177,0.06379985501166395,0.06809504945873153,0.06772392205081255,0.05991575314712792,0.051521379131965264,0.04419016225943997,0.039239144881676374,0.03831365864030806,0.041112760037205036,0.04519687057122621,0.047886960512755594,0.047033181867244395,0.04262298336563569,0.035518371705589025,0.026413532197530096,0.01551099042149107,0.003334360146556036,-0.009282036117758049,-0.02215233603068537,-0.03303918625707686,-0.04148984583134414,-0.04723131022730771,-0.05088351615467775,-0.055313420574415004,-0.06360030710111772,-0.07911558026752312,-0.10093007417651643,-0.1213816488208562,-0.12954344477337484,-0.12922326399363307,-0.12953953179297484,-0.1295003654446905,-0.1329316923867529,-0.13966656150698833,-0.15069808408996505,-0.15509213588120427,-0.1486927499672904,-0.13547135554197798,-0.12330600264376017,-0.11682985908678513,-0.1168183504582687,-0.12273633701926298,-0.13252205638003214,-0.13876636209110557,-0.13725423456871635,-0.12954251152329294,-0.1163590284517283,-0.10208372956669354,-0.09115556669527851,-0.08429655331511793,-0.08077173147022193,-0.07745204114361688,-0.07500497073812872,-0.07410253316449204,-0.07356347544767805,-0.06978121599582432,-0.057285842545641605,-0.029535604220598553,0.015801938788856294,0.06274371881835801,0.10500639430488033,0.13754736889255292,0.15361786275858028,0.1459980591124276,0.12921380829570625,0.1266884612186011,0.14966474270765143,0.1932335413247329,0.24322896190306342,0.2854035093048034,0.309250564194031,0.3160711232736344,0.32685051741035387,0.3604193894808756,0.420056680569142,0.4812673951749936,0.5133085507327668,0.5040801098401186,0.466645498590964,0.42584714670528667,0.3982777911573423,0.3845753077477507,0.3829515499647299,0.3915097320255445,0.40975429021227017,0.43467481293954824,0.454539209034523,0.4536810458359151,0.4239816829351249,0.3782200213082164,0.32820394997125496,0.2708057669694449,0.21587069900739456,0.1679493598575476,0.12996316138905464,0.09757339654284433,0.06963402025943084,0.0494978130496726,0.039548881323721814,0.03250456165714455,0.02083370829322997,0.008918289451387623,-0.0032950960164844245,-0.021135625813946093,-0.048681941626718836,-0.07837889850375586,-0.10294032411370882,-0.13058897863073807,-0.1744948278084774,-0.2258165993787306,-0.2749246212539498,-0.3118746044222704,-0.33547995406130854,-0.34900551648609945,-0.3575633266551365,-0.3597863538690084,-0.3573045373139432,-0.3479153695108484,-0.3321508687443027,-0.31930719162373294,-0.3094340227385074,-0.296650786412794,-0.27394480990997716,-0.2458474067098202,-0.2199661630392233,-0.2044585613883241,-0.20772610432021518,-0.22645834841541035,-0.243651827574181,-0.24481154835178046,-0.23120180955715336,-0.2035452935186615,-0.1570844698721878,-0.09347673574612296,-0.031260537050440955,0.008571511492309714,0.021307917549418073,0.01300402206662777,-0.004611246101161799,-0.02607359774106879,-0.04501098295679187,-0.06572789049711297,-0.08974910688580769,-0.09976937376729451,-0.08904738139731871,-0.05946452982880732,-0.018191330757800946,0.026610935352242526,0.07151573238424368,0.11950950870555922,0.16941148668468617,0.21858950821267606,0.26011313040586737,0.30162188448868604,0.34380797763091986,0.3795645804268332,0.39749057927664533,0.3944299346979137,0.37783572036998725,0.3607483564144426,0.3509583697833582,0.3523393334016719,0.3589205088596907,0.35760043820501924,0.3392625261290866,0.30186371007685847,0.2598537176440703,0.2388520353105193,0.24174146458717752,0.2579744588841583,0.2669632220777502,0.26123080808450055,0.2413776863052038,0.20740782231801796,0.15991397797002754,0.10550519295149396,0.05484680935661296,0.022269596608042255,0.006640577278668549,0.00020023310233623293,-0.011855276018787055,-0.04073468192152103,-0.08839336663034474,-0.14753895033384026,-0.20231677188230257,-0.23697541180380977,-0.25704186692794506,-0.2727908361190293,-0.29577535555040985,-0.32325299466180024,-0.34558148990508797,-0.35298638604493815,-0.348716803186632,-0.32852950416519217,-0.3047883111467187,-0.28648833657402417,-0.27483622415789455,-0.2648023664927059,-0.2501469177366508,-0.23121206891326213,-0.2165951882567882,-0.21454074164606746,-0.21518269102521226,-0.21150873436502532,-0.2011772550146652,-0.18763129369327183,-0.17669787081546648,-0.17109522883929462,-0.1688426748412418,-0.1646229896743748,-0.1556804729488228,-0.14082153195973635,-0.12178358072678415,-0.10360507811534457,-0.08808191631773936,-0.07509436582032927,-0.06396938372280177,-0.05867552010225454,-0.05765908134039225,-0.05432698719840704,-0.02873495717610656,0.023708325660054624,0.0708463164456496,0.1015835309752301,0.11272814528391066,0.10301874196524557,0.0712987992381666,0.03244683094400463,0.003921149215481382,-0.006207956195530455,0.00942291699310439,0.06455953615730844,0.16762367754830407,0.26132065262451776,0.312419736902255,0.3434622089242883,0.35961620881001277,0.3593641429526052,0.3395714867305271,0.3013137996526443,0.24897005028428354,0.1968693806396614,0.15659881290519898,0.1361752075258337,0.14046904978173058,0.17603825787804733,0.23240687803920712,0.2787859826012741,0.3024221356928032,0.3221337135318023,0.34604583589477805,0.3673599487789127,0.3566340688570618,0.29303339586078836,0.1759642726257661,0.04210605996715902,-0.06934329651860487,-0.1464243840600808,-0.19239076427987778,-0.21394548205049185,-0.21270084877221787,-0.1902206632843904,-0.1566046023662239,-0.12212845479837163,-0.088540863692412,-0.06076220092278858,-0.04589982523939675,-0.04579037453035598,-0.05635044630843371,-0.07442342367812015,-0.09965329833536808,-0.12911019357632736,-0.16647379724282996,-0.20547010204059618,-0.24788774622882317,-0.29201664160749435,-0.33709838909895196,-0.3793393876956151,-0.40784295436444373,-0.40713686201405525,-0.3778085555570999,-0.3307632498701461,-0.27841011220000544,-0.23846737111935762,-0.21575823749803272,-0.19833910110805267,-0.1739194210507321,-0.14126107265439258,-0.10629455826363846,-0.07948516382844745,-0.06555797774082786,-0.05777112188136839,-0.053627728781269715,-0.05053005270006957,-0.046419267784945144,-0.03949405072749635,-0.030360702928190566,-0.020714129223526744,-0.009356219960083163,0.007764567084885189,0.03572177469657163,0.07221143847112872,0.08164617495453608,0.07332014278933194,0.07135141718982137,0.07395965615124336,0.07845291272706445,0.08377879742933611,0.08998328158917054,0.09939299521135807,0.11366031597271203,0.12942087777200484,0.14070874967547717,0.14429859615337393,0.1432817179453449,0.14139578293140562,0.13945894830461886,0.13866389487527597,0.1389731903789063,0.14275693578646043,0.1515869870439567,0.1662372119259515,0.1875327836876066,0.2203456334254443,0.2635281913294641,0.2921324040874887,0.2687552081929402,0.21252477536432993,0.16799959861421027,0.14521001458140417,0.13648818500949186,0.12934289588644113,0.12047480016593083,0.11047325155394931,0.09433339075095822,0.06426262883152131,0.022778863112445265,-0.020710852820533695,-0.05329362537980479,-0.06954526788004232,-0.0743909482681449,-0.07922752627333589,-0.09659632291588412,-0.12657679049145132,-0.15837691532298476,-0.16493020339724027,-0.1312069797032943,-0.08500023202386028,-0.05131768183175952,-0.036402852920236796,-0.03838469895064441,-0.05326215504097028,-0.078081087911612,-0.11229865104660815,-0.15473136808196364,-0.1983782056189696,-0.23550859775333602,-0.2603083080895093,-0.27255355236020495,-0.2791046780613981,-0.2855017238605177,-0.2875268846116723,-0.28582067638977066,-0.2782637260148639,-0.2649009439850568,-0.2451586103230088,-0.227521446012647,-0.21524861872347453,-0.20451381556403897,-0.19548157235347588,-0.1882848381935185,-0.17432304773069077,-0.15148081319611753,-0.12434647091721333,-0.09556698671599366,-0.06340018850679402,-0.028387398822587385,0.0021540023683705857,0.024597203967233323,0.050417987367198706,0.09229642154050814,0.14593914985254638,0.18826533984117347,0.19682996288941185,0.18039262772060458,0.16494181624485704,0.1651880852031564,0.18569548527188418,0.21661237051989152,0.25333144537613994,0.29565760974562705,0.3409237848357876,0.38739948620450454,0.43415904576861536,0.4815465757962492,0.5204097524348226,0.5385760011323688,0.5316774429798398,0.5090584164652939,0.47853191323377176,0.4432149957458909,0.3967928656706562,0.34442325995664025,0.2963549911836794,0.26238314661302453,0.248483105826461,0.25215974598878266,0.26156341862822446,0.2658640153469283,0.25825731479444497,0.23687997470754424,0.20388591883638044,0.1643138855458219,0.12299128881117245,0.08517571385322169,0.05337683621868399,0.028586875229262097,0.007508485372421519,-0.006744015630229347,-0.014269955178425088,-0.01801160742542587,-0.0221660292262643,-0.03279017705171786,-0.05672370200079647,-0.0957432552862548,-0.15214956852438033,-0.22650450832413782,-0.3009067180904489,-0.36496048256084607,-0.4169151441624673,-0.4137507708221614,-0.32246151318839705,-0.22003233004216327,-0.15648588167937882,-0.130025833455195,-0.13338700884903756,-0.16113525308795515,-0.21486828128685426,-0.3085999538270518,-0.4196643788800517,-0.3604595613088806,-0.23719324508621398,-0.16405287389109727,-0.12597135213424052,-0.111644999431289,-0.11360394797396764,-0.12209480661422167,-0.12911114533983664,-0.1326189745403945,-0.1413233266925631,-0.1639147598216334,-0.2030010501808123,-0.24318267296465343,-0.2516835468869247,-0.2060319020644987,-0.15223753173318189,-0.11195399621917784,-0.07850219853608945,-0.04309871766634096,0.003113221644369333,0.06003128991611524,0.1282203717608067,0.19771783549938005,0.2561585967505019,0.2978462216663088,0.3300030629406677,0.35679262400630485,0.3823082012072238,0.405680201571768,0.42226920290939784,0.4265819786456169,0.42034181218730676,0.4113846994432022,0.41120481582116797,0.4187578046986477,0.4228439630242341,0.4185117448374024,0.41229745586875854,0.4075780075171103,0.4043776745872112,0.3993048997574546,0.39127909538123606,0.38310904465333884,0.37747685254555924,0.3740229200056078,0.3680631834322766,0.362076685553463,0.35562104847662396,0.3431205530480273,0.3274830271580337,0.31340616296315876,0.2958059462910646,0.2696713625103261,0.2314267361552224,0.18687756984410542,0.14838423770557896,0.1238475178391555,0.10862286868958448,0.08989272859348013,0.06158077698887974,0.023439301974235154,-0.019144993572334578,-0.05952518180622,-0.09922447074906607,-0.13843984342831261,-0.17524334751264262,-0.21650625759771613,-0.25778622638504806,-0.2899300749907466,-0.3097454005757822,-0.32575435999953034,-0.3486184430317135,-0.377478482223924,-0.4002804222473729,-0.4111448956326574,-0.41103836375447195,-0.4095421472624864,-0.41180140965844747,-0.413208943636829,-0.39715173091759504,-0.3710150207902854,-0.34909930180522075,-0.33935826165024846,-0.3415140827935879,-0.3543741751459761,-0.36481226440155523,-0.3587543758860376,-0.3351410497820745,-0.2995484876457108,-0.26744209634114974,-0.24590808606250275,-0.2284193605504403,-0.21150352165157604,-0.19614726423704537,-0.18132869236245822,-0.16300740173444586,-0.13600384691654685,-0.09099117034606072,-0.02828989407433549,0.043152868571219444,0.11977189605016876,0.18486584016528165,0.22882102675436014,0.2523241960845413,0.2567153385918502,0.24213605263646087,0.23184581726606565,0.2382697153717366,0.2395374179312341,0.2127098143875968,0.16066988860386713,0.09393637957861443,0.03473338617552893,-0.005932225444356248,-0.030327984338222827,-0.04253934796456069,-0.03757585203287376,0.003224881753101464,0.09182144840850472,0.15329957914782028,0.18012735142330444,0.19324378661907604,0.1946390845370115,0.18116201246549687,0.15543354264123196,0.12472443241805604,0.09507672470484389,0.07160438808810002,0.05921350861788038,0.05959067542707004,0.06738092773613985,0.07599064009971145,0.08156736185737128,0.08499699715324316,0.0859822437082806,0.08425664657559526,0.08279351861731142,0.0852641602867935,0.09338620104750313,0.10583195326754692,0.11418194372283538,0.11081787077555905,0.09801541156996643,0.0785256371266615,0.048567251421122906,0.015830291715431457,-0.010506882636304801,-0.026582436244181974,-0.038231609616683385,-0.055058786817168616,-0.07647716175109942,-0.08794447903519473,-0.08394275041132365,-0.07014583721805599,-0.05747991499197053,-0.05391697433756736,-0.06500794215335304,-0.09278134477800244,-0.13238522949072318,-0.1768633533982341,-0.22259603520147372,-0.2730253754328084,-0.3343860420598066,-0.3686605699205306,-0.33343709215315137,-0.27483423060263584,-0.22674995169757015,-0.19269164670195038,-0.17192565244629354,-0.15841362972547213,-0.14588825357874627,-0.1308336258426739,-0.11850022799880564,-0.11288787425221547,-0.10906183167547039,-0.10183529984854854,-0.08936728149414516,-0.07006075573042332,-0.035544136797844926,0.017274941078619446,0.07457149703630911,0.11206022047710881,0.12253072432725776,0.11735149316180181,0.1178530133941939,0.1360508333564789,0.1683986704236533,0.21477318302943202,0.27780248207912966,0.3533060098748165,0.41800433573826123,0.4484461920909595,0.45166599043643985,0.435556525392669,0.4076898585298257,0.37815214120462287,0.35609927265954155,0.3460739442034795,0.33646574542903,0.3218393423916414,0.30658808075398075,0.29797482476510545,0.3005455797933445,0.3093698618113577,0.3207672841108809,0.32826508849107106,0.31982164681409614,0.29098840348130056,0.2427401619364031,0.18300353272509398,0.12234533558910127,0.07227863148926977,0.03511642582990703,0.015337429973813767,0.013316224293055479,0.027418602383234337,0.047078024113712064,0.05852919558093227,0.050775225278508994,0.026912410246995724,-0.006416414840745485,-0.048020385424078625,-0.09265180567428945,-0.13594025842860252,-0.17097871821227717,-0.207233346422123,-0.24857596009667773,-0.285039920418278,-0.31710012665804993,-0.3403146441578985,-0.34366776603957866,-0.3372106904011748,-0.3352306459323468,-0.34732622306290223,-0.3683627228258147,-0.38708267491977916,-0.38706772087099484,-0.3650538491529765,-0.3228312793668243,-0.27475926372817755,-0.2326271429123909,-0.20289625409717116,-0.18546987769878945,-0.17479642294937267,-0.16550253167252155,-0.15757141259101093,-0.15009334389364576,-0.14098828184719056,-0.1301439229079526,-0.11653486475454645,-0.10401916410183379,-0.09356354237898555,-0.08579215367091585,-0.08060792610178195,-0.07472518116541843,-0.06024170814071466,-0.0337018561376819,0.00017926051897044026,0.03564590709797423,0.0660488142928634,0.0879311729899581,0.10512909770914088,0.11870970583012856,0.12865944115844427,0.1343908716805702,0.14421990091830195,0.16333105553820237,0.1941175366265066,0.23067352208101952,0.26647664638148255,0.3043847067989795,0.3543232665873197,0.43504549633326034,0.5630131868148173,0.6444291666172806,0.5192826585773133,0.386059578619513,0.3198022687784997,0.28984324595216354,0.26707450467126775,0.24131516580442663,0.21353658400192327,0.19340577528008793,0.19115946710443396,0.20681614904845652,0.22944651042743344,0.24870846883315204,0.26074327762301686,0.2609924140224676,0.252057591218772,0.23727857219507648,0.20638459551970473,0.15471249738705586,0.09092821533414681,0.03963075191029927,0.01082073472745033,0.00011941639963279868,-0.003143524736545464,-0.009413749647668616,-0.020634162276572082,-0.036014656663871186,-0.05015440937404449,-0.06270756357665311,-0.07152672241150028,-0.0719337967025561,-0.07284689544208137,-0.09171070135693885,-0.1391606766256197,-0.20867172937982104,-0.283110833934925,-0.34489994299265253,-0.38408238980392423,-0.40256305665696157,-0.40815087135026185,-0.4010348887288414,-0.3854696119054564,-0.3656464131157375,-0.35083439480865014,-0.35257512092288273,-0.37264015134079215,-0.3975194565525554,-0.41761125204113847,-0.4293575887621644,-0.4331968763658531,-0.4303787690352957,-0.42177842356435985,-0.40546483851746623,-0.38204299003459335,-0.3529891413994695,-0.32136526606004734,-0.2933334445452841,-0.2659082430009441,-0.22676848387355114,-0.17210281347276676,-0.11343106844490711,-0.05720452257225922,-0.004255616370936971,0.03895928669222924,0.0700953390438625,0.08138339620087083,0.07594686474743503,0.05951027567316078,0.041681801302038635,0.030838262232131267,0.03549795121362673,0.0664012771228199,0.13093505724164753,0.21842504744445537,0.28601042798691245,0.3030572013277057,0.2899476931391484,0.2703945139882208,0.2518973633523862,0.24293640254537274,0.24591935695334405,0.25170368478425686,0.2553128394874543,0.2576570316937904,0.2660042309624711,0.2782255751244242,0.2842479815899644,0.28511514724981074,0.28632814740684964,0.2900820239941601,0.30153185750649775,0.3174854177389624,0.33010154023307775,0.33423779386912966,0.33361901394731475,0.33237266379021374,0.3343753683910645,0.3409884691395541,0.3502211417380627,0.34819627630543704,0.32180142235042225,0.2732743500468079,0.22212320960113624,0.17939819165996462,0.14936301237634372,0.12695399822493883,0.09810196949434849,0.05499728168872606,0.004089966843660489,-0.04166185223018847,-0.0871860301181263,-0.1457398441119296,-0.23573725510144544,-0.3416562753626176,-0.41626064044638184,-0.4251765120593785,-0.39323336162816847,-0.3557147022384255,-0.33001182839251925,-0.3213044421454411,-0.3284081444774615,-0.340715592659586,-0.35277422217448995,-0.3626331831183243,-0.36114133662828296,-0.3438612489277851,-0.314506367636466,-0.2846918573704868,-0.25619960899037425,-0.23218574925166527,-0.21924627829234491,-0.2230768881295403,-0.23021385294525512,-0.23818302802928462,-0.2533846504533043,-0.27479980476083893,-0.2891061461864379,-0.25423891142274224,-0.17508125568765412,-0.10928315153838396,-0.07332277887705677,-0.05291210246204219,-0.024631313664955058,0.022218707252854474,0.07867350520401169,0.13774971421347706,0.20056713051482128,0.26465269411631875,0.31998572331021546,0.35504875154220555,0.35126120813926803,0.313122527222583,0.25497470775229397,0.19820944316594497,0.14990837383320485,0.11280934920451471,0.08635829688485226,0.07928175251999588,0.10345821406746483,0.17830459512250973,0.2836985741625686,0.3446932816692152,0.3613481423963966,0.3669801452513739,0.37634412912440246,0.39074703001519034,0.40331984411982663,0.40625675936901484,0.39703646337500903,0.38174379127533553,0.36679718517829435,0.3482874147051966,0.31714145275539357,0.2735141440070437,0.22334903848198098,0.17091580114308347,0.12624213500605488,0.09431261513627191,0.07025488506616664,0.04302829267466002,0.0007652461478620338,-0.05145056467766479,-0.10643333898576407,-0.15055275568418264,-0.1781773243008926,-0.1907284225904449,-0.19241150612495575,-0.1944438302011891,-0.1983285081236384,-0.19128298866601462,-0.17479222355004934,-0.1608140766192494,-0.15553824185516257,-0.16523839010655794,-0.19442431695629953,-0.24130133609122176,-0.2950535824883535,-0.34246522929009726,-0.37864205075008656,-0.41423014648593254,-0.46223645443982664,-0.5087073857223118,-0.5173466640209683,-0.4969923044600369,-0.4620466168627657,-0.377718230535243,-0.2546724622767274,-0.14509655968008708,-0.06797448148937348,-0.016253820244588234,0.013362664456466247,0.022388850936536867,0.005920193146925806,-0.03808582817677629,-0.09495534756891803,-0.13494258906506862,-0.14588112988042584,-0.13393647429886704,-0.11719895918055138,-0.10218428350605697,-0.09534370596221138,-0.10088076890560554,-0.12397388620882911,-0.15881979276157213,-0.18865939037552684,-0.1678513029076443,-0.09427018297880875,-0.03213329195456577,9.260836916891814e-05,0.012853218700783204,0.017990256704874093,0.02407696855939047,0.03329846008006492,0.04401737320950395,0.05657490004908803,0.07379564909754836,0.10010160205696891,0.13748525923141783,0.17966481919469615,0.2169615448076716,0.24521488909477335,0.26065343745761993,0.24000864197868832,0.19831683294401417,0.1751103890639597,0.16647270426487204,0.1613860119438061,0.15415942711628783,0.14520466603102902,0.1401549584165559,0.14584409134465226,0.1630613089128179,0.18949362356581165,0.2204762019663043,0.2588938560003523,0.29690652088502,0.3073512204978669,0.27927014665753364,0.2382345924605921,0.20665091703419913,0.18775233384069756,0.18050818636799448,0.17153368800216706,0.1508500508958843,0.11331265420830164,0.06415253395717309,0.008000433932476748,-0.04371798140923919,-0.07166281055460359,-0.06405661142774342,-0.040574052727424474,-0.02720842388299318,-0.03950160075413567,-0.07241363985718419,-0.1198437870584587,-0.18014334305627566,-0.24841164232700869,-0.30760773649862994,-0.34184114721930553,-0.347192169740036,-0.3370712270555228,-0.3217076200877276,-0.3026054986571255,-0.27997526099551606,-0.25720123586011506,-0.2333722492318251,-0.20989835054139425,-0.1889793348658533,-0.17537526805270348,-0.1640575514021883,-0.1520387097745169,-0.14066855823045019,-0.13149380158839694,-0.12325349202621493,-0.11498501703633449,-0.11173337333104712,-0.11582796852789123,-0.12002017539496339,-0.11605119424050586,-0.09987713918540796,-0.07775687916709811,-0.05585679014476647,-0.03605441781354242,-0.027886500860904887,-0.021339531075478774,-0.00662842118025602,0.014733477879930026,0.03769028823310354,0.0577141431638673,0.07273537298538937,0.08345153799998704,0.09980705287572839,0.13238767940307478,0.17925361890179542,0.23279598319743555,0.27816832705060446,0.3084926473684911,0.3212969427705105,0.32032205133013375,0.3141329236338766,0.3104815628097245,0.31645139049162363,0.33282079617115873,0.3480970121207723,0.3504497315055595,0.336133916368556,0.3171852174902612,0.3078516530161308,0.31618840589278824,0.3389258922786033,0.3663167719018787,0.38591142317850086,0.3875506132564206,0.3651333334353176,0.3244980624592303,0.2819472716974003,0.24742683114602096,0.2090245782442935,0.15652566606120957,0.10050914187080022,0.056727318716783874,0.030656930384104303,0.02432410087958016,0.025715648229502952,0.02628793383480502,0.020678525654190823,0.005928973253448311,-0.016096599184696015,-0.04197277619363345,-0.06869410481932338,-0.09353589997743915,-0.11402198631706273,-0.13614697615410767,-0.16820820220638258,-0.2186504528359743,-0.29866539905471157,-0.38614776406326695,-0.39367515652462703,-0.33006975551492723,-0.2764719614275651,-0.24319678995146346,-0.2215777988273633,-0.20648549346048986,-0.19549904799609424,-0.18505336851414342,-0.17301336457455666,-0.16215703832844566,-0.15935278881926554,-0.16560499338916393,-0.17150162096063212,-0.1715766507915724,-0.1691990069651503,-0.1641917808178034,-0.1629903422690496,-0.17937472158213263,-0.2242323326283267,-0.2755346662590327,-0.286293003737466,-0.2323777402163686,-0.14415586902522234,-0.06621305057502506,-0.011394692512047572,0.02540292792434417,0.04682020324824851,0.058119604120486154,0.06298251422383777,0.06442429906455517,0.06798690589588274,0.07844886008696987,0.10197147289280876,0.143798239077399,0.19886656166401825,0.24171790637452295,0.26668768664731096,0.28626893549888327,0.30906739085363333,0.3369447810362014,0.36992813227000937,0.4033775973577717,0.42463857066004546,0.42103417743596,0.38638260437044814,0.33695495529665004,0.30060979149910055,0.2867443383753419,0.28749838738048444,0.2874334706355633,0.27485402384831364,0.25494379041467713,0.2378856892631791,0.2317035685830709,0.23656774798455554,0.2347247400992725,0.21884397925264537,0.19334177871014588,0.1669997124769532,0.14494403160205227,0.12758398450729114,0.11452848892061115,0.10104385560311191,0.08146240637021876,0.04821118635174185,-0.008601480243619612,-0.09636359839433617,-0.1814811981807106,-0.19924969532052614,-0.17049074176987242,-0.12852507867807322,-0.08513782110088652,-0.0513061479358136,-0.03337559732187343,-0.0310732220253629,-0.04559510418048362,-0.07432126859077089,-0.11166295147828119,-0.15669684114667526,-0.2073567669735859,-0.2545652825373533,-0.2968716655460755,-0.3357578766469209,-0.3768104135844978,-0.4198012782172038,-0.455327113530218,-0.4722337986563594,-0.46860696125604395,-0.4451105180519057,-0.41025084483746466,-0.36658369225295145,-0.30509707298090066,-0.23058485874313786,-0.16444382867783733,-0.11765857837125354,-0.09668173759482984,-0.09563427807795837,-0.10346244414372535,-0.11491640959226086,-0.12404360678739319,-0.12616581049928305,-0.11038531206639254,-0.08022851354568185,-0.054370777990431614,-0.045221775401336504,-0.044299562769511594,-0.03694743289697746,-0.015383324888011137,0.02144522995051044,0.06811469431079228,0.11250139205666033,0.14526857631639917,0.16813403273230434,0.18166746997618133,0.1899322324747568
