-0.06272524037419934,-0.05458983883218955,-0.08406025409047242,-0.14953037610276393,-0.22775206584453858,-0.2944149508023057,-0.329216525451963,-0.3271518693646418,-0.2847720064658266,-0.21292121099996786,-0.1292518054180647,-0.045988710806341475,0.031790108503273344,0.10334701621102761,0.16166516983900048,0.19216408148554892,0.18240031465826628,0.12157759466199229,0.0358518017874876,-0.04043624931644862,-0.08804936561131209,-0.10362165402125068,-0.08806484470058022,-0.05070498177019386,-0.001742206780638693,0.05532286829485367,0.11454807380265093,0.1563942799788263,0.15555928245255704,0.11053308287543219,0.04663593645042062,-0.009838301244410742,-0.04288249666724246,-0.03703671550247939,0.010407629884089761,0.07954382767935018,0.14940150621055856,0.2068952943113514,0.2402546128912771,0.24984289248196423,0.2440879704013096,0.23299920152563638,0.21632474673551652,0.19442517303826046,0.16871275902842192,0.14905224601442382,0.14979087086489473,0.1746263493552009,0.215805646297594,0.25992713893224634,0.29878412867178994,0.3249993440988178,0.33993506404066076,0.3503212262636529,0.3568234140199262,0.35900161270885284,0.3657115578334919,0.36941379334313934,0.3568096806261076,0.3159893565387669,0.23138654907861528,0.07705393216612369,-0.14737458634075057,-0.3492014517657758,-0.45863601356599976,-0.4913989916885948,-0.48254328205049585,-0.45492106867173027,-0.41676758626308735,-0.3745677636780873,-0.3297523055501327,-0.2880769364152862,-0.25790218359252426,-0.2442656994377629,-0.24872090838389788,-0.2667753474285861,-0.2985100788521254,-0.32610184894213917,-0.33483146114480655,-0.33476716719867583,-0.32599746831377996,-0.31015836246129397,-0.2889210746059445,-0.262027699672471,-0.23323647084655855,-0.21138013871303435,-0.2050416421510932,-0.21738688110059592,-0.23241195867811743,-0.23728955898059337,-0.23691566929588723,-0.22822953036200255,-0.2012031824918365,-0.14616363463402343,-0.06422798425140351,0.03805617796684083,0.13712713922197198,0.21164617224074458,0.24644592967539555,0.24201849701023812,0.20536951450999283,0.13854891113991402,0.053705386920942656,-0.021338474267204203,-0.07479290128499583,-0.09994230286618885,-0.07033960552381292,0.06414521388742378,0.3340932145552476,0.5791635575457474,0.6829205094292475,0.6769011658852577,0.5822193594173027,0.44489884633880084,0.33155484249996503,0.2720765488813427,0.2776965001563949,0.34387866090193414,0.44020735617892504,0.5232109147505682,0.5753570932081981,0.5989757241058609,0.5952845252002101,0.5452730420816779,0.4348358521966013,0.2947455660945044,0.1783417671089523,0.11171249373029006,0.09127045695857662,0.11291991949106925,0.16890399313898535,0.24415736313097425,0.29639304491016866,0.3076225889777347,0.2791352925170423,0.2095909989994061,0.10487290751314175,-0.00966115590408653,-0.09893168068072461,-0.1674801408515349,-0.22470716143669917,-0.26246233543017744,-0.26102531740983553,-0.20157667648270497,-0.11319589127217038,-0.02537888568029833,0.036018067420737,0.056329883992519224,0.024808138043184217,-0.04473655070683785,-0.12732790567547103,-0.21784612440008413,-0.29734782593837383,-0.3416847742968561,-0.3443786366056235,-0.3108334598738433,-0.261574452563359,-0.21507392901107172,-0.18023913672228437,-0.1602439118336283,-0.1438640897731726,-0.12577122046336028,-0.11268135038809766,-0.11842484287599782,-0.14830426358850393,-0.19740195294341767,-0.24896865857313152,-0.28550576735111344,-0.29944391052777475,-0.2887246340109908,-0.26103943337691915,-0.2259520635145028,-0.19814575297173445,-0.191276909567909,-0.2005924012004482,-0.20357793712440073,-0.1874810208243181,-0.15121783528796118,-0.10480943582349847,-0.059449878152222024,-0.020717772819822334,0.012314672943402001,0.04671301036584281,0.08821845475864848,0.12547675370010242,0.1330242623934891,0.11116247917865017,0.09068689415135599,0.0980861280457686,0.15311235195330736,0.254755005259114,0.36220718550573483,0.40515788399940517,0.3676398351751806,0.3043772254414899,0.24542059713841594,0.2053910920611503,0.1870008356594465,0.18980669015209872,0.21456458692416305,0.25315622374252733,0.2853233102884248,0.2981862823167623,0.2884019891617489,0.2626409104156442,0.23437388385775845,0.21462969749541339,0.20778071651737506,0.20814075451411015,0.2070447641992457,0.19912636024181524,0.18707766240610518,0.1786143506651625,0.17621210239328713,0.1769650709455592,0.1679887991568541,0.14405234171379472,0.11728472216147864,0.0949647765449725,0.08009591861684306,0.07241996895454016,0.0713050054962491,0.07240245201669364,0.07094382277104895,0.06736294096516342,0.06743012579964805,0.07326897687046777,0.08690232226720945,0.1021925787499576,0.1124927420169229,0.13030976585389226,0.15669633117076326,0.18012430928387552,0.18029048000261497,0.14254299566088763,0.05676010388725937,-0.07533511395894203,-0.21542941259618897,-0.31454342334284874,-0.35815217665604054,-0.353471684476201,-0.3146748699454931,-0.264634941910555,-0.22943611140488446,-0.2274371499897809,-0.25646990788174606,-0.2958501752048902,-0.3257150029717089,-0.33863529254653507,-0.3414111844837389,-0.3436364279504496,-0.35414000815830843,-0.37363020414190123,-0.3932469429156103,-0.39859733668975766,-0.3808483199283805,-0.34610955039750696,-0.3086523322728748,-0.2846875500470178,-0.2779470881717445,-0.27250248905950547,-0.24127011702694254,-0.1714532906184859,-0.06439207423956352,0.058515737903328376,0.15044809300240208,0.19722674140560528,0.2137987820728211,0.212451591833511,0.20742548817967013,0.20063984748642769,0.19689113705619898,0.19822781244876758,0.20671865584066038,0.2275780408653486,0.2615755091184142,0.31126390254234976,0.37419690821511187,0.43945809147794357,0.4882561376281241,0.5193871135132188,0.5303912354459253,0.5207716309737485,0.4952115928629118,0.46196785936177115,0.41644512426949426,0.35697863836769617,0.2852998487329771,0.21166553346316846,0.14846582720840737,0.1025786484892661,0.07529628091903945,0.0713262549349412,0.09230033004607131,0.11353487958515225,0.10487677915304096,0.05824012849119377,-0.008118652441911635,-0.07692758263620594,-0.13536831167641242,-0.15558426858772123,-0.09553556003253087,0.010483424198098642,0.08594554817013321,0.11013267958677878,0.09878614889189764,0.07355889171818178,0.046864515258409165,0.020866328945299873,-0.0025648354730245424,-0.037930460719023,-0.09726926604724004,-0.16135231299663916,-0.20553375475425756,-0.21831417821831223,-0.20045263406480363,-0.15624934226107254,-0.11085764177395975,-0.08465022022578977,-0.07739306865798919,-0.07498200436843086,-0.0658549420372948,-0.05328588010601172,-0.04179096671336588,-0.0404630103703521,-0.056518026823101114,-0.08404410957952035,-0.11420522259385169,-0.13885358262425718,-0.143570278585943,-0.12258851962849551,-0.0772116337253764,-0.017576071507080432,0.03824993083295065,0.0724202880655391,0.06809632692865626,0.02277801525666703,-0.04932269773766037,-0.1318885632130156,-0.19297071377597386,-0.21972807133171637,-0.21887313166870578,-0.20257278840791038,-0.15193990296812274,-0.017579608561577996,0.2093622266346454,0.34102957999039163,0.21717617706329562,0.04589768195650369,-0.02897346498080601,-0.04857895248523362,-0.0473372791361691,-0.04163680961325626,-0.038974760396014205,-0.04247304149036131,-0.04860592632959978,-0.045425221058521516,-0.02354324972377448,0.018235721982749722,0.08228165331291358,0.1653599713274686,0.2543263126447024,0.33100877919916993,0.38527997292790733,0.4169344195211009,0.43369614695326275,0.4402835205403867,0.44278709126300236,0.4378105781908726,0.42452707801633033,0.4070685127506772,0.3909242065165934,0.37314749107966655,0.3478256533691416,0.31452238277687294,0.2758334366380272,0.23379837542505455,0.196699011547177,0.17363345898129254,0.16974842195433712,0.18023724902327629,0.18182312832369005,0.16362520666288732,0.1262704100494144,0.07350316902091937,0.023136158337604858,-0.011302306849046142,-0.024948963425167198,-0.0307232760493049,-0.03138859072335381,-0.026156318771545777,-0.023558015830385838,-0.03946650806799963,-0.07862334716342592,-0.1237233103374588,-0.1524732363954039,-0.15797814233269394,-0.15746260312772464,-0.17862048310337933,-0.23777049719243626,-0.31269818422619355,-0.3526283237708718,-0.33464868347771815,-0.27917747145992416,-0.21321677241694037,-0.1499212482290419,-0.09706888822220078,-0.05709131226048277,-0.03242363094969216,-0.025838209504052485,-0.04329271049092965,-0.09292815513463226,-0.17314802383265931,-0.25367032709007076,-0.3083286616123871,-0.3395291002311742,-0.3480863535095362,-0.33280923415796765,-0.29047465797048916,-0.2196056527634004,-0.12442068391980603,-0.021550692026788207,0.06644822263115233,0.11578637659912275,0.1244543277005225,0.10313088470187096,0.06521672773512567,0.03059177719395994,0.021190146706500705,0.04446869999330068,0.09775815289722183,0.172687825634407,0.2488719511710447,0.3065224623168741,0.3314003904764864,0.32439305881657976,0.2961574661255755,0.26322888629041724,0.23938318764422506,0.23094195195431935,0.23700006190261208,0.2516210239133893,0.2778783974345467,0.316632821497215,0.35057736426024144,0.36438300371737187,0.34790707782444624,0.30178428925789197,0.2477506500604811,0.20460288174422728,0.1826350884008284,0.18547899643004337,0.19871442308426607,0.2061007974974926,0.19871377525570616,0.16381459083988262,0.09435251374536191,-0.010181323244582733,-0.12663190516241635,-0.2258535802559419,-0.29352900929963843,-0.3194710816035649,-0.29141428343643394,-0.22152904644934018,-0.15624197706821805,-0.14087002492419792,-0.1816343388612435,-0.2477171849374018,-0.29707382092476325,-0.3013914688388106,-0.26575442926405657,-0.22148807843403026,-0.1938113990998068,-0.17926540295529503,-0.17263199492098727,-0.17798977844447791,-0.19520329223406502,-0.22876208236585346,-0.2799135650397968,-0.3362196054309062,-0.37758788979998004,-0.38554046733341,-0.3594892949787872,-0.3159068508052489,-0.28048878730280735,-0.26629079298650365,-0.26073293180810747,-0.22627726721564131,-0.13735915645655805,-0.038588019206393605,0.03605244168756686,0.08890609819233421,0.12905422537009328,0.14831379729154737,0.12905401104148384,0.0519942157134805,-0.07828750470638376,-0.20823866340512154,-0.2876209719169848,-0.30942688470413726,-0.2707375742034902,-0.1417397800988286,0.12057408474496159,0.4327871706982937,0.6204609850498376,0.7006904399222623,0.7440867931002492,0.7737389675309126,0.7258590579786831,0.568937055310685,0.4337665568430254,0.3809971087218962,0.38385075329431717,0.40198781549473167,0.39699872061707525,0.3512737009659688,0.2772040419138572,0.21103364781111475,0.18265404985885347,0.2088978395886402,0.2750571737301225,0.3440177898716714,0.39098514412208046,0.42318646939629667,0.450275019591034,0.47177919755410785,0.4805101607017754,0.4713824273494585,0.4386596323483005,0.3734635474970747,0.27968655628091654,0.18054825693606116,0.09541995091829317,0.04350804252015097,0.028287509886893422,0.03976924761176376,0.06148785989642506,0.07469745293025741,0.07654360261402217,0.06542935565946006,0.04865797555209132,0.03038994484679596,0.017150097158308886,0.013536129406929122,0.021360076556690224,0.03902517846308374,0.058860600181848265,0.04729588326385431,0.002820238727581545,-0.047698641846256946,-0.09377474001645202,-0.1302980208112774,-0.155424564757955,-0.1661202745236399,-0.16208360252759138,-0.15104535306323041,-0.1382108335577106,-0.12604155484851623,-0.11759015620383617,-0.1139186903391151,-0.11505521860354936,-0.12044239590356912,-0.13232760935933963,-0.15123610277932167,-0.17139390300591364,-0.18942892742086745,-0.20160282309490077,-0.20622010425509799,-0.21152974879415268,-0.2237399974914201,-0.24155347006775701,-0.26423733048908077,-0.2843694816739424,-0.2901965200200611,-0.27598034707570546,-0.24524857740551412,-0.20786470922535055,-0.170115154746467,-0.13101382884967477,-0.08317374655872894,-0.02360198172574159,0.04570677469896921,0.12560289025856236,0.20227012300038347,0.2680332422348662,0.3200933753837661,0.3591790473814235,0.39698308259051224,0.45345067718123616,0.5296905293452228,0.5890541617616035,0.6192228532529171,0.6114401695814883,0.4882544853772007,0.29310643785156,0.1650778230450575,0.11128354410341725,0.10953687357883773,0.14751227723681756,0.21852223297515408,0.30512412851296467,0.37215122308428905,0.39839928442287526,0.3973453723630911,0.40154575210712734,0.4240233945810407,0.45673294586190394,0.4881004585812766,0.511244077609879,0.5131147883483909,0.4919951363693568,0.45087003374727497,0.39755498633001235,0.34366026022654156,0.2952279113027384,0.24758349768867113,0.1999729254050114,0.15178548727209867,0.11119366378119155,0.08849534800980605,0.0891645408669153,0.0955888330595951,0.09522555083645512,0.09673046740454293,0.08948295777609132,0.05923201206086813,-0.008764341015771213,-0.12171562276425454,-0.26534744171098784,-0.4111806891717174,-0.5181949634565968,-0.5733468417663652,-0.5899296508270293,-0.5891954501937906,-0.5880097463049109,-0.5879626374413869,-0.5817761676595044,-0.5728572521008392,-0.5591915563088243,-0.5381759472492159,-0.5234830381922135,-0.5212676938257294,-0.5252926254529637,-0.5192530315774787,-0.492761669744708,-0.4453739336400735,-0.38386582468170194,-0.3149073846106282,-0.25449463137492606,-0.2178271692576357,-0.20545202466082124,-0.20982758093370732,-0.2077641615784751,-0.17979622821952776,-0.115648329317441,-0.019413140403557298,0.0951490714092567,0.19429543957655154,0.24946735578153859,0.25520704687055057,0.19670652570634475,0.049614583094072254,-0.11606004244763106,-0.2093216816536819,-0.24367664018647636,-0.24749313941730616,-0.2322862145061321,-0.20031537724580106,-0.15255042913506908,-0.09836696733843497,-0.03737967074834178,0.038056039290831685,0.13973654300403163,0.2755778639983476,0.4344245923980283,0.5679886947180679,0.5909858274648218,0.49052861577230383,0.3707271318366672,0.2793604316575837,0.215255020730968,0.1721334617310994,0.14854132377633478,0.14475188157030414,0.15587696184183078,0.17630107206874857,0.20468611801579054,0.23819527730403212,0.274531588125464,0.29658727650006184,0.2743601099629554,0.21928626284653382,0.17101872540580126,0.13902279373098908,0.1285741078808922,0.14082933088758887,0.16259125808650046,0.17957145480540654,0.17209086912810045,0.1517080942076841,0.12632413644326854,0.09789934300667531,0.0676945867599812,0.043401564841143575,0.02574550636406834,0.025334537267509328,0.05586495891247941,0.10795961910253657,0.1539221437678494,0.18705706755958312,0.20032398216307334,0.18890112577763965,0.15500389608241863,0.10543126224206799,0.04420979485909266,-0.048620787544808794,-0.20014730057624028,-0.3941793560686233,-0.5320375349488657,-0.5734497097033622,-0.562222430550464,-0.5262314319891939,-0.474393854003299,-0.41523188461256566,-0.35507707597945487,-0.2899308999193784,-0.217540987058489,-0.13633263478084662,-0.04488183310187757,0.0444126495595098,0.10184948783922501,0.09603266168531827,-0.004429724150715724,-0.19873805497986813,-0.384099124671406,-0.48244201933107583,-0.521002706491188,-0.5229844464718434,-0.4908361327759417,-0.39982935786545526,-0.21602674398623975,0.023494397954851292,0.20015164401746413,0.26130241158938144,0.22034702689177696,0.11915391308026382,0.023536894295732688,-0.032964653259908536,-0.05881544845559718,-0.070229326810375,-0.0739886821691307,-0.06895909592161484,-0.052380615361783296,-0.014569308082452591,0.04900862295707881,0.1432446435711521,0.26095034150445834,0.37646628056248205,0.46278397216725636,0.5110180043644295,0.5450972878957993,0.5890065472391804,0.6287641052432887,0.6130743716191536,0.534264295945239,0.443279254043827,0.3683243396769717,0.3132934135140543,0.27374293818823237,0.2418044653997944,0.2106842975077865,0.17567636504213016,0.13557314433894696,0.09944192662258737,0.07805735569081662,0.07282006597515842,0.07836567796499697,0.08857414330075387,0.10004425937834649,0.11184762149708696,0.11874578276653205,0.10828036565572065,0.07501715344354742,0.03276203326433124,0.003206665383706282,-0.012119022884748955,-0.009821605775368758,0.011452745555701794,0.04182629463896248,0.057077292094347004,0.051842387668910875,0.022919126983747137,-0.032995808939913066,-0.11264026111043006,-0.20734672546327218,-0.29524924414148934,-0.34615528127194334,-0.34159941240304764,-0.30283349423567524,-0.25740291492812095,-0.21444764068711675,-0.17345512183525302,-0.13427894420008069,-0.10255265624207548,-0.07776837120366531,-0.05714415485633806,-0.04471926389984187,-0.050184239593648455,-0.08693950597746192,-0.1580007735824485,-0.23451547675040182,-0.2801062213709184,-0.28802512283477993,-0.26369895687610456,-0.20576160091722973,-0.11167694682135908,-0.004056415001886061,0.0722363573891365,0.08287994704015955,0.02360259083482328,-0.06838310576403248,-0.1411231277402971,-0.18182861739479964,-0.19795154087974529,-0.19538923015966175,-0.1830860672796672,-0.15580714014734204,-0.10674985561714186,-0.045129790729708956,0.018002359634697925,0.0790460149254979,0.12901674470946997,0.17564343176885416,0.2257544441945461,0.2857823736406513,0.3383919848530804,0.3686275617973006,0.3715025372241549,0.3583914293026602,0.3480795397448962,0.340227524550887,0.33390808502583225,0.3239753498751021,0.31333985843769163,0.31057332971251456,0.3161866330656753,0.32769537826741285,0.34596623140689275,0.37136142581691856,0.3980130022440558,0.4064434597560339,0.39162836163070547,0.35681828141480504,0.3173674853806304,0.2882386189067694,0.27399000363897447,0.2725610929921128,0.2604460992010848,0.2002324031098792,0.07204542405417803,-0.08183779972176052,-0.19121719541612106,-0.21556676900210758,-0.15320115232082107,-0.06066402246528471,-0.014432020877146986,-0.018358499015495224,-0.0736892423941154,-0.23597531344078132,-0.5465454023869804,-0.7063380881509499,-0.7757800548826109,-0.8503713783277556,-0.8625840791880224,-0.7842671450077016,-0.6690728442643116,-0.5542465506918415,-0.4555893469927018,-0.38012861094684486,-0.3301977833948881,-0.3050628916383501,-0.2933263742163018,-0.28620957259426355,-0.2807839230652048,-0.27931171512801034,-0.2878196539869152,-0.3111375261314569,-0.3526731960211662,-0.40319920404138837,-0.4455154044767324,-0.46304298543551764,-0.4418936806505319,-0.37434439681198944,-0.2781805679588368,-0.18776676421282065,-0.1277862258333324,-0.10648588725644784,-0.11511672943339572,-0.1404547328863843,-0.15668428968078194,-0.15841127092274504,-0.15158237835855598,-0.1308062739517372,-0.07025461542839682,0.06356722010681709,0.2883092907008902,0.5427671343931841,0.714091421416695,0.7931664960970775,0.8153734682320315,0.8202385465208593,0.8197918660707534,0.8093503465913193,0.7835761300212096,0.7288930126921801,0.6385620597077842,0.528864538582084,0.437868741893776,0.39175072115098364,0.37599631443192166,0.37062817228186345,0.36559514211475647,0.3580521101340565,0.35655205245490484,0.36199590629913936,0.36970588972360746,0.3763511464089153,0.3702947427330567,0.3555361538238071,0.3420937386118114,0.3377467075382121,0.3449536524328333,0.3642794047517434,0.38437448405316244,0.3917324717530578,0.36629298701592894,0.2897538346036515,0.1822903204655596,0.08715808413914718,0.025532728778864384,-0.005728899671795123,-0.015313884751774039,-0.012929394030127153,-0.0064559098252071866,-0.0016157818579474361,-0.0006510899969910391,0.00042969118843002284,0.004942838028721683,0.012553412847682867,0.015295994083778885,0.003784642882302576,-0.02272659230308622,-0.0454095547502363,-0.05575723738451061,-0.0598480850145124,-0.06591060145217525,-0.08154729203295767,-0.11452159716577111,-0.1658003216897264,-0.23088499772429844,-0.30584476943556,-0.38393042005051325,-0.4603202041549922,-0.5359177489958316,-0.5978479362911567,-0.632400584997156,-0.6384434216412583,-0.6103241365853074,-0.54195975165445,-0.4417356764926353,-0.3401140677220061,-0.26179293293108474,-0.20824950478285273,-0.17532957915054495,-0.1558805048259594,-0.14712453530077954,-0.14887921775793397,-0.1503612834291678,-0.14198098772297849,-0.12291808138741256,-0.079259551256041,0.0032287312830209837,0.11796306618592156,0.2319204761721744,0.3052426544916537,0.3240812672499798,0.2933305884237407,0.2156938616617009,0.10350609670071811,-0.008785947987615852,-0.08184314483271146,-0.10453485372638623,-0.08534028261326068,-0.03887294802257534,0.02905188387315734,0.10982356417468263,0.16836870850080154,0.18447701410512451,0.1784216328404987,0.1637238007003905,0.14687911205147877,0.1255729643794762,0.09719848726034427,0.06227321650208016,0.03227498646340288,0.023458014809827992,0.0608991582422296,0.15072013224882996,0.2627053703084734,0.3492383993087154,0.3905841291027285,0.40114681246076117,0.40283222192691875,0.40551297643750844,0.4069564529964329,0.40029576681040957,0.3800252260034609,0.3497853995051695,0.3091372690278482,0.2654953610896052,0.22744631524574024,0.20323602585915926,0.18227501845108865,0.12943146874188327,-0.008552430627810111,-0.2024749338943221,-0.3348245990423329,-0.39127063362741143,-0.3943102970687089,-0.3507989068438384,-0.27520197525994444,-0.19228819720416548,-0.12205644953091016,-0.07590547493324494,-0.05851809076021486,-0.06996355725972198,-0.10633413376884981,-0.1714376189345314,-0.2846319293270228,-0.4357192199239491,-0.4660951755289818,-0.3733078906832975,-0.28773450129165873,-0.2218483771748361,-0.17009265335223875,-0.13168652926326957,-0.10372785683466339,-0.0874357067130337,-0.08368437727321074,-0.09173548299913414,-0.10618286932576795,-0.12103855099284849,-0.1306146381987852,-0.13687524426621422,-0.13785476027934326,-0.12244412663854767,-0.08247241329955587,-0.041150691919866644,-0.029687468942241554,-0.03949484963543255,-0.05673544551239957,-0.07019075654084508,-0.07416117679303036,-0.06152909824927204,-0.02630346284075169,0.027454947686434458,0.0989452377491852,0.19202262628364095,0.2908288085241041,0.36848202926193685,0.43364028044740766,0.4938486224119003,0.55014162367006,0.6032370614009649,0.6370083921700765,0.6309105808206581,0.5976462534874701,0.5498311070084718,0.49858904034504997,0.4536960336481476,0.4154500409064021,0.38289006312448953,0.36464141582640847,0.3678874421374285,0.39138416218076766,0.4192375377515754,0.43231689600992557,0.4258491512344822,0.4164763750963287,0.4152032285035481,0.4178320213429704,0.41175752335400645,0.38710664531491834,0.35258985895300404,0.32287100682826514,0.3015059193877756,0.2793727793953911,0.2512557109851301,0.2136065362743032,0.17344304171604893,0.1457958483737863,0.13569210554010436,0.12946094308126652,0.1121873836699304,0.07845631183291779,0.03777239124705118,-0.0030092785460472194,-0.04330821668404916,-0.08257742905638261,-0.11096373681608185,-0.1254717705250861,-0.12416814113648086,-0.10625754905014806,-0.0756002642095735,-0.044582227280013674,-0.034162955676289006,-0.0753526986418483,-0.22702793913391622,-0.5168855077982565,-0.6466319901897377,-0.6288505005947785,-0.605271327675303,-0.591486611681049,-0.5802077046900731,-0.5650304100485856,-0.5404334057538223,-0.5025981807948806,-0.45779420145160377,-0.4239205594950593,-0.4099067505083887,-0.4050385396756971,-0.4085008178461079,-0.41285150039110236,-0.4110478806038562,-0.3966900770446804,-0.36408771755375985,-0.316023909672115,-0.25893993131633797,-0.19031808324736466,-0.11025589724629106,-0.024997033641526677,0.07639820707733026,0.18388938868045665,0.277761816062623,0.34465768456935353,0.38906316762965765,0.42450766533876994,0.46310555796041436,0.5124067016664938,0.5671818904195036,0.6231411020254597,0.6721302212812631,0.7038664011314589,0.7108558349201868,0.702722250464317,0.6921949628999902,0.6755950655808005,0.6434488445161328,0.6095435636810397,0.585841837900542,0.5698513146329167,0.5494908250536267,0.519489494775494,0.4792239597908006,0.4383661267419992,0.39790144227330604,0.34560558327190183,0.27308163156992843,0.19541750433622668,0.13949222528482402,0.12321576566109087,0.13026378316780257,0.11528844405327561,0.05636317753794205,-0.021793368354877295,-0.0811255048420483,-0.11340690817952093,-0.11449314691676941,-0.06452658009944394,0.0490478363855485,0.1762474137233324,0.24485487825732738,0.25032048497186676,0.2081645006970833,0.13888667044048775,0.06477151869528468,0.0028037257152728145,-0.0367694029685969,-0.05099396179352555,-0.05177020871999038,-0.06526885134303945,-0.10209337599683654,-0.1684985841949469,-0.25429777248809615,-0.344516149000997,-0.4371169090301058,-0.5341414648851286,-0.6214094122062391,-0.6546128607851301,-0.6261858484470253,-0.5649717779144222,-0.4884303918875752,-0.4006214440236498,-0.30993594634882066,-0.22108038791769719,-0.1356888160599122,-0.062388650447598074,-0.011327463862043497,0.022560082686100286,0.045757723338455604,0.06052080576570267,0.05389445249877682,0.015291382688373855,-0.04366532442232824,-0.09763328235198537,-0.12494630223653767,-0.12012315645953979,-0.09713254742274621,-0.07763476117689186,-0.08168387635397031,-0.11299870603428543,-0.15786051821362304,-0.19137964911251987,-0.20228979083498502,-0.1812211852822148,-0.11291031089263025,0.01175937657566914,0.19376810319673404,0.34788988600306353,0.36235160437197916,0.30980515938509745,0.2588560094174602,0.21484839854067694,0.15756766022233817,0.07497995017905591,-0.006022858265264429,-0.07052816677861345,-0.11290826208910137,-0.125205171253239,-0.09933914045255608,-0.016837302672818872,0.1322613255533116,0.3011840081880758,0.42324608648932666,0.48842344715296054,0.5084460809884715,0.5016227937405708,0.4816762775196882,0.45481356737418965,0.4174952344467554,0.36670188287279704,0.3065054456438794,0.2535163883590498,0.22263611494630572,0.21844275817105846,0.22664743916569316,0.2170246409131338,0.16895837016654588,0.09649048846108098,0.03553826257713633,0.01207520173305651,0.02342906881830116,0.03427143622517879,0.009776837851727213,-0.059921978946242314,-0.170802924955109,-0.3037878691187739,-0.42316634515524565,-0.5042719403763845,-0.5513068803059625,-0.5583741520389464,-0.524539989234341,-0.4613732634725035,-0.3919824374423453,-0.3389517584163493,-0.31640103563488575,-0.313535919245376,-0.30854658820439507,-0.3013876797281106,-0.3034722661134244,-0.3191226144606519,-0.33999079343349065,-0.3609936013365862,-0.3815630807887326,-0.39892980799895905,-0.40523132603934503,-0.39360449617323306,-0.36663085510546234,-0.3273134957620234,-0.2728283813912511,-0.21179011144583257,-0.15644388991162125,-0.10899519012057778,-0.062195503422400246,-0.02043173964101732,0.007765106298771923,0.02379307433027544,0.025820712226849146,0.013227786023598778,0.0024089878845010345,0.00901827401308025,0.03478801935097504,0.07548585000062187,0.11949953173175237,0.16087997879870158,0.18891608801143533,0.20371105560281358,0.20500584477609002,0.19510958100080286,0.1773509800929937,0.15886394829570197,0.1516238862946608,0.15149168210336586,0.15077079911618133,0.14274928708680396,0.13752733612449827,0.149216513165061,0.1769921287929788,0.20414818335720372,0.21924183643374615,0.22152050618784014,0.21875616924815497,0.22211415102500107,0.23296010183376392,0.252122943220492,0.2761704724407207,0.3056284488497069,0.33119121880171387,0.3349560046765046,0.30625602471159546,0.25110514150834046,0.1847521839517652,0.12924268173188808,0.09486664405822569,0.07830918399674587,0.07217808860666677,0.07009904343822713,0.0668515279200428,0.05802841604382179,0.04103724879853529,0.01659994643817917,-0.01149445201203577,-0.03968900773925116,-0.06655364474607951,-0.036596410590824455,0.02954603411610028,0.057502639415146536,0.0671827728126614,0.062182807246799754,0.044169007797136776,0.017698846916201,-0.016770492189709683,-0.06493747960471138,-0.13836490904541365,-0.252473614243406,-0.41882919323848267,-0.605932480513741,-0.7029992361805651,-0.6532614931207132,-0.5585818083521024,-0.4978952668310616,-0.48255908351662175,-0.4948105872238679,-0.49902602886921704,-0.4747207200415019,-0.42109128694796966,-0.3398954114746727,-0.2323467281876562,-0.11313736764733692,-0.0036837680653609302,0.07816919394621548,0.1349561267022318,0.1727207387715923,0.18471521581337824,0.09799531244587556,-0.07888175752752355,-0.1675650387799143,-0.208819444330405,-0.23114905008322933,-0.24133301414173036,-0.23421808878116643,-0.19278765417645283,-0.0917482733221103,0.06705897135729794,0.2026852274656063,0.2681604791939267,0.2740056707621814,0.24699745946608986,0.20999269502051082,0.18798547081686284,0.1897660037519803,0.21057482633293662,0.22871295202157257,0.22940100058672128,0.23465557837860335,0.26221312184210815,0.3047354750802922,0.34852368786674787,0.3926325550983999,0.4365701682003517,0.48181345137315934,0.521019343348187,0.5498229966221438,0.5677069387516648,0.5809058934020112,0.5860975032102759,0.5756896250636101,0.5494310499040402,0.512944120023484,0.46438943548971867,0.40986448720982765,0.3582665299285303,0.31539010192702577,0.27460049153478144,0.2441587419756535,0.22979771363285686,0.22181171135758457,0.20701455966868915,0.18310247536571977,0.15030329540446852,0.11036375715623478,0.07198981420932793,0.04293099375344864,0.023832421774047676,0.013989694973627221,0.01583590626757956,0.02630215679335891,0.03505358657040073,0.026991627348370455,-0.00887019712562442,-0.06979246165768375,-0.13907070227630539,-0.19935992436867975,-0.24630958803721054,-0.28385383934094416,-0.3161370127364604,-0.33774836174182254,-0.34068287862983726,-0.31810149309814295,-0.27382375856357694,-0.2317839690032422,-0.2127722438477394,-0.21848980897810846,-0.2222166846829412,-0.2059717824568799,-0.1817002777846061,-0.17221622015583357,-0.18900568071173884,-0.23290312453724604,-0.28593658152323437,-0.3249150602651299,-0.3390027336598931,-0.33544554124309456,-0.32849026296449596,-0.32677345744281683,-0.327498265253421,-0.32168612091264454,-0.3051767725979972,-0.26107349230795446,-0.16577739417597853,0.001029268177045741,0.2136482526765771,0.39476213847904046,0.49218201683843427,0.5097170516647017,0.42270558152098964,0.207412076080931,-0.007163885923970377,-0.12789598643487665,-0.179940167200344,-0.20129503863710732,-0.2049225060101776,-0.18574641484532733,-0.13724375910640835,-0.05985653143491435,0.029438872007882273,0.11898404704408909,0.20014522079718267,0.263977771974807,0.3019787507772433,0.3188708711940551,0.3207354336885233,0.3134674543818949,0.30079195356015626,0.28378801761730055,0.2712525399126103,0.2786289099074435,0.313867965089018,0.36754722460065575,0.40031200425702135,0.36074113535960717,0.2848936452946094,0.2363306806911171,0.21468349923344426,0.2030600954585265,0.1873686634665899,0.16030763612187615,0.12465965938784443,0.08508875151012893,0.04799642316130488,0.01522761659549484,-0.013048644244019064,-0.037415948835570964,-0.057121814746043366,-0.07118517708552385,-0.07763366412844049,-0.07334399094953907,-0.05205519115050369,-0.007545594236299135,0.024754364371664443,0.014363055579650164,-0.014825570894582037,-0.043033560607647084,-0.06539449794230594,-0.09108370719637668,-0.1404877540375882,-0.20449745728714694,-0.25437248956708103,-0.2709904054183367,-0.25990849801808097,-0.23106492747698218,-0.19916839219817414,-0.17746572381668596,-0.1767735803508857,-0.19691148524372096,-0.22354396266764331,-0.23919624002081105,-0.2280031555233914,-0.1845412842842163,-0.1243286541673257,-0.07222947953848849,-0.044525901001721685,-0.04561982965000044,-0.06405690309015472,-0.09094089076388256,-0.12524133049244127,-0.15972546718611558,-0.1760380575667898,-0.1663877042373441,-0.1326500034763494,-0.08820285692080428,-0.053029946443404086,-0.04192268627355027,-0.05218902177274277,-0.07256784496797652,-0.08987008961872761,-0.08705713560518545,-0.047467608935536934,0.03345299847703072,0.13021331631945238,0.20843195983095586,0.2548388938099819,0.27861130099606596,0.28413963719356616,0.26699346621863546,0.24033957944401596,0.22348868292456817,0.23302409914527814,0.26673343993005433,0.3177758781314433,0.3741359612319196,0.42370504696925576,0.4542096506483104,0.47230645633292373,0.48816567787895776,0.505752892234537,0.5153563976736921,0.49979077206084777,0.4586813482858559,0.40985474665429444,0.3609905678037746,0.31406739375588155,0.268982201153974,0.23655815035960814,0.21768398080195794,0.21292859740291245,0.21729872060555844,0.21921377125036323,0.21309032264477873,0.204590208250795,0.19895343452163006,0.19209545415404106,0.17855159848795527,0.15318958483395584,0.11193934399528885,0.050496173200326365,-0.023064542498285098,-0.08805678595400124,-0.1268051531985237,-0.13995927895651666,-0.14973988859737164,-0.18008470110125643,-0.2437696703614781,-0.3352960865159757,-0.4372393729984111,-0.5529176566421514,-0.6790712421264415,-0.7713617560368157,-0.7915230851056638,-0.7533478172580028,-0.6814460224231893,-0.5716030110359982,-0.4257669763899995,-0.29524485555063806,-0.23476372596174339,-0.23940481684032258,-0.27423538901307676,-0.3075609898116727,-0.3239062875648924,-0.3285680165574299,-0.3188407739292966,-0.28982374547150647,-0.247287936227552,-0.19932484221168273,-0.14678105815614628,-0.09652781514299637,-0.05046938588535865,-0.012364680952964422,0.027227780414771047,0.08053341425877769,0.14472059778872062,0.20469854153651326,0.24905014051939606,0.2761835298052042,0.2776875630042249,0.24756039292440923,0.20945545610055086,0.19909276193506525,0.23722470078462876,0.31354892795501277,0.36666324978865744,0.3486182871542597,0.2833454249111277,0.21872266783402594,0.1870883338034987,0.21384815416056843,0.3195078942219585,0.47793722763831814,0.5785457574213194,0.5611561482048062,0.45017618761112943,0.26380501213768204,0.06897136679261286,-0.05510794853357488,-0.10417726755938826,-0.09299237691716863,-0.03243217674861154,0.06374536941923167,0.16433145859682358,0.24512268750399732,0.2987398158851624,0.3320402223757434,0.355882013543549,0.36758116543078184,0.3590894858242697,0.32918484726822494,0.2874711790846693,0.2457126964597508,0.21458806332937871,0.2012439632112296,0.2034126147443907,0.19991507188325106,0.16515531635681666,0.08792239419585526,-0.004681344304708621,-0.06342720244887604,-0.0818090773343385,-0.07700164720326359,-0.0515568783667934,-0.012816389945908757,0.01981706110421909,0.03084223337723909,0.012981355943313625,-0.03908710001559955,-0.13045251010368206,-0.24030387665270253,-0.3235329176061886,-0.3522025173069646,-0.3400678028528291,-0.3087133675120118,-0.26670210814132883,-0.21963163674257546,-0.17106673013347604,-0.12259256907714072,-0.07742444699252546,-0.03022310316527579,0.016815114295302417,0.034121401669928955,0.011121848749983546,-0.026417048456687738,-0.0714606606070655,-0.11844280843962866,-0.1625104384220968,-0.19658571342636436,-0.22043286417159375,-0.23708906353363318,-0.24838010429153612,-0.24862825268528474,-0.22122528646077402,-0.13311326766842188,0.03444403754965396,0.2201702414801112,0.31131720652367884,0.2760248191183908,0.15515561502674138,0.031208827181814953,-0.04918950470807697,-0.08644073421886385,-0.07837044115282694,-0.01903658329768348,0.08400330728864677,0.1989629968617957,0.29147331523069514,0.34897439843069605,0.3808456552771027,0.3962499032922662,0.40230501552204473,0.39997971987250974,0.3869393246124856,0.36669261741152337,0.3598817350285991,0.37946090019951484,0.4213777983671544,0.4684751747643353,0.4980459329685512,0.5025799759534695,0.4905978824217342,0.4706124771582233,0.44671715237833287,0.42058001984646276,0.39438949214260194,0.3692917622912997,0.3468755786396423,0.32649899994210885,0.3013926864794491,0.269672169952233,0.2335977233146551,0.19646996823647864,0.1652567898410115,0.14533652898059418,0.14180543371974327,0.1460044530428702,0.15243303548067313,0.1511260755888632,0.12403623559677651,0.04789224359601797,-0.09372835869439787,-0.29111450334079964,-0.47139600884758176,-0.5341630673191895,-0.4838916819548079,-0.4232800076916891,-0.40856598425452734,-0.42561230377345044,-0.44790659004327005,-0.4524953159332123,-0.4373181735797466,-0.40350519961595344,-0.35204512840500374,-0.28582547721858664,-0.21389543516172874,-0.14432656715279674,-0.08747301951824904,-0.05235898770590534,-0.03869439244278949,-0.04597525231070798,-0.0784522461062376,-0.141951485038507,-0.24001933482416093,-0.3471653105242426,-0.4282392961130723,-0.46537197161041155,-0.4642389706183292,-0.42910431109513675,-0.36257620739482926,-0.2734843691539167,-0.18516646299325737,-0.11456731887738283,-0.05996550155040996,-0.013650596402008336,0.036811641901157696,0.10199668727751224,0.17889303048869873,0.23820094702510314,0.2578198844028218,0.22876869511780512,0.1544969149116166,0.06102779990897953,-0.012518194463726389,-0.04954222452061262,-0.0666897058902262,-0.0707732679187422,-0.05569361459163693,-0.0047123747984439655,0.09700125854925841,0.24169987045975655,0.3852555434066046,0.4854739217569246,0.5418166995095444,0.5472231002440712,0.501528372132918,0.4498803100311102,0.4279878389201745,0.4300432947882022,0.43040333850385903,0.4164789561280389,0.39615935845020067,0.38673186331659337,0.39333142328531523,0.4081192034433394,0.41585198835464254,0.4014090577175702,0.37066465305425983,0.33130573898451,0.28283123371385344,0.2118541649508437,0.0985466450878931,-0.044046293057278106,-0.16131205468564075,-0.2290982829904874,-0.25460811760744745,-0.24614412101599425,-0.20320121964481716,-0.12515258141788507,-0.045389185581656666,0.008573487628717819,0.0479636565568328,0.07480184894832644,0.08789567835259655,0.07038030293115141,-0.009000436260998685,-0.22120356302469973,-0.5154329084831881,-0.6270204058902732,-0.4327461178433504,-0.16595259202475443,-0.027326334914936523,0.0028301070794984327,-0.07806042938861389,-0.28624223985422725,-0.482597266656275,-0.5368068905026901,-0.5196305009704963,-0.44445977454559155,-0.2975820161995104,-0.13237476401405973,-0.016936635464520868,0.028292892110063254,0.013394326641601428,-0.05119514497521706,-0.14448453027335018,-0.24185345428843985,-0.31874724256523035,-0.3627604475117995,-0.36901869110738983,-0.3353764155321191,-0.26212708893412157,-0.15564011392537366,-0.05043007203610183,-0.0037705401340685277,-0.04942811548819406,-0.15735158468684926,-0.2380781307269727,-0.25884640226667077,-0.2356776038059943,-0.1801474459574608,-0.09932178235062941,-0.0008685012501118438,0.10423827942846738,0.1801781042155641,0.18138193073898676,0.12827494295555666,0.08012793606423976,0.06676821609727872,0.09520046615300194,0.16666303017632114,0.27017896550023934,0.38605019481446484,0.48441081300503336,0.5440265369086257,0.5528212693477935,0.5228447956453497,0.46813745288830294,0.40981285996040084,0.352451899090973,0.29635905305169524,0.2461156673800041,0.20539492033690687,0.1738808074886566,0.15917447576954213,0.17141055210188305,0.21274212727304073,0.2644763258244269,0.30969356796889475,0.34576905535512353,0.37866030189102745,0.4051901223002983,0.40883561722827433,0.3721980488519653,0.2995062272191388,0.21212368616421512,0.13747336907000787,0.09018104240906429,0.06075531628629872,0.03900485564681669,0.009956996442135659,-0.023783860873930078,-0.042185313094063245,-0.03509988417009671,-0.01099836470429048,0.010556002211892788,0.0058550586328873985,-0.040233030849381964,-0.1224428594056338,-0.22868153536430644,-0.34741974426392613,-0.45599637885125,-0.5447807942678615,-0.6152198920166629,-0.6660865221221614,-0.6812380698532062,-0.6657488982600605,-0.6511826427703862,-0.6521584248764454,-0.6539187752232546,-0.6427031076365236,-0.6156924318786389,-0.5755734463372548,-0.5265089493909763,-0.47182870629996765,-0.4134628680880875,-0.35366371235028,-0.27937231055216305,-0.17024530054863132,-0.024795616645701665,0.12006205837122473,0.2284192497348751,0.2885150869101397,0.3099271757062011,0.29459522198766364,0.2367524721368042,0.14671012592808655,0.0583736768541002,-0.008151596367598173,-0.04957815862274324,-0.0702268723624364,-0.07409967683220557,-0.06484355968540259,-0.0436844352625948,-0.013120535292128017,0.029968188313973722,0.08502893323857444,0.1522262937736803,0.23681207980756866,0.3193277077009141,0.3788823460962036,0.4142876901245249,0.4347870589315613,0.45658710228505345,0.49798231471616244,0.54688425843301,0.5716117463061859,0.5714746621865884,0.5668908051178708,0.5677062564986654,0.5747840330035865,0.5850637033201748,0.5964854827506971,0.6043015929136089,0.607699488295665,0.6018980908695428,0.5665759959147348,0.47154712076426114,0.3260840249279944,0.1905132217278175,0.10622296148794436,0.07158457377597206,0.08115973838366378,0.12007750597262241,0.14288121226837244,0.12483664651695854,0.07081986837827632,-0.015588397208146499,-0.15097239888862812,-0.3154928994130813,-0.46159158343791873,-0.5476965481402459,-0.5789762368076034,-0.5595377032453466,-0.492898465420531,-0.40453044725483084,-0.33531211886864326,-0.3088217348109304,-0.32066002822448786,-0.3536886822195351,-0.3824579950644215,-0.3938560661460284,-0.3817845248511461,-0.367850179183463,-0.3747126504868903,-0.4080031491005506,-0.4525148311918981,-0.481587557574937,-0.47726346443835027,-0.44396409309904394,-0.3844512669035754,-0.3133584456460826,-0.24867651701219895,-0.19392926661494175,-0.1464428911655255,-0.10613104587880286,-0.07569327894159404,-0.05389887722353678,-0.04421289874596062,-0.044276395228651975,-0.052287286495621844,-0.05622830541456767,-0.0451229140710684,-0.009117983499040798,0.05960385675454103,0.1367096967724903,0.16464991195800438,0.11662993028739148,-0.0015672606889184791,-0.18526788205125544,-0.22943405648286672,-0.17614458713251938,-0.12269545621565203,-0.06428722571209461,0.006950806553072816,0.11437928817696784,0.2622061591448812,0.35665745683494954,0.21402113267354972,-0.0001479022982872095,-0.11181988983301627,-0.14224148990031646,-0.12870102882276058,-0.0821231257196564,-0.008967481420574675,0.0902082317275396,0.20888312944529802,0.31685585474547523,0.38127171299545737,0.3958618698035701,0.3830162109005914,0.35741626368157126,0.33258587551255786,0.315572601895456,0.31091772306806104,0.3128586963235471,0.31574618341431543,0.3210128790744386,0.32481124839576214,0.32110664125400606,0.3020741121921824,0.26498492872891394,0.21604561331091918,0.17679130444024502,0.1550965319095183,0.144409618322367,0.13504693165642873,0.1295737444944647,0.13486505939114882,0.1485300443942114,0.1506326895253775,0.1217505497661519,0.05092188168842162,-0.07137085777615979,-0.2599478705862856,-0.5108322786678157,-0.7269018405795644,-0.7872712881549404,-0.671729701101322,-0.45168437307488085,-0.2404337753571522,-0.1017265721767844,-0.04844710995771445,-0.06983879909406449,-0.1560872918325246,-0.2917318084180489,-0.4352685742436963,-0.5446298678137019,-0.5985709319983094,-0.5784269050950236,-0.46689406706020065,-0.29114930643831927,-0.13595235887872895,-0.043755606304538425,-0.006506740538627658,-0.009319967499324613,-0.03987186114716472,-0.08753844332893997,-0.1431650898475673,-0.196489789366082,-0.2172433222934764,-0.18928571343061804,-0.15062963252950776,-0.11657705774908708,-0.08997008336244257,-0.07396781652768221,-0.07070158550112006,-0.0770353218651347,-0.07994632226117919,-0.05253682224699923,0.03281747296772999,0.12010937481137052,0.1619455478361098,0.18055761667671918,0.19188926308304993,0.20061285185011243,0.2195444235911417,0.25396069253279197,0.30284670379578815,0.3547288121536814,0.3938679312341724,0.4026388160358054,0.38503381687510163,0.37067673025511183,0.3939730719477478,0.4314993499923361,0.44216167195783623,0.4040115283801648,0.3316516703953177,0.2575055480131385,0.2025739502759495,0.16487301255061235,0.14296804979916744,0.13411254331256672,0.13847204669699137,0.15247646509550772,0.17224547189143793,0.1948130644696414,0.21772885020167748,0.24205487860773492,0.27364617154642107,0.3096625058626129,0.33790016477091533,0.3513933375643625,0.34067205411659396,0.30288493208098344,0.24921874399070112,0.19239293707808913,0.14092487210987853,0.10274079695380124,0.08018091791402775,0.07394046556937256,0.08381474655753957,0.10530077238104651,0.12781151998635726,0.14233826870006325,0.13844802518155586,0.0898053896368005,-0.06968443416026315,-0.4619741835737791,-0.756249940338296,-0.7715338218151219,-0.7525642863046996,-0.7327139029722395,-0.7057289736320383,-0.6528271251433024,-0.5528744679032042,-0.42070279127342725,-0.3016742860271747,-0.21355829441284072,-0.14895316665837732,-0.09987806623680062,-0.06422526405463186,-0.04339798359932848,-0.03134631977712259,-0.02138392032153655,-0.025936411601989503,-0.09358398600153747,-0.2279198726271655,-0.31176734972863124,-0.35959497011702685,-0.39417068190040655,-0.41780421633271364,-0.4304248692176267,-0.4282878018013228,-0.40615161574276437,-0.36311409173491904,-0.31638959704629865,-0.283310786938266,-0.27615325568599836,-0.29723268379611195,-0.3207146451539223,-0.1739080389177739,0.005259117536183762,0.09736784225810192,0.15917214861007062,0.21740132485284627,0.28292794391893783,0.3591617740857947,0.43592025601030143,0.49577735849254795,0.5294999707215725,0.5443457089809602,0.5594308869343274,0.5814160749863173,0.6034438589083505,0.6093828239709488,0.5857298276748946,0.5275253440989208,0.43898817618493047,0.3481393680404253,0.2901751667307737,0.2741251917091187,0.29125504741905234,0.3196817401410378,0.3420699524833178,0.3443934113865974,0.32054320990145335,0.26106428580654695,0.1705853964513847,0.07376659343492445,0.0001896019422052122,-0.03570268402185694,-0.033739268307487566,-0.0005277793762020189,0.05183698304020624,0.1021935303551947,0.1368935875379342,0.15276452909288296,0.16114803401947742,0.17394079112561722,0.1895392485059472,0.192572846729837,0.1711480554169002,0.12159459855941351,0.050536506317968695,-0.018109312065001836,-0.06843119998128565,-0.10184117280479996,-0.12952960216304782,-0.14062858219282298,-0.12193420853303243,-0.08646575084139711,-0.05529661041925537,-0.050723225849370494,-0.06970079974191262,-0.10405081884541392,-0.14409799527406905,-0.17343552099615236,-0.1864108060878722,-0.18079134338758363,-0.149393412669402,-0.09588102794583676,-0.03635372578849513,0.008984830718696466,0.026878401585375317,0.0008052992014325813,-0.07785450220696558,-0.2031718882431982,-0.31763601419988924,-0.36991423184124844,-0.3877181041075417,-0.39777716487757886,-0.412748183897348,-0.433391161436233,-0.45158413212516463,-0.4477809310838084,-0.4000588576625353,-0.2873323615462991,-0.10481523051174864,0.10604466593168504,0.2605478909802525,0.32188885487557584,0.31941090217289086,0.3042935078883099,0.31273251526131085,0.35592597112209234,0.41787491441841307,0.46168724510894116,0.4912851021056123,0.5320582726319485,0.5485260179451885,0.39863876134746534,0.15870667323365426,0.012904062941494614,-0.0566343593581189,-0.07790280433051718,-0.06312909450300314,-0.01880469621085929,0.03847595061299163,0.09637742699253535,0.15420256351738737,0.2214826182397863,0.30451541350281786,0.3952377302068111,0.4681379246956833,0.4977136336510349,0.4920427658383404,0.4764188735453516,0.4583712400246934,0.4365914062041935,0.3905713287735729,0.27605388408564735,0.10014532521333705,-0.049423014652142425,-0.14917027725154705,-0.21939652203472226,-0.2992039374005922,-0.4097542465353714,-0.5257156274884551,-0.5561968576894205,-0.4236752173762481,-0.19936423966507635,-0.008308958134098475,0.1172535334352402,0.19487399260014915,0.2456310429384972,0.27278854294767363,0.2704773202678489,0.21984099463167364,0.09751595986877029,-0.09538168589927704,-0.3160915478920624,-0.5154569446916736,-0.6437185712850033,-0.6887550166131788,-0.6776021810278419,-0.6357487429384565,-0.5667995090939796,-0.4785759428967409,-0.3897672423772991,-0.3207589901158535,-0.2782828731840038,-0.2571658548591253,-0.24088109406916297,-0.21966138467404928,-0.19978814635324646,-0.18344647893607485,-0.1721369785882638,-0.16584179469581797,-0.15927667653330851,-0.14632704070047997,-0.12493792128163579,-0.09384005662360553,-0.03142231918364909,0.07520578329155037,0.21430682503033088,0.32921756704649774,0.391102327251742,0.41581151411395517,0.43128565153078985,0.4496267380443742,0.46779736220008067,0.46865591114300637,0.4511004517445497,0.43166529060243086,0.40826834796890427,0.37998476321501323,0.34914173965992334,0.33347339428908596,0.3398089645861703,0.3613145609065587,0.3771789073286252,0.38020558321340925,0.3869507820802663,0.399629491652603,0.4018502711917613,0.385026318244873,0.3535984055937911,0.3168686043832926,0.29363083931984085,0.29573515345196155,0.3207968022578105,0.3553720504640075,0.38380889810782964,0.40023546784826314,0.41121181050494476,0.41489710814375236,0.402730446494671,0.36983030619268525,0.3180582680108751,0.2620507577843054,0.21740348550810706,0.19137356296163488,0.17532332073124007,0.16312690530360194,0.14782079158484568,0.13514602418366076,0.11487360201602118,0.06745670989351421,-0.01827318561337424,-0.12894053715189446,-0.22992460610251478,-0.3006469616448163,-0.338527802823451,-0.35714401889082575,-0.3745749342953644,-0.40070027387506973,-0.44815538200280663,-0.5300764895126787,-0.5788330618144087,-0.492954708933495,-0.3811231324199539,-0.30795906339737994,-0.2504573056495306,-0.1959317289987521,-0.1420242022886554,-0.09283208113585395,-0.04840901705455348,-0.00777727320639704,0.023630397454992978,0.037498738211071136,0.019495103893143503,-0.03961673169904235,-0.11173616793435968,-0.16974433127213273,-0.2094740878880587,-0.2357904625846153,-0.255221790277623,-0.27097628853698835,-0.28691712593389096,-0.30460633299105827,-0.3129186468808713,-0.2849548493530201,-0.2220306014807531,-0.14865327005764592,-0.08369287177065007,-0.02661249181700385,0.016407262331953942,0.04287317493937333,0.06244795959556797,0.08574572857103442,0.11365184784488092,0.15471049973924297,0.23634741047644744,0.4189336614930852,0.6640970957082764,0.6953532763531732,0.6073910462641451,0.4885034011288716,0.3523203600110556,0.24012709539946533,0.17302210381673497,0.1397768948264698,0.1171662074184788,0.0817874288003394,0.024927021322681424,-0.03930921559092098,-0.09267956578271484,-0.11418864340561971,-0.09669916744497317,-0.035351922689158065,0.05295117049840586,0.13956782432104883,0.20275659834541268,0.23886773887305274,0.252977515062652,0.2588712772807766,0.26290905360282274,0.2697545453233844,0.27675269789338885,0.2887526495010912,0.31490716118815304,0.3498701744211939,0.37498016919758925,0.37450410334191203,0.3544762697848033,0.3264472412687827,0.2942997248800108,0.24827153327681412,0.18241996903960853,0.10108382834650609,0.0013333079998285103,-0.10207939523077188,-0.15904762975256792,-0.15158376023259415,-0.10938217015877283,-0.07580147528406554,-0.05618434648994759,-0.047473078866517075,-0.044974752916306926,-0.05213001843264403,-0.06125993060999653,-0.06349751836536092,-0.05256949554540255,-0.0351875668563672,-0.023441094966751452,-0.029197054379803567,-0.06887041705168065,-0.1739262740202037,-0.35805501084001035,-0.46577169499119986,-0.4728051456196024,-0.4742747695456102,-0.4878767582892252,-0.5035266006093133,-0.5072572942350084,-0.49094771683570504,-0.4632827397331248,-0.432954837385471,-0.4029227319437648,-0.36694893793012245,-0.32082149352205946,-0.2612695594266329,-0.1835435024387276,-0.0881337737977519,0.010281341021175491,0.10264090282882976,0.20216139648769418,0.31629598547233534,0.42085937004640495,0.4872973991888894,0.5012180365384685,0.47209046365818624,0.4223850715461863,0.38749460774515204,0.37955436217999317,0.39877321627338436,0.43051227873398196,0.45827942994091386,0.4688093295516025,0.45116219020656806,0.4085491605289181,0.3597319251635992,0.31440689079156653,0.27854028426760985,0.25550089969036216,0.246180210301833,0.25038498054677727,0.27228088906399067,0.3227607534200774,0.36203268580165454,0.29976491503842473,0.2195425517787496,0.1696177838757047,0.14215670339924505,0.12767145289260987,0.11916733769936713,0.11217946301621001,0.1032131315798054,0.08942216529939354,0.06951535769976079,0.04655410900250966,0.026962724756811354,0.019773942327591127,0.024863578490482954,0.03649180134733049,0.05317227901401576,0.07158447748071456,0.07128134004702785,0.01744826792905628,-0.07521131822845971,-0.16225506618085325,-0.21961557816581456,-0.23615183249137273,-0.1889838249616983,-0.05645051532365223,0.09143892691541551,0.17648076466583285,0.2065887848751921,0.19917906815182723,0.16267964058499418,0.0779011772687716,-0.1110780564234997,-0.4272046151316757,-0.6319935383120938,-0.6537343838352216,-0.6328758312121774,-0.6165739959684631,-0.6121296742495362,-0.6057844928110554,-0.5624119524689747,-0.4842539654047866,-0.433158609927793,-0.4253310773230422,-0.42907553145646293,-0.4188603693859305,-0.39978328797410945,-0.36708693830543254,-0.3102110420716708,-0.2254043624187822,-0.14199427934828765,-0.09841884280679047,-0.10396958414536397,-0.13227028775670058,-0.15466173512238382,-0.16107469597726415,-0.14549444404342804,-0.10859614918078658,-0.053212097577384994,0.011799578165739644,0.07976329535237314,0.13807833089760602,0.17321786066886946,0.17834047811340567,0.17676966875334987,0.19627388401980772,0.2569036259980096,0.3426680236091961,0.4205485639900047,0.47381040058521917,0.4949624437393453,0.48650145113246823,0.4520809688314833,0.40575012789466464,0.36922417143609576,0.3521496333748017,0.3474266806151172,0.34142994271815946,0.3297860134425704,0.31538952396213354,0.3057469023481142,0.3105170908589383,0.32401226550714424,0.3405013819404658,0.3563123631506612,0.3686871352072208,0.37601003055136983,0.38033675370191083,0.37552556170792667,0.3688713399217162,0.3627758343966401,0.3458050818553299,0.3086024758702145,0.25088630085085545,0.1854990402633614,0.12386684053181928,0.0777404174706984,0.05841096003240184,0.06974572052190459,0.09147257853598209,0.10194636181520945,0.09047890477230408,0.05529582246121932,0.0031583670966374403,-0.05294941286633248,-0.10157186305026902,-0.14039746387538965,-0.1746957866452368,-0.21660735522467178,-0.2746823165968465,-0.34281353651588764,-0.3971629789748344,-0.4340335986562411,-0.46237393428771134,-0.4855724332305367,-0.4919546628074108,-0.48749542897345877,-0.47876992493166154,-0.46685641643313147,-0.45215882953876557,-0.4302970676077841,-0.4030270746843177,-0.3727111731952743,-0.33851522411848345,-0.3000301463003482,-0.25797220026139145,-0.20830254842750304,-0.1570820014684746,-0.11459718144195782,-0.08228153566797755,-0.061734049079056885,-0.06034531534211519,-0.09157997929086138,-0.12792805478875902,-0.15297061143531793,-0.16689296510283874,-0.16819922637528276,-0.15177059763877024,-0.11392111190456346,-0.047052478585914354,0.048544386346889574,0.1640462944304915,0.2627596863849131,0.29759858515869425,0.2755572391065283,0.25525233333030256,0.2834234066900418,0.37960877335998483,0.524300317403321,0.6516328556842461,0.7144151405576592,0.7182207819697787,0.6970399734285769,0.6618103041994445,0.608974349675205,0.5410686110577325,0.4563198236059047,0.34536219459696443,0.2119307903445982,0.09268824892337532,0.02058241137249601,-0.004761041697741445,-0.0005990773611122103,0.015361499471605266,0.03698447477351548,0.07140523578639596,0.12495732695249567,0.1828216902476007,0.22159074494583586,0.22223313908001494,0.19226941344922713,0.14632906539961835,0.09012898464284097,0.022179434516545395,-0.059859479481620875,-0.15690983974672007,-0.25785157801078357,-0.3397910272135142,-0.37374346233763045,-0.35146770509221154,-0.2855725613626635,-0.20466963745918454,-0.144589970242358,-0.1291327343757161,-0.16688727433462014,-0.24238287239511563,-0.29398889413988527,-0.2820988369373116,-0.22986676727765698,-0.16165884971569472,-0.11130043806981417,-0.11512754172728068,-0.20755896225494833,-0.3902189184053299,-0.5708181865848694,-0.6591198489401666,-0.6812231096103921,-0.674446226796583,-0.645361212371807,-0.5754435365052211,-0.45086934050049443,-0.29924909298700947,-0.16658002614989997,-0.07227579567096759,-0.016680314561715173,0.01333412941829521,0.02995247037862009,0.041873008808269066,0.05269046238988056,0.05875123502802004,0.06314806255787099,0.07600235543602443,0.09212904584531369,0.09880135282500123,0.08796831648428254,0.062378441968355625,0.04381199434845807,0.04857209049570928,0.0861095311401486,0.16128514832144294,0.27874506463158416,0.4460925562661201,0.6518581552676352,0.7688531281083137,0.6830198106050647,0.5642586071404482,0.49036815502405856,0.4554015546498051,0.450902705161933,0.4659761872392192,0.4851538859218736,0.4939417012239102,0.4898501659878253,0.47514599357426773,0.4545408404569832,0.4363213027437263,0.4239473093697465,0.42610148005101545,0.4502127590773775,0.4881195936038174,0.5206896816965055,0.5302695526786746,0.5071908839054973,0.4618386804944428,0.4085865485578921,0.36008541669566657,0.32549137898417263,0.3043273793980613,0.2932137071250011,0.2852031415868601,0.27643871504445455,0.2685104180964113,0.2619880348361379,0.25349579151347357,0.2359912516460683,0.20078986329163725,0.138597970328343,0.04611375746977938,-0.061563861579150427,-0.1510061832111849,-0.19419384971639736,-0.19795901518034043,-0.19451019269406197,-0.21882912947941283,-0.3071581460232641,-0.4679024376907645,-0.6279070857239576,-0.7017627391211497,-0.7349284857455914,-0.7648388258032954,-0.775076137777942,-0.7421071933889828,-0.6769786369007571,-0.6131836415446638,-0.5657223087046058,-0.5340837758328989,-0.5122153936570164,-0.4999780139732088,-0.49722229969081455,-0.5017761919472417,-0.5077298912157017,-0.5096719313183008,-0.5063249641896077,-0.49487209881757893,-0.47138079708632313,-0.43344137172374103,-0.3864991691592639,-0.33624708317042606,-0.28261708032704247,-0.2202415458772649,-0.15192195505947736,-0.07758985897509886,0.0032782328303749076,0.07831801492939985,0.1251072890833701,0.11504943624181045,0.046727287616165084,-0.053836151080745624,-0.12624157146041728,-0.1369990900172489,-0.0668914512676723,0.09210266806805227,0.2831551264530921,0.4137407068568548,0.45574506800037023,0.43515171418150145,0.38014181147147036,0.32749038908340883,0.28734049650952903,0.2605068890832898,0.24008575779514604,0.22613331171278456,0.23020669121093212,0.27057950300238576,0.356197806468096,0.45812495267552084,0.5208148911040874,0.536384697810064,0.5283241237428346,0.5177633940767296,0.5096005193409463,0.49405475856015124,0.41519133033194233,0.2333417670609118,0.06676086986998174,-0.024216045446162078,-0.06381349957014715,-0.07211950962336951,-0.05649689350821474,-0.018764522867687098,0.04156015064812232,0.11250659776368838,0.15061939563857996,0.13568659827282056,0.08301244242460053,0.006347836821209563,-0.08656308602721219,-0.1839150152137307,-0.27510692188565034,-0.34676801052924944,-0.388155433269443,-0.38025949602008075,-0.3152688545935329,-0.21274873567080366,-0.11326169271706805,-0.04350819308889175,0.0021857725664555625,0.019746938465431397,0.008270350127431046,-0.02982932082081567,-0.09703316548231011,-0.19931157894845217,-0.34331257848539404,-0.4946966573637376,-0.5615750428763607,-0.5455771981496571,-0.5078967455553389,-0.4610995722809909,-0.4060584693165769,-0.35764919553128194,-0.32651005954589624,-0.31894890253586483,-0.33386654248152187,-0.3646654070335303,-0.3944022846964153,-0.409806003009525,-0.40867885858197134,-0.3909523610391782,-0.36186230610608955,-0.3227894054708622,-0.27408769142637557,-0.21066619482501792,-0.11452554343717128,0.01635052656361126,0.14724868238223274,0.25515890634362476,0.3526532294256471,0.440896125206829,0.49380921720320825,0.48136214592427734,0.38416718569859254,0.21255846513763266,0.03711842367349809,-0.08161491718312973,-0.12277249310020287,-0.0847236454067203,0.015493790268485807,0.15532988183013902,0.2890262159132401,0.37735128379878785,0.42497009317555035,0.4647627595705284,0.5124464630866119,0.5581451389774931,0.5877067033821582,0.5936274918680566,0.5711027916568955,0.5179840537481667,0.4409551692224336,0.36063959881206037,0.2993636089956638,0.26531103071839074,0.2668951207555505,0.2926601972130864,0.31281892337911554,0.2984736732434449,0.24546979100693825,0.17082993756828502,0.09960194247372145,0.055897828665926366,0.0541999357627999,0.08094138624547685,0.11366977633593107,0.14045451376454204,0.154966297048686,0.15350054640279231,0.14111730379768658,0.13275822625617847,0.13241746028036705,0.12677485777143194,0.09585800777360089,0.037318827124967015,-0.03552960573603223,-0.10916340036915179,-0.1740157986449468,-0.2314718767828116,-0.27539162695810465,-0.2973217070145411,-0.2946315433275598,-0.26363528432632877,-0.21548634564464275,-0.1633352459888898,-0.12150284732198541,-0.08242969930043764,-0.04377087463020806,-0.019144302837817505,-0.014191335742520732,-0.028395527186386573,-0.0692830041584074,-0.14403923606842278,-0.2327647468522257,-0.311401149547027,-0.37071656919858115,-0.40753941556312717,-0.4211576536075361,-0.41663376214521064,-0.3999457154704871,-0.37303844229596866,-0.3321442392737094,-0.27703952842449564,-0.21489790233938527,-0.16096292377096344,-0.12686072033082618,-0.09940815157924594,-0.06377594352990733,-0.009089073262559751,0.0705894074420431,0.15905870912484749,0.2405888643240454,0.2952194414279303,0.31285904856438784,0.2930750406948428,0.2489697577984117,0.19866214414350641,0.160652636807165,0.1408510126624325,0.14980677014120947,0.1968458086737726,0.2937561156266048,0.429764405980452,0.5344875623454783,0.5616870469139973,0.5394896366176738,0.5158364186377741,0.4990490702109469,0.48103432997706286,0.46386787878197655,0.44090542591142634,0.3985255121643862,0.3292072472456657,0.24402113087607566,0.16956580630851373,0.13108116074917003,0.13283898852868947,0.1587046457290236,0.18673463995277745,0.20228117762359205,0.20782673033938823,0.20642504651659052,0.20468537466912595,0.2055758633720391,0.21846799588159607,0.2505699949427986,0.28100231647046064,0.24622778266579068,0.15793372244059284,0.07322597864190378,0.0036077602692284713,-0.05104018487996991,-0.08886110329122658,-0.11099250553434145,-0.11883904228767699,-0.11512428460682447,-0.10384101548990142,-0.09174149709290236,-0.08783381402513757,-0.1031586535203729,-0.15942737792804423,-0.28621720294313335,-0.4566812146202123,-0.5372982828333568,-0.5244781136279625,-0.4888768414494208,-0.4485180973774112,-0.39884019802799053,-0.3416238157112802,-0.28311574470740425,-0.23231001822514527,-0.19908072141776026,-0.1877993488099136,-0.20440736920231403,-0.23130697046615897,-0.24611293607777174,-0.23268135060185757,-0.19024797010696642,-0.1174879988581774,-0.02443145886430069,0.06742450109576509,0.12776984691935606,0.139603732297891,0.11112447701651465,0.0482379931627418,-0.04418909785497744,-0.1468051064923815,-0.24220266490724407,-0.31682641155529656,-0.36447169606519764,-0.3830646307432268,-0.36979352495024664,-0.3033547109747246,-0.17748544960985108,-0.055921417481640694,0.029151044786041955,0.08651006170875453,0.1318015052866492,0.16955008178850922,0.19532137302062344,0.21034906708144394,0.22665347529726143,0.2520692879749689,0.2775065410517652,0.2847167181906174,0.26857580527130687,0.2421152414389613,0.2237120504983333,0.21815062858423995,0.22339210087662162,0.23541662127576032,0.25531055894358134,0.29396145313913197,0.35533023611215747,0.4209689709689456,0.4692149075047499,0.48865193963246467,0.47809166601773967,0.4396599661562236,0.38410058970527355,0.32504762288469274,0.27402998185734206,0.23383989300756308,0.2090929825814397,0.19069825899149528,0.179103685240446,0.17337304370249448,0.1752319026463626,0.17840401888506896,0.17384687032020818,0.147450027318644,0.09582160333203397,0.02498146177900602,-0.05195457385530019,-0.11450697694349948,-0.14664685732682356,-0.15294726162269506,-0.14450118419351646,-0.13762520240265888,-0.13245124575779707,-0.13322372756760972,-0.1377222946737499,-0.1595239137077031,-0.19525386710821557,-0.20448821285604285,-0.17790868559237746,-0.14949197686694315,-0.12860810533783326,-0.11628765323630745,-0.10800238954089822,-0.10340450804831763,-0.10404657271202912,-0.11258483410687388,-0.12830527574067893,-0.1452107569089667,-0.1537404827846189,-0.14795250363190332,-0.1317717753544236,-0.11917819832723456,-0.11617805112212452,-0.11922082476207412,-0.12566243817341233,-0.13330502333964706,-0.13353416394121165,-0.12293365786023411,-0.10873070852630852,-0.10129573809111876,-0.09795773107609901,-0.09227411587715417,-0.06843204537508661,-0.023624206956303115,0.022266141651986964,0.05903713111946307,0.08277618976948709,0.09730888385775119,0.11449653621399081,0.1441287685914755,0.20983835347491675,0.30486512180475095,0.3905954382588092,0.43804421987646164,0.4473305468633345,0.4412342630567723,0.429560439740617,0.40981410090041764,0.38176448436401367,0.35637640516224534,0.3460902975401055,0.34402911286759896,0.3426834654328697,0.327645034922683,0.29401560235744134,0.24080666219233837,0.17544755521642483,0.1206251895360852,0.0908528490355492,0.08275206846063327,0.09005998682231653,0.10618603555465331,0.11675972889212903,0.11364903633198652,0.09683029206796628,0.07989297434258769,0.06749708598241548,0.05995084717270029,0.057656686672353366,0.05255820552552598,0.04011420586528645,0.023541872941343408,0.01501336229857669,0.032052841055347,0.08368068316435645,0.15071285369737314,0.1894493858875723,0.18759277751190265,0.1640674721634123,0.13405741576287636,0.11315509840681107,0.1120637130641348,0.12643640020973243,0.13996542211831983,0.13160363187500837,0.09230662302884611,0.012265251593187702,-0.11039855825346255,-0.2739135111962308,-0.45909396643335937,-0.5887379448916769,-0.6106744671646214,-0.5958066866519953,-0.5926627247579729,-0.5912226216351799,-0.5597126650165825,-0.4696985124430692,-0.33807500895922865,-0.21131190207796202,-0.11771225327024923,-0.07820379704532691,-0.09835034801072111,-0.18067154880113087,-0.3059196241775363,-0.3994238283671794,-0.430855517809525,-0.43070520720983224,-0.4154226627958604,-0.3839318071918466,-0.3267458769357338,-0.2329727944677805,-0.10625759143889714,0.031570499170921536,0.15593752765432523,0.2559981380349718,0.32465660115865946,0.36190738258300326,0.3618881194941101,0.3287677764287023,0.27886196281189385,0.24102432805654228,0.24651502832454616,0.3134130025429227,0.40921344356002975,0.4803995876454118,0.5180476381207442,0.5402131168112068,0.5450918677665603,0.5110208403232056,0.4363134432992319,0.3614302068453328,0.3101940354209136,0.30004534931031773,0.33127698284648244,0.3899550581084746,0.44459529003303744,0.4672263642730682,0.44666512392095936,0.4002962447625624,0.33954086088923463,0.28043441058779117,0.22907500655596108,0.2022025325754291,0.2095096617477368,0.2481378000604434,0.2955641442244175,0.33048249748350333,0.3421474714050619,0.3305855366779873,0.3057389633518018,0.2707444620647583,0.23464840975336734,0.19799334920568254,0.16295266115797905,0.12676321683503672,0.0944345361759706,0.07043150528972422,0.053771820611480343,0.045957911581448546,0.04785134235434922,0.05327074091079032,0.05356067825790274,0.042713580770229964,0.023510151452563337,-0.0043816818792306094,-0.04155800120113393,-0.0858125587139914,-0.13389459760881095,-0.1800710412261726,-0.2143221576410008,-0.24160009249864026,-0.26471676109376796,-0.29149211701063454,-0.3136380867805883,-0.32168482814533716,-0.309042165721257,-0.27926598349760223,-0.24229608486579274,-0.2114163528493945,-0.1976528850773178,-0.20333778803828478,-0.2264946414708351,-0.25452320189179967,-0.2646370652353171,-0.2385427399517462,-0.18587794772272784,-0.12071521448614643,-0.05979711315768577,-0.011433057852707732,0.024156311848614387,0.04050283838567259,0.03748733003381352,0.027507600219965487,0.035671778153129004,0.07310659577457446,0.1360600434394034,0.20974138531848666,0.26653202869208875,0.26880280137125223,0.1983054456839385,0.09435838965389959,0.007979718338894768,-0.04236539228795682,-0.06094659941319146,-0.05229343429831834,-0.017364269312369663,0.04946008337672571,0.15169408146595129,0.26305446297919355,0.3563872383383876,0.4257271708576052,0.4743488681758895,0.49933783883155214,0.4895927213683983,0.45165098302717327,0.38874666185662976,0.302789794837881,0.1986084604092633,0.10224519742858271,0.03230803812253923,-0.010187900197250813,-0.030147701154232202,-0.028245477283131343,0.00506517832066445,0.0742175171628314,0.14681264651963571,0.1923187730373444,0.2096454576781044,0.21147355237789509,0.20510134425816456,0.18773283172022498,0.15022950981652758,0.09736256616296098,0.05340897976412068,0.03974202522930347,0.06632270143701251,0.11755730857619527,0.14464680028316548,0.12419322554910733,0.07642471570761683,0.037086997048967674,0.011971082151363567,-0.005932998900066778,-0.021664609978639483,-0.035625241452408175,-0.04637505630550024,-0.05771500020669744,-0.06987263410262833,-0.08155615845912194,-0.09524322038124643,-0.12010310394175175,-0.16479119897025754,-0.23092904507396142,-0.29970714073638843,-0.3551613888065614,-0.38612631671957603,-0.38842849519412914,-0.36209041029565364,-0.32708979642099617,-0.3106425609793351,-0.32605706128504297,-0.36314460129143367,-0.40417759003547454,-0.434532106710639,-0.4551789976901631,-0.4613136900116381,-0.4557237079674729,-0.4398617158237086,-0.41587812638259725,-0.39071328832576663,-0.36531743865113925,-0.3343273590593785,-0.2902385288556971,-0.23103589792505388,-0.1654128341745871,-0.10052847737555892,-0.037944277766985855,0.022520392739440388,0.0820738580018787,0.15733878810392773,0.2538583052792113,0.3629211527695095,0.47229434107889184,0.5656458550304921,0.6391040056430545,0.6881311199951502,0.7161789650922703,0.7142648774307011,0.6759319573399515,0.61857214287682,0.5678524953425153,0.5305047417032651,0.48784247005820014,0.42415957806040433,0.35123637849897044,0.2860118824941744,0.231369299456297,0.18774369455822376,0.16632795234192957,0.17702852036709635,0.2200039688069411,0.2799261489382072,0.3394746882158511,0.38771786085739957,0.41502783127217385,0.4155383769055891,0.39376412509836467,0.3633144622075519,0.3291650789342905,0.2934952872780693,0.2434458659588224,0.17174216390253913,0.09368124274763721,0.03281674049886777,-0.008123968421445624,-0.030509750232694737,-0.02238150636383527,0.030069899094013745,0.10203947029693304,0.15724432350953996,0.18498810444868827,0.1847344589742541,0.15964999159558127,0.10888838108640334,0.01591675536706303,-0.14016104132180593,-0.3548106437891756,-0.574578169893225,-0.7159161952043993,-0.7424676236726173,-0.702164692803944,-0.6493925594828077,-0.6060513166135687,-0.5733255149719434,-0.54873216102046,-0.5312834710909494,-0.5121786943526485,-0.46975910165361007,-0.4103542880119139,-0.3704047269152814,-0.3647131970614077,-0.3726563567969609,-0.3702977061660782,-0.35593657425776465,-0.33670032913437314,-0.3051426374536371,-0.24952671032245224,-0.1579732809357188,-0.023306068172484193,0.13603242355823772,0.2735481040663304,0.3575122729761344,0.39489713609488564,0.4088642540768697,0.4300843791557846,0.4838847650702878,0.5799556100923975,0.5641190511936856,0.3266965926836828,0.1725866555983506,0.10506917250898867,0.08961997877100568,0.11530380690476813,0.18218110886403097,0.2958397732295198,0.4568145604781979,0.6337947285675459,0.7519919869521817,0.7917162047399863,0.7830636021703863,0.745469299339669,0.6746999991103187,0.5644490151753285,0.4376681919710565,0.336721407385138,0.27604834627369657,0.24894312412272027,0.24813884130947494,0.2756478498873316,0.32772697506264387,0.3814914497894688,0.4135124153713574,0.4109273548084543,0.37086884822784844,0.3005954061539283,0.22053433256564262,0.15076958331884788,0.098437149778736,0.06975332697453639,0.05118514810783128,0.030249213253040114,0.00019273720974889103,-0.03287090959980702,-0.07017940519672845,-0.11830737404075775,-0.203940937719613,-0.33136067601858904,-0.43367003264429094,-0.4532976450854448,-0.38569561722592893,-0.27092083151069496,-0.15846626254167628,-0.08484777829872904,-0.05801446317634687,-0.0642530396152573,-0.07751109186437513,-0.08939628375489077,-0.10371317411674089,-0.11399204105770391,-0.11346345248480752,-0.11453782136156124,-0.1449375244226913,-0.23010653712821508,-0.3677684708980648,-0.504222298331727,-0.5822307096562713,-0.6006304617962137,-0.5728597079899763,-0.5077139719031771,-0.41761928549333033,-0.3235888399975819,-0.24899655346271124,-0.21390023706436884,-0.21698149005448916,-0.24032983545842257,-0.264194393971427,-0.2789678434589915,-0.28320425233214214,-0.28204247025566287,-0.28144481660352716,-0.2807345674654954,-0.2727394412208756,-0.24759009191756653,-0.19900388583782022,-0.1283499266337144,-0.04188286645474642,0.05105313425349913,0.12977068283654397,0.17184602244210417,0.17845327892790946,0.17375459944652588,0.18809508478512454,0.23966096978768467,0.3219120957222827,0.4054748703742119,0.47276189718284084,0.5221399648866707,0.5634389120939778,0.6093180953511943,0.6491596377360289,0.6673907028679441,0.6607036101071923,0.6293091759277051,0.5719793375089556,0.47496953063093517,0.3472891424605323,0.2295843778679236,0.15412030016048797,0.1237978798786758,0.13562108091127795,0.17937575653122934,0.23015144329413786,0.258406952801699,0.2574677935070737,0.23461341245355113,0.19696207615125497,0.155371190384371,0.11938582895891858,0.09700189159167906,0.08403358694610073,0.06816195629116446,0.03814341846766017,-0.008714051216508168,-0.06935644115992483,-0.14276169370918576,-0.22862550899837752,-0.31156382227751156,-0.3751211081398568,-0.4083818745577855,-0.40452699914548396,-0.37237939669331604,-0.3315435268346297,-0.3059731707388505,-0.29335726541703583,-0.2834658593323014,-0.2660425543655075,-0.23577140707477828,-0.20380921748232825,-0.17516927399458315,-0.15647623429641153,-0.15074276722466076,-0.1556922151492635,-0.17162899268814064,-0.19972173595582707,-0.23025090454801428,-0.25004336407861083,-0.24886217085925272,-0.22766769770325557,-0.18920409492900805,-0.14048831147611265,-0.09819977922142487,-0.0701394852639977,-0.044106096050331355,-0.016192138729579534,0.005531806190490696,0.0026833448409838527,-0.029909585802633476,-0.07602446670036611,-0.11584756276349387,-0.14092414252300584,-0.15894581138011427,-0.17851281753953657,-0.20312725944997279,-0.22115739341420207,-0.20435872210968714,-0.12612486405795817,-0.00023462350244687053,0.11603147525920267,0.18455905241395576,0.22364709496677046,0.26286388462209687,0.3237326306414002,0.4072966891213309,0.5033803478843306,0.5758062987194822,0.5778531267283923,0.5143461561921371,0.42876303307303637,0.3634527750339732,0.33928718738923064,0.3546993763086566,0.40258868861288855,0.46045949631822114,0.5095825843348016,0.5487917749214148,0.5677323722151921,0.5515581769252158,0.5055473205442502,0.45006307112116956,0.3894900733584237,0.3291803070807511,0.27377444313412425,0.22626311466510887,0.1765132105281999,0.114671072951726,0.05094349022202974,0.0036948464446842928,-0.020461685488619104,-0.02661888036495269,-0.0226847570614075,-0.007182170319300073,0.020976024302459283,0.054086231956863545,0.07064261012848397,0.06251926440957979,0.028933180945649322,-0.010591876649914842,-0.04148762697458634,-0.05801232042371951,-0.06179014512786348,-0.051604571990283156,-0.029743885425989106,-0.004186746161820886,0.013518937692982975,0.01608297951213781,0.002666489313443407,-0.02167733186587531,-0.03892326654557723,-0.03907203901403371,-0.03688724171873275,-0.05352347838465533,-0.09826136882558666,-0.16784484119651283,-0.24714363636605804,-0.3115833066388054,-0.34955598507622015,-0.3604559261635784,-0.349792192290473,-0.3287349669278944,-0.31624149980024713,-0.32114884235002567,-0.3321293476160636,-0.3364300345770957,-0.3326158690313268,-0.31944904996544393,-0.2906185249457815,-0.2507884207838293,-0.20403078153321913,-0.1628997508594709,-0.1353036234752027,-0.12798824453839974,-0.14518600232374115,-0.1739252440233466,-0.1969082881331238,-0.20425579712373385,-0.19645588452354223,-0.17002264074103324,-0.11498107247899651,-0.01581097854318514,0.14754208634384475,0.3849141173438247,0.5916577852751287,0.6797151451378313,0.7092829357689558,0.7422152328345658,0.7906854010564046,0.8146158042756066,0.6680075199087039,0.35204488746262835,0.11431235824121706,-0.009960189048934259,-0.05998654882703487,-0.0481777465246156,0.0322383082173165,0.1661260301776823,0.2875931224938568,0.34654755094431267,0.3455864614424368,0.31801131833919605,0.2939577768241929,0.2886831706639857,0.30316495661838616,0.3298232712887614,0.35457506667894223,0.36709939519998125,0.3653278218574577,0.35184881789321615,0.33305314034372824,0.3152038107442199,0.30592778820337335,0.3032903077416837,0.29602478101980456,0.2752505893361517,0.24705201149859282,0.21632414352007304,0.18831858906608173,0.16548347856254816,0.14467710580546422,0.10999744019383799,0.062219987669079026,0.014038416721086864,-0.02279840152223276,-0.04533863039939715,-0.05670305107762132,-0.0633779095149794,-0.06722209053546806,-0.069508712615701,-0.07490199201034606,-0.08322362669505606,-0.0876276354257982,-0.08635359555804115,-0.0739583933649069,-0.05094230998112645,-0.02103209442516847,0.009924442514574215,0.031392080992637086,0.03418161188280194,0.009536965561927064,-0.056982979418270255,-0.19464733318284377,-0.37468418736923403,-0.42222810324465576,-0.4001847813791893,-0.37843682219581043,-0.3605182591439881,-0.34013439649520033,-0.30826204639730415,-0.2596598795282007,-0.19325541336494856,-0.12318046823179704,-0.05909600210941665,-0.010011727849433995,0.02511122457720421,0.051193546062101934,0.05727446339061672,0.043131816860889884,0.03519373117275247,0.05912413626460392,0.10112135193141143,0.15423516189477174,0.20834713522317447,0.25766098615064653,0.2921770986067188,0.28907272707800796,0.22588231880467888,0.11491536800636735,0.00519059759427529,-0.07159443425580875,-0.10605493500222964,-0.09925483672438372,-0.052688430538986426,0.0297884663428944,0.13754433832379928,0.24677978108535936,0.3354121787054145,0.3897471864971657,0.415378826266557,0.42132677656118506,0.40884172666031554,0.37093404449843276,0.30564215732873123,0.21851684815341077,0.12814812499506445,0.05958785294677342,0.03053088179018176,0.031729240885265624,0.0522893476597668,0.08319630883705643,0.10913629299631578,0.11339780705944479,0.09626644627676667,0.07231440677288622,0.05207745361463724,0.042847988891919465,0.0604109486774519,0.10602626458699053,0.16822296501671063,0.22611702146898108,0.2599313763156934,0.2571358150795379,0.21295282458252288,0.1314177401112206,0.004540040521202637,-0.18504838658542969,-0.40367919197603563,-0.5699186255681323,-0.6259118846554815,-0.5798781198883621,-0.491940440523294,-0.4085882543750276,-0.3476764156174799,-0.3049136693685005,-0.2715439526623809,-0.24083881349998715,-0.2051638626281469,-0.169268475596132,-0.13661830530165242,-0.11290776120615051,-0.10363835607250645,-0.1152183232362941,-0.15632343191740533,-0.24066441153063828,-0.35568269189647256,-0.41830976971488015,-0.40781510505799584,-0.37482474504387775,-0.3343545105224456,-0.28250880868018946,-0.21952059588028341,-0.14877425725677762,-0.07652089816917258,-0.015083700751088459,0.023235850892098276,0.043764113649373076,0.06575658945752216,0.10813137332644282,0.18003719690920425,0.28201318134177483,0.4166158794296078,0.5740933629602866,0.7015017523292427,0.7304010138572028,0.6512456048468044,0.529057784135469,0.41801721963708294,0.3389214153838741,0.3004851687146501,0.2952339042616817,0.3095954869970236,0.33367954636710107,0.3569563913765385,0.38014328351952476,0.4016626406371209,0.42683779791121695,0.4527580701671979,0.47341050661171763,0.48566194773644816,0.4888239375782063,0.4785954232033311,0.44933769478504376,0.4067013174814964,0.37470530001172914,0.37286079068503125,0.39948752599683596,0.42925734339048954,0.4429704965036102,0.4407810524913826,0.42614104226180477,0.3915985617811624,0.32390702091939827,0.19903284692311998,-0.014210693101829552,-0.25321107937051185,-0.39598811012937285,-0.47546629179663147,-0.5428580612181277,-0.6208866726446569,-0.7065278331171633,-0.6985244314260751,-0.39274942903487386,-0.11336541234655058,0.016743633694235878,0.06582239580603383,0.05535352822314631,-0.020968481305777553,-0.1801269534613921,-0.3827477620085347,-0.5304591159728215,-0.597199393532879,-0.6013963177860627,-0.5605679745664417,-0.48907660778784356,-0.4018631952459617,-0.31998002948022347,-0.2648581833916726,-0.2385063189435349,-0.24308208876025872,-0.2786500396384135,-0.33956944198455685,-0.38870293597780403,-0.4080320484966375,-0.41440529468318127,-0.41806424077299364,-0.41777958574143265,-0.41015218848616014,-0.3892668234110929,-0.35462761618110683,-0.3043827955301202,-0.23571988063930066,-0.15433733296147115,-0.07502221526792513,-0.01699782959292795,0.0039941766541159865,-0.008671038075800509,-0.023688267053240293,-0.007965550176739318,0.06410929538443318,0.18478365698886448,0.30990170291368246,0.3984240105835468,0.4418712094825114,0.45840403402345065,0.4787821847004748,0.5177176224063033,0.5630687046564748,0.5927484436903171,0.5985260608311055,0.5833741837946919,0.5574086939332713,0.5356979514171949,0.5247631925784961,0.5163986793655935,0.4972145276076105,0.45395988730175196,0.39455510393180165,0.3363958975331365,0.29298584961432356,0.2623696837458141,0.24157212450256924,0.2240307919808096,0.2002642372539961,0.16411114790834783,0.11877703059078862,0.07021956303604308,0.02242694053741682,-0.022164028986786308,-0.05445492185654673,-0.07120667136224625,-0.07279345811479515,-0.06524354401509329,-0.060682961379856896,-0.06470280393268764,-0.061816843862854014,-0.04349848528879857,-0.008318638822990722,0.040907187686340774,0.09179444954852163,0.1286747680363544,0.1476190482291002,0.14848074790587876,0.1271481734064859,0.07012063445365456,-0.06159906498184398,-0.32757954218711055,-0.6702238785186453,-0.8122191985343343,-0.8142340736232586,-0.7900734849671337,-0.7446652059400967,-0.6593719518496471
