0.007461206033927418,0.048487578118866365,0.09325623303835412,0.14012924580791036,0.18656541058249443,0.23232270423549012,0.2801525714585702,0.32535303257074694,0.3531527470400944,0.35004095931585066,0.31080619131983445,0.24339821469726522,0.16174964211118104,0.07309364370521919,-0.03498314950282437,-0.20286054587608826,-0.3821993432219259,-0.41201355757491553,-0.4331953858846881,-0.48805516411090993,-0.5588337229201777,-0.6125562226921166,-0.6167803550529243,-0.5537065661779056,-0.4364250289381359,-0.30802446882876067,-0.19712558991567614,-0.10381703022809492,-0.018860612039484657,0.06065902670334207,0.1331342054205764,0.1952226676048254,0.24317812277342749,0.27591170503683354,0.2890501275243734,0.2753694706195773,0.24282146684183556,0.20554797876670075,0.17662357681050023,0.1598483073405079,0.15345347586958213,0.15264033953948672,0.15336432271233982,0.15225089081151774,0.1420006847271821,0.11186480695953971,0.04804622947842248,-0.06626347692798985,-0.2238634568523837,-0.3605479205539949,-0.4283753235501901,-0.44521072144733786,-0.44545051630579346,-0.45726261418492736,-0.49476998590286797,-0.5436419566373856,-0.5742259623979424,-0.5409477185350957,-0.3843043941731597,-0.14611685418518733,0.01204483874836086,0.07271603042905642,0.08892530733073108,0.10057761646062151,0.12311604627546271,0.1579780970997945,0.20428674894595955,0.24656818646836368,0.26256387953625504,0.23736108301165715,0.17020870461724977,0.06922294078051228,-0.05387468810374384,-0.18335076396053873,-0.2982573037051001,-0.37478747590823297,-0.4045559752241614,-0.40005139216449254,-0.3826760634266374,-0.36788477131801317,-0.3574319613837123,-0.3451325572286928,-0.3249592910467194,-0.2906247393799685,-0.2380679070112788,-0.16800175718668955,-0.0805431791404321,0.028733463389548474,0.16293050759562364,0.3140404955901102,0.4559563180997458,0.565335639693097,0.6365159781715178,0.6719504294960762,0.673284053856637,0.6408383662730441,0.5839684675545768,0.5265504972010584,0.4958173033153854,0.5133823989726389,0.6115417030476278,0.6854757662677817,0.4060508260803472,0.24465681509244933,0.1823930534814981,0.1586680199794502,0.1541083124878842,0.16202193486975353,0.17761197245864713,0.1950470594760134,0.2078381728365593,0.2128773376800908,0.2140188910807022,0.21342385144211223,0.2116506263314122,0.20304423596355198,0.1827035350220217,0.15224145979577,0.12083914922180779,0.09363500772467895,0.06560999151018682,0.029336891993213706,-0.02045438937023885,-0.08437782608666616,-0.1599995383262739,-0.23749066624561857,-0.3051728879514019,-0.3501167259416307,-0.364752700493376,-0.34640273918245684,-0.2982528806281761,-0.2225770483560448,-0.10935953258871314,0.024601135981220476,0.0892680607797969,0.0920748700413761,0.07040997406783638,0.05392615911583423,0.05816640394352124,0.08440262665985844,0.11994216496348405,0.14993546676269234,0.15690805492711185,0.13330236281374008,0.09215298915128044,0.05441286702746231,0.026995735799849256,0.011041803835544076,0.007084894183277014,0.011308203125704795,0.018125084241713923,0.022387471800659413,0.02136728230124867,0.013874200844416339,0.0011341443600673814,-0.018797679426609516,-0.04761400685346803,-0.08492905902317155,-0.1273964622887663,-0.16883425283392453,-0.1994157976252919,-0.21401565502266162,-0.21029670588170823,-0.18905812750897966,-0.14927128349045596,-0.08396500200050015,0.011982797602129017,0.12758671046251313,0.23742427158847396,0.3274625915103826,0.4000153837495907,0.4671144227788051,0.5379071669475095,0.6049221264350517,0.6448418392521893,0.6131259038021684,0.4018439805843127,-0.1342151469117959,-0.5871759116471126,-0.7575770344437871,-0.8134095517936725,-0.8209722699038097,-0.7964458540200156,-0.746315926033684,-0.6773817573862043,-0.5964231179010703,-0.511838794829805,-0.43284176362120064,-0.3670847070769754,-0.3204859254002388,-0.29181935478044435,-0.27431270259281193,-0.2605696593762303,-0.24655406753386347,-0.22819964626151393,-0.200864728527852,-0.1638205580967087,-0.11642777372567674,-0.05808948923512941,0.009377518427498765,0.0838174750200648,0.16341154147111056,0.24379195057562073,0.3172042562353589,0.37845576876926523,0.42761754496252635,0.465156930809398,0.4885869107007296,0.49373305432585685,0.4783547860806286,0.4385509002008062,0.37225266722002903,0.28834116653291086,0.20310643882509985,0.13276183954997545,0.10560580038145673,0.1608313031303034,0.25940036894821833,0.29993619487884554,0.30076036224279906,0.2906803548674663,0.28174356413108037,0.2890394411278854,0.32633792912791004,0.40549462536510245,0.5354078748823479,0.6953556942790268,0.8097500026364509,0.8161430696482826,0.7041319445031105,0.5230712985596013,0.36132315214107336,0.24489914605197874,0.1627815005082827,0.10115334867166217,0.05237170086999026,0.012917447482265249,-0.01683430836374851,-0.0373083434003076,-0.049609542399589646,-0.05795342165176091,-0.06776197237147831,-0.07827849198669667,-0.08355853607975247,-0.07741373332640536,-0.061895015874068655,-0.04305856704135707,-0.029131599520120215,-0.026762584924742535,-0.033987180975433,-0.03703776068464035,-0.015325333255354302,0.04586270533304783,0.1419619183866086,0.24750676092217028,0.33090398957788353,0.3814808937271082,0.42027542040080906,0.45313759172171586,0.4331628493779566,0.3352266374975252,0.2308565849989275,0.1449505387272265,0.07557861140237966,0.020974071902682672,-0.019504242835867845,-0.04893710835475429,-0.06816329422890985,-0.07799191330035898,-0.0842081790477611,-0.09385958695370772,-0.11204810403914359,-0.14133315262842874,-0.18124889113347473,-0.22467069001930187,-0.26188244678751443,-0.28713175606241537,-0.3016634142480821,-0.30828026732614855,-0.3111612471004075,-0.3157614539158132,-0.32890885921631674,-0.35405878395387946,-0.3864313085469515,-0.4147393767660381,-0.42832954197285344,-0.4242087882163219,-0.40022108764383074,-0.3538823999817092,-0.28102347845890274,-0.17804753670774826,-0.04249126195959584,0.12796753975823483,0.3329014495198262,0.5532450219830684,0.7395679569243666,0.8512222547898297,0.8951980207508663,0.8930939125147408,0.852530416948124,0.7720061773823849,0.6571945564056079,0.5363295807251199,0.43739856167052865,0.36112302352751724,0.29222570312537055,0.2154825783363018,0.1279963118792169,0.04162831989274117,-0.025216369369266717,-0.062302532445476594,-0.0703154224848641,-0.05693062029571927,-0.0272438372591706,0.017998636391137704,0.07549223952774871,0.1320525468483927,0.16946139806658364,0.17606937437659176,0.15149467945479153,0.1000824786830121,0.02532739529728629,-0.06349434638000438,-0.14929703647192966,-0.22352431270828518,-0.2964394229662039,-0.3862031422164194,-0.5073364638223944,-0.6464627377494664,-0.7680347594850039,-0.8504151730513028,-0.8966091903380937,-0.9197774213753932,-0.9252730237310988,-0.9021994003968092,-0.8381585125239921,-0.7365487495029575,-0.6145834237923512,-0.49276346149295347,-0.387775623003443,-0.303812484697643,-0.2034599464491313,-0.02052012972285734,0.09513192345752433,0.1452151164644492,0.17592964983846374,0.199847900264093,0.21907674620989462,0.23254553941765171,0.2396686542940325,0.24089901493203442,0.2399791570829583,0.24197196042857913,0.24975042410959802,0.2630096534608037,0.2772003052749441,0.28902915760381104,0.29589026304538685,0.2974082593426109,0.29527462427868895,0.29289342719666706,0.2920019358895745,0.292448942263961,0.292734482829696,0.29187713578945407,0.2907599588077787,0.2834554325429008,0.23499997042684284,0.0704698246278069,-0.15001028730486607,-0.28809396344752486,-0.3647948694235281,-0.4102912098035569,-0.4309387898531156,-0.41866482956357765,-0.3611862511192457,-0.26449156594100687,-0.15352561338998866,-0.04975357860037521,0.046075338487901706,0.13964072996929694,0.22417930907661832,0.27931785634951944,0.288070932587892,0.25401625287313323,0.19656183555373255,0.13714357579853395,0.09058925823729949,0.06157141160834149,0.047155486786576724,0.040445473316937014,0.03675485037288274,0.033426478009376745,0.030488601976437744,0.02798389220917906,0.027203440338776946,0.02844867905159233,0.03076284692346851,0.03275983977619768,0.03274778765002622,0.03129877931490633,0.029559593180415324,0.029090835305765377,0.031458138912843644,0.03409993456625195,0.03691646938059009,0.0386113882597189,0.029896259116911225,0.0004388587016462491,-0.05936202156001991,-0.16150069961331298,-0.3028533248291067,-0.44784943090262186,-0.5546004942122051,-0.6042832302576775,-0.6015616170117072,-0.5428192653035404,-0.42592751833172304,-0.2846773894900652,-0.1784746003828038,-0.12645791108887458,-0.1119333922177505,-0.10344255715100024,-0.08376520064354381,-0.04626846012932216,0.009141798763615034,0.07695767435012556,0.14679258809017484,0.2060724864350786,0.24401591592231736,0.25760056113874436,0.25122499755637695,0.23439690484051431,0.2164472405085115,0.20020625613414475,0.18225639177287098,0.1571204417296551,0.1245954556476419,0.08604709468302646,0.044784604575532835,0.007641107881251202,-0.016603211446069223,-0.024071755063747098,-0.01909321382812555,-0.009285775765452817,-0.0026898210336434715,-0.0013446357929465988,-0.001764666573439565,0.0014293013443867303,0.00914465472394221,0.014774924622889297,0.007840141017834758,-0.029441320075224736,-0.10206406748262878,-0.17405944637886617,-0.2139829347144201,-0.2282072477454572,-0.22721590838585184,-0.21229149698733893,-0.18193436475072103,-0.14385816986991679,-0.10901888383604719,-0.08398743477482103,-0.06798678108088639,-0.05944944776676495,-0.05322723527435669,-0.04488919038656396,-0.03436358392935715,-0.02415515808576937,-0.02003212657303857,-0.027860908200216177,-0.05015039342527518,-0.08618151704887464,-0.1274249623610827,-0.1637675769383207,-0.18672598529646267,-0.19605488935310966,-0.1961654181300593,-0.1885569607858024,-0.17357868518570943,-0.15017794029059123,-0.11456621862948337,-0.06315559539646066,0.0022601431150870615,0.07171779597236316,0.13666055696368679,0.19630172933059345,0.25304202162776257,0.3098455146539593,0.36582100530833467,0.41361707250851426,0.44001685294752463,0.4362886458843343,0.3934200315721897,0.2852086852193656,0.1042941375080259,-0.05236456982510618,-0.14772846065437512,-0.20112499209151136,-0.23647672483374887,-0.26184798852793517,-0.27660842985034834,-0.2797484651901085,-0.2703780913754462,-0.2462332321269468,-0.20777240674520275,-0.16026081363533579,-0.11311481239380143,-0.07048526982712644,-0.030335128510961165,0.013314358657964407,0.06416681189871097,0.11710841368468147,0.16545629739884526,0.20095775589796025,0.21745767509818542,0.2094845995281575,0.18033729221906217,0.13739478381104578,0.08587988817271518,0.026326074362318447,-0.04114063314790797,-0.1102220158022501,-0.1732744816179711,-0.23140690888729917,-0.30668182562059026,-0.40407084423567746,-0.12220781331523682,0.04199004876088268,0.1339968827185829,0.274800445943533,0.4007915320163058,0.22829891786282877,0.1832666664709443,0.19653499848779896,0.24231368503092532,0.31533335642845,0.415090910951398,0.5322808918584361,0.6232858424042312,0.6302036422139167,0.5665015050392835,0.48767028550205194,0.42273471795782985,0.3771438269547717,0.34653282098027394,0.3229122744042643,0.30362315338234974,0.289931513151713,0.28173097621926296,0.27362197877267985,0.25943407446642464,0.23666840045421725,0.19971894991475178,0.13783662033590174,0.048865969627136685,-0.052388353102184884,-0.15162755504059133,-0.2407820396278757,-0.3214815951378439,-0.40303504538758744,-0.49335939043973515,-0.5876899813846158,-0.6727942103824667,-0.7380472434984704,-0.7834733638862379,-0.811614843422172,-0.8225249568993761,-0.81520809039792,-0.7871777788140926,-0.7365629685550791,-0.6668431913411774,-0.5847779933356851,-0.4984949701181031,-0.4086281133239687,-0.3139943864882243,-0.22207263630642837,-0.1500816469312357,-0.11149284483650171,-0.09555615929117905,-0.08184461010167152,-0.06151915240204478,-0.03916674158532039,-0.022346299567309057,-0.01332044557799405,-0.0099377447934011,-0.0068360957556481685,0.005909874100871538,0.03514916720321259,0.07566759509558499,0.10963552352658087,0.12891958593389236,0.14212519255292594,0.16112513900059272,0.1886105559816195,0.22134705935441262,0.2543426625991193,0.28508565387190327,0.3136237976577339,0.3409503639090827,0.36912229537554453,0.39957816897184667,0.433642325768772,0.47203823805938516,0.5128685286508737,0.5546032910121108,0.5984956420884614,0.6478632868477059,0.7031062243662257,0.7591223568714854,0.8090860076339389,0.8461699866864459,0.8640937633639164,0.8595737008591245,0.819029165767815,0.6829657335851441,0.2522027708249078,-0.3966367336337927,-0.6802148406806773,-0.7480534761172579,-0.7420935390236637,-0.699715550140899,-0.6374170378361378,-0.5701358831199387,-0.5066277983425876,-0.4477047991846973,-0.3880340097580524,-0.3184706774607658,-0.23766712631945916,-0.1558748513336552,-0.08757208379910104,-0.036838255409670784,0.0006020670372645789,0.032927048029392066,0.06179770344085048,0.07807577421550496,0.07170600496301213,0.04453205062528304,0.00600934615607281,-0.03331175439726892,-0.0659276704610505,-0.08870413980605094,-0.1013776425013302,-0.10696593114797166,-0.11041725290235126,-0.11778949073902201,-0.1373688874657694,-0.1837234769155455,-0.2846451471803044,-0.4274134462900042,-0.33281724804935997,-0.16516061456960182,-0.035628366047027876,0.06286725722438946,0.132954369720118,0.18822298787561131,0.24077696768341944,0.2901506610196503,0.30520234511275307,0.29236387416430604,0.28000482527397275,0.2712112097577346,0.26165786539995367,0.2531894983891763,0.24608206813268205,0.23955383041821268,0.2331526988480314,0.22355341102099366,0.207124908547412,0.1805892123208773,0.14100499472094624,0.08606821951606348,0.019717140360588102,-0.04481694432435058,-0.09210473997509995,-0.11684705067549192,-0.12241892448691132,-0.1182022839475037,-0.11223218056664121,-0.10985688351027825,-0.11078498360530996,-0.1103758338478922,-0.10144428848241459,-0.08342614363752812,-0.06326860394048396,-0.049927344207979944,-0.04523290471687431,-0.046436689234379165,-0.050058831095596265,-0.05382096591640614,-0.05620234287009414,-0.05342029761437053,-0.033703559128871796,0.01655548287663912,0.0878345350751649,0.15058710886988652,0.17724058376257554,0.15708827493105243,0.09822450510581904,0.014725948777947221,-0.07371235249200644,-0.1425980358172958,-0.18020798560346005,-0.1970367838762071,-0.20864132279079645,-0.2223505420974801,-0.23731546337436402,-0.2513235000215552,-0.2633183052368392,-0.27093332329571335,-0.26817980752472437,-0.25260993590001546,-0.22562966320603353,-0.190190131988403,-0.15005795031381639,-0.10850772459051679,-0.07354600111915369,-0.05632627042867303,-0.06378922671406123,-0.09557658862398541,-0.14525379003867162,-0.2013227769536903,-0.24808224813458485,-0.26513114656972725,-0.23297388785488227,-0.129252934373616,0.07392341174373361,0.36901939327439864,0.6465112490640081,0.8133119468986363,0.8873048650274099,0.9034744750136456,0.8741721765228176,0.8071083482200876,0.7225590238602425,0.6491825924451061,0.614932572144539,0.6264095226603693,0.6600950650380515,0.6711999412644621,0.6229895041198816,0.5208148807771847,0.40514478198427334,0.31434383990631376,0.2577557442458942,0.23097292207679943,0.22129269461907244,0.21806394553441336,0.21471323909329165,0.2055812938952698,0.1874727409004472,0.15850578376676877,0.11671133053708059,0.05893551623377508,-0.01638748333543103,-0.10648193634752103,-0.19870415763420432,-0.2755236511100768,-0.3285150552533992,-0.36070893466552867,-0.37747109946611057,-0.38407222045857353,-0.38605986874193776,-0.38622955914434215,-0.38249704501519416,-0.37117570114579035,-0.351873895759083,-0.32525333954883884,-0.29066853219659133,-0.25101717921343486,-0.21490732663022102,-0.18790468736507082,-0.1715924698146933,-0.16106182756436027,-0.15403559567423286,-0.1588861672059741,-0.17656818281014383,-0.17548318457935105,-0.12576975133127316,-0.04498977216150795,0.03021268114780919,0.07306260918926251,0.08321773038556662,0.07303423602035922,0.055754604846230835,0.0387341380891366,0.025775999321955612,0.017939356607547752,0.01409719535811373,0.012763571788857026,0.010956586730844209,0.010222627641559968,0.017064741104384662,0.038409600021227765,0.07292463791345782,0.10801621857628242,0.12997626714488697,0.13521118184906675,0.12765572873856812,0.11810475998735052,0.11919309211581876,0.14143876405334974,0.18326182638285862,0.23016055365464283,0.26532978072787367,0.28318560491543565,0.2923936835120317,0.3085611794001201,0.34799068872696914,0.41530573768649137,0.49479659739985427,0.5819059879033462,0.675192414160579,0.7715375161196548,0.8692253808279546,0.9539051633781864,0.9905639249788668,0.9704133665508882,0.9225602583278115,0.8676177774860795,0.7946206619737617,0.6527308630498162,0.39164659470929963,0.08841355466575505,-0.1426734509691065,-0.2833392384396523,-0.3514157576625763,-0.36417701709358113,-0.3394413192858282,-0.2962776872926214,-0.2519914313807737,-0.2169546754864197,-0.19767762457040228,-0.1982968242017917,-0.21770704372314073,-0.24791536387151844,-0.27719634781433933,-0.30122843517686393,-0.32170619448510834,-0.3408272289806299,-0.35630319250599934,-0.36089197571104303,-0.3476365845979685,-0.32364142391125184,-0.3037719231920465,-0.29768844979838277,-0.30459011677948306,-0.3134848786334916,-0.3066256705098541,-0.2728763444033006,-0.21743061317454374,-0.15767132005138024,-0.0995808036411984,-0.032791132422792184,0.06470182911204642,0.2214899525969501,0.28321622445960354,0.22122320329405987,0.18648480272089393,0.18022076734284084,0.18850310222755795,0.20249594862853387,0.2154182054995306,0.22421307267705365,0.23158229652557447,0.24101405536411125,0.2576826956269826,0.28116023783339106,0.308080098519822,0.3306444433524453,0.3372933157271628,0.3262154632015715,0.30205718028016765,0.26823561666575063,0.229428006408142,0.19140470724350156,0.15665793773156197,0.12624947803253456,0.09790533297103081,0.06622349155696582,0.0214770040432894,-0.05500361070035878,-0.19551584244225484,-0.41910179504328904,-0.6227011268178191,-0.688457611367887,-0.6353826646045249,-0.5197813410438432,-0.4097943015640311,-0.3511354664994948,-0.351081022928689,-0.396399383352506,-0.4659220978492242,-0.5346646894299536,-0.5705206528054138,-0.5500384049985303,-0.4657453609290023,-0.32769363011835617,-0.1343590647894851,0.13720729212315286,0.42032715760797873,0.6176308961083147,0.7420476997824484,0.7866952250721452,0.5264506226370176,0.24069852647037357,0.1290993037974717,0.10035372478566555,0.10628922484758528,0.12769690042108944,0.15485206074844166,0.18196545019911983,0.2047910960113255,0.21763568058112584,0.21444261867751985,0.19378225861831777,0.16000846900979668,0.1174870599404069,0.06848067430927794,0.013432469028448413,-0.04631453789264868,-0.10959499366790193,-0.17475918232897925,-0.24452628510345364,-0.32162994142131257,-0.41149433245399,-0.518717683285583,-0.6433034059895744,-0.7633667961399363,-0.8370186943551293,-0.8489312831695206,-0.8338650482221887,-0.8188752271695797,-0.8105618856966715,-0.8061924914218301,-0.7991523310343013,-0.7785489189934702,-0.7225337936937681,-0.6145961860759852,-0.46010567254569046,-0.2845978965983131,-0.1177910231728092,0.017669246768869294,0.11500325164576172,0.17638407028453448,0.2048052678529615,0.20439326676800096,0.18218408685707646,0.14661394775551012,0.10915889847273173,0.08156770502750278,0.06856829484750883,0.0721034479305828,0.09117449597003509,0.12018411194583153,0.15089565090081444,0.18281204862258413,0.22083362266419002,0.271901901593427,0.3379398361239796,0.4102679987548609,0.4743104911257413,0.5182636954881568,0.5356344396716185,0.52719715290483,0.5034043907412069,0.4808566636788244,0.4711658295888291,0.4769897550191908,0.4990937838878183,0.5350537482523535,0.5726399036786013,0.5511192620061796,0.3226748228203661,-0.013145563182077326,-0.2520941821445327,-0.4154118238458238,-0.5322242311293628,-0.6081629827988279,-0.6420442326878806,-0.6310502210547833,-0.5794834967375898,-0.5070751749222417,-0.4357778571211575,-0.37972009072767055,-0.3455521403107251,-0.3335942802771355,-0.33380092423656677,-0.3345343592025111,-0.3301318586522235,-0.3179286514620815,-0.29824645094248653,-0.27542002929604265,-0.2537368895644223,-0.23650497976593826,-0.22153470658068725,-0.19816846143959282,-0.15021748737247612,-0.06595866161110914,0.052965866264498895,0.18699463721416887,0.3064836188004943,0.3943613066278941,0.45090721476410794,0.4787394102373858,0.47759625350860174,0.4509888726942614,0.4123255530554015,0.3869993300137044,0.3995481651218904,0.45637002213288314,0.5349688138699109,0.5720004258717248,0.46078780534836994,0.13118329592173394,-0.2902122486503861,-0.5974912278204465,-0.7712633597146599,-0.8792838867289298,-0.9423911251805027,-0.9579491726986672,-0.9315469234437163,-0.8773377788646681,-0.8068758793115095,-0.7230553178157448,-0.6187754294403435,-0.48504747619599725,-0.31728033062091315,-0.1277611408662589,0.053127903136748214,0.19852497825592583,0.2998362311062464,0.36275734227070194,0.3952004918940879,0.4057318600343391,0.40293640519618323,0.39756668811443807,0.39721750179691023,0.40302554958119574,0.4130294446361686,0.4235816446351815,0.43167314011566843,0.43170413980297473,0.4172520084715672,0.3871167915844445,0.3448107738067954,0.29653810180948753,0.2554624271166584,0.23600569524409526,0.24891778056837394,0.30599136116082615,0.4282278548037889,0.6271792463104561,0.7417830532966457,0.613316649754563,0.49701861644462597,0.45216315876744834,0.44778179624093145,0.46122995053214444,0.47446966373509186,0.47557687571137813,0.45503197226665476,0.408834990165803,0.34198837109576613,0.26601508638765353,0.1899683991483087,0.11471507000612345,0.03993616027850665,-0.03649677919893743,-0.1136696792845409,-0.18829513390397176,-0.26314892762423114,-0.33827763724622917,-0.3996353539864732,-0.43089732744805737,-0.4301152761224512,-0.406505509546445,-0.3750694006433034,-0.34618971906398144,-0.3226339338667666,-0.3027242000213269,-0.27890013453079926,-0.24468201877955956,-0.20029204676182086,-0.1598036620672588,-0.14293675645506734,-0.16233881612657072,-0.22315500818005932,-0.3214689029949301,-0.43327963481650916,-0.5228450019405348,-0.5739520093347442,-0.5780313928461849,-0.5267162684187469,-0.4204098564439408,-0.28291594110926366,-0.14445330605936257,-0.02551933975229304,0.06593256225771982,0.1272152103617263,0.15863514012771784,0.16351225373631195,0.150677548722068,0.13259020308546432,0.11915206405565128,0.11158431256196694,0.10871950883991205,0.1080302879230422,0.10950064094034255,0.11117875331089436,0.112022846849853,0.11307281978955892,0.11690706118984125,0.12366207081270128,0.12928245553629036,0.13119645535400004,0.1275923466233556,0.12142039106686806,0.11635176615807573,0.11560075599458693,0.12172654516800645,0.13596140564581105,0.15770785636955895,0.19195876196505351,0.2428826080831058,0.30539330852003765,0.36222226338458235,0.39351670440137676,0.38441215704243636,0.3298774052173184,0.2490876639825499,0.17322253563823836,0.11993596235657335,0.09255656767849287,0.08378290534416015,0.0813574917232493,0.06612136312140336,0.007823556373469235,-0.12036228003035669,-0.27304262613240793,-0.3691432211643601,-0.4144987510784619,-0.43133686479892525,-0.42662638968031885,-0.3997765803291247,-0.3519643656881261,-0.2876066122029479,-0.2142688851303088,-0.14430822352593725,-0.08749251106369599,-0.046832852719576885,-0.018762989636275765,0.004360263365625654,0.031547046778285806,0.06143106111542866,0.08402895894582085,0.08940948692174906,0.07433032245887944,0.042612573153207524,-9.389934275724689e-05,-0.04654521970190172,-0.09369848842715943,-0.13964012151155142,-0.18646248321110967,-0.23590802226368987,-0.2906827650826855,-0.3523188798384089,-0.42125973456087323,-0.498785512090608,-0.5766185967868458,-0.6303115324965215,-0.6449539771653259,-0.6266357200593533,-0.5833151527377172,-0.5109606700394487,-0.41390042351835954,-0.31427016208411096,-0.22897334655403698,-0.15561789340758372,-0.07637104697363416,0.03710447488232034,0.19627690393271807,0.3670914542757341,0.4976059283363247,0.5751469524309587,0.6106583389420317,0.612777699627816,0.5853182920422966,0.5325269920394969,0.4649149218355122,0.39685291945484497,0.34188939254606093,0.3075129527250709,0.29277626553588637,0.2915160502200335,0.2915926820785035,0.28005700679183726,0.2550114950776468,0.22372159682743056,0.19307873381462975,0.16216372384511993,0.12203985456402903,0.0649424423311653,-0.010756369667808206,-0.10196099562476932,-0.20107194102528617,-0.3037086276877026,-0.4073692127149657,-0.5082392662613591,-0.5955468002557531,-0.6591116383182973,-0.6954656362188171,-0.7045074374710983,-0.682435058216168,-0.6155179738137952,-0.47521982009040376,-0.2344760182267914,0.03568036507807607,0.21051156431619722,0.2918521690560383,0.3203715303923958,0.3209926878663577,0.31133117688618556,0.30541240894227584,0.31088784168676104,0.32710639938241226,0.347048924055187,0.3561375517510095,0.3401072871258709,0.2896619178178258,0.20745833186604148,0.1094422513789779,0.017876926699217133,-0.04587802426471562,-0.07477751229960013,-0.07491568359166732,-0.059440706964664976,-0.039551454576779804,-0.023379045093715953,-0.017444350418143555,-0.024232664807495873,-0.03826558812031575,-0.03965803775701817,-0.023905670464318438,-0.0030359699379863864,0.015337921904877325,0.03055320329167437,0.03994728896694555,0.04070849760251966,0.030227290469481995,0.003907135911493787,-0.04636383472014918,-0.14211961678634197,-0.3188876655917419,-0.5772164665498796,-0.7434798212525886,-0.7074704580925582,-0.6045003046974163,-0.5086756153420148,-0.43688977009649826,-0.38197895753229616,-0.33172394726695886,-0.2828405184582445,-0.23757209447292116,-0.19627897049341733,-0.15749962673558449,-0.11427235815180695,-0.06035471219265198,0.005993969820868231,0.0742975294557344,0.1304317046479856,0.17312305002393133,0.20596011990621924,0.22678016892214087,0.23074618396304897,0.21410334747086174,0.17937853008562263,0.14081940505787272,0.11138674064369754,0.09183133318108119,0.07481623065896133,0.05833352606553308,0.04572910729286521,0.04182028989838856,0.051270378477080845,0.07886263833930302,0.13320597939840237,0.24053052063709826,0.47899282456429926,0.7797498338414087,0.7191484052615871,0.6397273470251952,0.6159564130224661,0.6114410377258472,0.5953179550677009,0.5371287708903628,0.3911293140528013,0.10035382488088684,-0.2759654656154297,-0.5421234509079641,-0.6654334974139212,-0.7067385353920118,-0.7042735793896694,-0.6792162749926236,-0.6470052200170636,-0.6214626876692378,-0.6083114778801576,-0.6035552186628277,-0.5989089206973368,-0.5924691293129374,-0.5875140838940396,-0.5861050494706744,-0.5878142540900736,-0.5891316231229002,-0.5828060748056348,-0.562900079452327,-0.5319407107249576,-0.49753007191643256,-0.463421040728782,-0.42438709602207997,-0.36784168508234677,-0.2794251206809659,-0.1496759728973195,0.01375927840171158,0.18894247390523639,0.3530615211758592,0.4958826622748599,0.6120611740777594,0.6994162159003601,0.7624121899695723,0.8100625846143376,0.8502194086738709,0.8812602963754353,0.9007016136013873,0.906459730396892,0.897811059882638,0.8733987419742,0.8347382009904065,0.7896281393987906,0.7446481602913305,0.6985479068781576,0.6444389453974042,0.5790806351453799,0.5090154999893619,0.44335658471073536,0.3862136071324483,0.33714713224460047,0.2906008716756566,0.23933245091930505,0.17773805390174868,0.10452098049388396,0.022445514607733058,-0.058067080408683046,-0.12139633167093589,-0.15464569883721302,-0.15333842098368544,-0.12240456782544865,-0.07322126628544674,-0.018191075253141425,0.03346744332494212,0.0764326399201863,0.10832845294863437,0.13080502193560756,0.1457162993637641,0.15480508280481287,0.16152547582218127,0.16604187040463858,0.1703724309483083,0.17802588221482116,0.19233220144066032,0.2159745503977818,0.2462638169230119,0.2801324227948909,0.31518409572969663,0.3526814985169416,0.40137941838499114,0.46831754768373995,0.5380052850339935,0.5957195093511419,0.6347353720902142,0.6520422188759576,0.6463791151515963,0.6159151787437123,0.5582600612396444,0.47013054936347676,0.3513595795168083,0.2100644594614713,0.06607404418139612,-0.06268941423237043,-0.16571889340107843,-0.24316462985935627,-0.30024020615851416,-0.34269623312799935,-0.3751566264678927,-0.3989333263570241,-0.4152787583511835,-0.4256846578300271,-0.4327992124408425,-0.4372117389304966,-0.4325402496650869,-0.41010840609328414,-0.3745815181273246,-0.33991464561801693,-0.31511311989198953,-0.30240671884104897,-0.30508828927453424,-0.32715877666943244,-0.37382635794716207,-0.4364219682736509,-0.4769282814636744,-0.4662791112748111,-0.42790825439215213,-0.3758422761128725,-0.3187921899742652,-0.2932017531979505,-0.3239894909452612,-0.4096527352293351,-0.5173308201610388,-0.5969870786690724,-0.5964938933636031,-0.4970382587713748,-0.3583820392353262,-0.24356551026858564,-0.1676641551302886,-0.12152131009951778,-0.09536629328949406,-0.07844279656516627,-0.06786140702542191,-0.06547267637650804,-0.0691734950092287,-0.07359259211213295,-0.07338212698889897,-0.06507252725667773,-0.04846139118021375,-0.02658341480592108,-0.006144974277847367,0.0076997794035585055,0.014106571778736308,0.014585913011962546,0.014748326508915678,0.021934114399042692,0.0400587804814567,0.066160886120161,0.09074791024653284,0.10628634318958,0.11020080923295408,0.10024737667384857,0.07791140991813877,0.05116591169718438,0.0308080349619443,0.03586936244415581,0.08921874371775014,0.21286498679109536,0.3893519482613435,0.5540905091805287,0.6692697602137555,0.7346431438876802,0.7546258001700652,0.7438754237871389,0.7184741983420811,0.6699394353483221,0.5812978309575978,0.4458296556095323,0.2839424115303925,0.140444119088915,0.04888686051985176,0.011603867139676037,0.011122571278993212,0.024228372500881,0.034997204292509985,0.038849321544266346,0.03643678856855627,0.029117057003890494,0.017262443835781675,0.00047024038369826036,-0.021014905955472785,-0.04285502670011702,-0.062111969826282254,-0.07890701681117926,-0.09377766648748259,-0.10651401841542792,-0.11371921487464533,-0.10611685027055673,-0.077354658791048,-0.02988410425309571,0.028593439086942497,0.09266839956232423,0.16177147666716193,0.23657444997968913,0.31885342569464487,0.4055523334333171,0.4645535921435,0.4367213106664177,0.32089849577442275,0.15288901385071216,-0.05011948440489823,-0.23254370231471277,-0.3261486058770252,-0.33666039194317804,-0.2980652753054707,-0.23937212964533958,-0.17832967718366172,-0.12561604950700941,-0.08253908510555162,-0.04556791860498722,-0.0111571307283842,0.023854559961129937,0.05940262421688378,0.09171806163849987,0.11938630137588233,0.14603995729993688,0.17404039454071082,0.20065386871736862,0.22087894786802267,0.23023268872487188,0.22441286730073748,0.2014097315248533,0.16236252026453102,0.10979687418639432,0.047114155502237444,-0.021492984366193357,-0.0884066995657475,-0.14625924666747772,-0.1889733047108457,-0.21618419219562954,-0.22955207295356217,-0.23184376742487972,-0.2274336615784473,-0.21841343491380455,-0.20315618960493892,-0.17845927254888555,-0.14492054420586326,-0.10744387608425893,-0.08655972778717966,-0.09299918651915559,-0.12713911277292284,-0.1815250487099346,-0.23809434721401415,-0.27337587581105843,-0.26560077845908847,-0.20346806304626172,-0.09442960994447086,0.022389683016080374,0.1247252389745455,0.21072933029395824,0.28081561775000224,0.33172573078560286,0.3573763730363929,0.3566231720734146,0.33240158698353384,0.2951155366266122,0.25643318538859095,0.22544688973577828,0.20356856931012104,0.18517045203136534,0.16365570391246545,0.13768703569326735,0.10856648647383142,0.07927582542627269,0.049474464925595374,0.016106732585990716,-0.02419489733301291,-0.07527155435521647,-0.13351286593185527,-0.19063653220223806,-0.23864210391778368,-0.2717349687900172,-0.28633451820034383,-0.2794515112749578,-0.24885030314470835,-0.19337816769778898,-0.1123226813426317,-0.0103970665235973,0.09974046979227295,0.18417090257848814,0.21406386467375513,0.20636603817098723,0.1897420631686109,0.1745300327938728,0.15639707350623278,0.1277151740594731,0.08728544461678915,0.04491193277300041,0.01251236239711714,-0.0032606605280487556,-0.0029292205943297045,0.011609437397272297,0.04029750212150942,0.0844063285550784,0.1414109410254247,0.2056924587529228,0.2687239215067296,0.319619705690893,0.3492595160467146,0.35596876502674357,0.34488142638313807,0.3167345188257351,0.2630842090090041,0.17174510695314754,0.03298937282740942,-0.13708456920284112,-0.2996195801893746,-0.42722502273640045,-0.5210167649263561,-0.5929334452917918,-0.6493982231400257,-0.6839508345735216,-0.6826319927578886,-0.6330243111490698,-0.5306122487576433,-0.38761570850545285,-0.23020173230632876,-0.09523793599882321,-0.013516851760854893,-0.004155943413376242,-0.09653203585742713,-0.3618906789995024,-0.6107407729489521,-0.5780361103009207,-0.5360464053010886,-0.527973603385595,-0.5367800505694316,-0.5438894176401241,-0.5332790085714285,-0.49208854136168595,-0.40737304864133705,-0.27756382749010794,-0.1272416280635277,-0.003350090747824972,0.06172653207477041,0.06664867407730807,0.024988398592485098,-0.03951596579991663,-0.08734275804002271,-0.08258727688380858,-0.0151413948368272,0.0927604082822102,0.20452211872366755,0.2987614970852568,0.3730070459625739,0.4326561044911314,0.48238417298580166,0.5249758646374185,0.5610467038489133,0.590464190252766,0.6093384119114339,0.6100077423118789,0.5885300520686598,0.553376215013035,0.531379018293859,0.5477559691447142,0.5936697631308601,0.604118897841118,0.5431261214694576,0.46698708476125544,0.40755797303991753,0.36272826350246845,0.3216588431907144,0.2767280993130299,0.22635333446419376,0.18199885683855585,0.1529386701126022,0.13822253946999732,0.13001449063926557,0.12189715195287013,0.11245210068565563,0.10392267345483275,0.09980383739672667,0.10636009382587122,0.1277382831992071,0.16705360576867806,0.22338201350897868,0.2926423294943482,0.3592570695664271,0.3996065234474451,0.4019521746905055,0.3756499710031868,0.33918654922799957,0.30134532055124885,0.2622324589148014,0.22172169971931066,0.18307258555033906,0.14996474675013635,0.12363365327670015,0.10600129094505734,0.09705351524906326,0.0954766074236788,0.10053280010625319,0.10290736327676753,0.08899375721838118,0.044354452117669425,-0.034455190321274705,-0.12610558610255887,-0.192224627557551,-0.21758720325449904,-0.20236648816874894,-0.1526919962981645,-0.08032189006059084,-0.019832569572027208,-0.00567430234230775,-0.0344999413043026,-0.0754684023546516,-0.09922850814563579,-0.09711931759822665,-0.0773574715530571,-0.052407434494037036,-0.031061455082490703,-0.019940800121938797,-0.024015420161533445,-0.048878129848643134,-0.09086198851039144,-0.12523629501101044,-0.1197139258049383,-0.09323916911154352,-0.06901274384531741,-0.05266994828935111,-0.044574087901867634,-0.04601777378396155,-0.06047259327778827,-0.09401767187201741,-0.15319820971079334,-0.2416881927165665,-0.3456730855555996,-0.43296989750620446,-0.4917215359824294,-0.5380509954501315,-0.5851874462122516,-0.6336027051765222,-0.6791742232709965,-0.7164364490658482,-0.7432003234379547,-0.7608638970722591,-0.7713025265772331,-0.7750707578552156,-0.76976848007699,-0.7474491065119887,-0.6965986132768608,-0.6121077754974655,-0.5046843061695838,-0.39094059071727794,-0.282838478575734,-0.1852421262005841,-0.09677973054102482,-0.01813052800362788,0.04825217324432714,0.09932978066412236,0.13599278226816056,0.15863614213785748,0.16744982322457116,0.163077119590863,0.15259162752882363,0.14165558523263622,0.132970412227674,0.12646728444258673,0.12216709387804378,0.11846253453244628,0.11505752619373077,0.11000129245066537,0.10044259163803741,0.0853460374304452,0.06801729835775343,0.05162463283920786,0.037593246881278505,0.025932528157323966,0.016032535796050545,0.011336423857704333,0.02193512520596251,0.060900211889469986,0.1175413421388998,0.1287716221691372,0.06863652261264806,-0.031580708128694,-0.11331764489288561,-0.13185632264451494,-0.055700254545080485,0.12512366607910372,0.33455631196993946,0.4679283481541503,0.512776268804352,0.4884387886302733,0.39975088922226165,0.24831811637846044,0.05927876326400194,-0.13157986880001105,-0.2995219428643853,-0.4305588111311397,-0.5117832961058021,-0.5383614464433012,-0.509150501574461,-0.4233099982702556,-0.28934521538720254,-0.14124194688095054,-0.017657209434026273,0.06746015990740796,0.11929235136809292,0.1496878571881718,0.16796430163381065,0.18022400295055577,0.18676162709206467,0.18709791605783455,0.1817824126117224,0.17350248818216046,0.1665532437888345,0.16245729442326018,0.1616333558537975,0.1646761756175947,0.17578931086406538,0.20243853866449138,0.24908761299905574,0.31021564951724145,0.3716778343881558,0.4042399367775008,0.36922690035662403,0.27384508007034625,0.17857159988425542,0.11507467980280536,0.0822383385518588,0.07650813454221046,0.09254730893432946,0.12861592925433787,0.1833760643064921,0.24639302302421473,0.30402918766665016,0.342286607808551,0.350262153328632,0.3192483311136004,0.243092814098684,0.13331149632860098,0.021201945371629723,-0.06728547321691321,-0.12767544081517176,-0.16764658089571957,-0.19577598240459607,-0.22092971331870143,-0.24828931663002562,-0.2722762908806722,-0.2736079007376837,-0.23397344756516103,-0.1594573683559832,-0.08194945392782031,-0.023207103674765688,0.016722283045835184,0.0436723649916404,0.06085575070773298,0.0714602031542598,0.07986982115455217,0.08708193432491504,0.09305626877137689,0.0961718097064714,0.09593773493809582,0.09993051830403324,0.1152046035832311,0.13359012749835836,0.15678115013709332,0.19161462144665073,0.2280128645927152,0.2601437967522584,0.28517022285006444,0.29738694169523566,0.29148856645913174,0.26971650716970785,0.2379497185805829,0.20468755969033336,0.17933647340144282,0.16503960108019763,0.15954236451271556,0.1529709041741198,0.13901588703383116,0.11864646997269472,0.09394467197887983,0.061447043395273244,0.02008647580053517,-0.019441080978643683,-0.036955268381566826,-0.01590410386912474,0.038005497709141335,0.09446533001616797,0.12273697037622755,0.11191193284542744,0.07066327871103346,0.0202239806565384,-0.018353534289925418,-0.032563830686652986,-0.024418456460226876,-0.002565922928795848,0.023412929886122074,0.0480410276141289,0.07752358448741942,0.1169280315930643,0.17099777328365137,0.23679292907682956,0.2978269610806247,0.3223163297976526,0.264145742950942,0.07755633384706895,-0.23930349617578425,-0.5413319665388344,-0.6981977177554165,-0.7477727142631801,-0.7464801192939055,-0.7198741396411362,-0.6757983471850176,-0.6187657700353069,-0.5535995118644682,-0.48217352955301446,-0.40840536526231974,-0.34209784818513483,-0.3010546175401303,-0.3056943712519677,-0.35152361115612535,-0.40347292717960304,-0.4409092943991509,-0.46157366548841405,-0.4666744595005905,-0.4537342639525749,-0.42006383898805166,-0.3693592318998565,-0.31139769917652826,-0.2527859785730726,-0.1940570832767637,-0.13148260967684175,-0.06544390266991004,-0.0012791400394740419,0.05575716507895167,0.10356551538913487,0.14739262861450275,0.19946601500402214,0.2662206056482051,0.3383193435848176,0.40876452472229347,0.4796603052907658,0.5520497763433284,0.622061106800469,0.6701410842964535,0.6710179881146581,0.643865172562584,0.6418481333448827,0.6803773561615755,0.6972061463046512,0.626557269267354,0.5178752018586057,0.43042898230821924,0.37723713815145754,0.35316192430413174,0.3477160526279248,0.3539448255905379,0.36577434448633944,0.3778499871547935,0.38678356466989233,0.3907050138484927,0.3894415825148034,0.3840288085727474,0.3748108756560778,0.36125088570594294,0.34446028019117525,0.32534454697317283,0.30683270141110414,0.290657184822682,0.27469898405792675,0.2589616571781481,0.2487654597955793,0.24628483589049813,0.2463945545421901,0.24078409696935976,0.2283476695260625,0.21225590816926268,0.1945764253011243,0.16797722125279502,0.12002693368898955,0.027377642170385394,-0.1373279726882184,-0.36868095952395147,-0.5987630095140756,-0.7537542900843026,-0.8285891111230612,-0.8438937521324057,-0.8035684690395352,-0.6884324293036178,-0.495443555205985,-0.28771642512943046,-0.1326278209530364,-0.04195469535017732,0.0020560226813761654,0.022589605326644283,0.03664455842978471,0.051194217423703274,0.06871191094240674,0.08496122175147139,0.09453136634252655,0.09756485637369812,0.09463269922008646,0.08578867830402315,0.06939340060836129,0.040420095893699215,-0.014376439001938586,-0.11122931833439655,-0.24754867599378869,-0.3721124395872893,-0.43650518537186445,-0.4405886408680478,-0.407700917915772,-0.3564123520520199,-0.2982651371495307,-0.23860527632560444,-0.1812505207610351,-0.1260188346899434,-0.07048794260382849,-0.005740453160405106,0.07667214940754657,0.17411834209896584,0.26912858299343395,0.34805297913715455,0.4088163129095651,0.45345961938821866,0.4721015719785408,0.45909189143567203,0.41145297507782386,0.3289810407762848,0.22043143024976353,0.1268654359890841,0.08506726681635739,0.0877535085284655,0.11271038653612825,0.14990616819353034,0.19386640570494199,0.2340219998094131,0.2571146974097087,0.25142792155800436,0.21230560506403995,0.14157805870510995,0.0510070780433672,-0.03843786275738938,-0.10678627526483177,-0.14296752025515624,-0.1521318178836595,-0.1453130706371755,-0.13256611887221056,-0.12029049957176927,-0.11117169489156234,-0.10260502901158515,-0.0918203042468128,-0.07565148657175515,-0.05280903612476808,-0.02568424974337032,0.0019685587976251613,0.027539120431570828,0.04501609418503507,0.04389497597475949,0.0068751608974335745,-0.06582973858252439,-0.13865806309820747,-0.18889389482683844,-0.2300563291247908,-0.2765821798478628,-0.3382019784105124,-0.42170086217089914,-0.5234516309693618,-0.6144349133920087,-0.649021178897486,-0.6212003939238355,-0.5620452392743591,-0.4951219592432244,-0.42731245606099694,-0.3607040018652314,-0.29738708920943596,-0.23862459629410868,-0.18682129197951194,-0.13998434147998332,-0.09523993852381295,-0.05018023687301905,-0.004555143627690877,0.040827012201376765,0.08547512755693656,0.12570652588348782,0.15658707435711544,0.17341884124843573,0.17955037716608774,0.1833837240940361,0.19258508289487414,0.20914763533997321,0.23083398666822824,0.25521175511967703,0.2754511710062521,0.2845828158271748,0.27706225488307157,0.24740293539737912,0.19541199788629424,0.13614742836491414,0.08931994761281688,0.06768616555684331,0.07255129067424192,0.10423967175213203,0.17771396054883007,0.2888606391508772,0.1792256963393751,0.10305055545154355,0.07289599758972645,0.062430306505538415,0.06227332310137548,0.06418699532346857,0.061131521315563764,0.047035771802994314,0.009756655910407395,-0.05389675526151571,-0.12031076707047446,-0.17606599855694818,-0.2308795956640704,-0.2943747064124331,-0.3594904345371802,-0.4141715778412031,-0.4540785733084516,-0.4801758085672887,-0.4888273035707992,-0.47170261863955404,-0.42165020477601656,-0.3399438445775426,-0.23814587832905254,-0.13373133057951125,-0.04120793180739303,0.03806934698311736,0.11202154821715535,0.18999605889478613,0.2739204596054291,0.3560817466362089,0.4246363534926416,0.46991638573532873,0.4884995446557003,0.4812630063501637,0.45077774141986826,0.400422896587752,0.33910520432550456,0.28129085070488724,0.24211229721974215,0.23783020394918725,0.28803361431616376,0.40041338142519045,0.5242691904155183,0.5357158638977818,0.4238727390823228,0.28668499637067474,0.17485662461859205,0.10086385559933368,0.06251220837808913,0.050587633094370726,0.05252439225904607,0.05617817633654893,0.05794322609937783,0.060001981651315504,0.06509486899298353,0.07218508139584559,0.07696307167571094,0.07805902060818967,0.07751189800269757,0.07791809354170551,0.08063573180609347,0.08599058251469477,0.0940288040181876,0.10589004339249011,0.12311449486572766,0.1467563832259201,0.1802784176571558,0.2295712255720023,0.295143522373257,0.3666808467616656,0.43168088586385367,0.4843440578957399,0.516624131713952,0.5164833710425544,0.4681126035655099,0.34612589803575516,0.12074246137712102,-0.16894313159990612,-0.3801569381928493,-0.4705331196017475,-0.5020410432108142,-0.5270953239414616,-0.5714428975986341,-0.635138278122646,-0.6925632884580488,-0.6853251945282233,-0.5795182039599587,-0.43443096288637767,-0.3235222458252972,-0.2607446123933737,-0.23737511175066633,-0.24387552068460494,-0.2721045924287295,-0.3154519181800932,-0.3651607992676258,-0.4143713141117903,-0.4563961014288834,-0.48259932870463734,-0.47961521149314945,-0.4316173376336358,-0.33523379650489504,-0.21596423008126206,-0.11619357187565896,-0.06188044120168733,-0.0553216057573027,-0.08450681286198683,-0.1341946135224789,-0.1942604570069797,-0.26018482921676006,-0.32895039605928517,-0.3942385275284342,-0.44275498150962705,-0.4596096771357428,-0.4320384624898633,-0.3497480597659356,-0.21587591602439793,-0.05745688409891936,0.09236212917561618,0.21024133421934402,0.29635841806262775,0.3816694667167373,0.5010685963995901,0.6492123307788784,0.7319599927792177,0.7171335347312637,0.6735779193487945,0.6318300273497279,0.5928505431090076,0.5552686966591599,0.5188235054467302,0.4829764409735874,0.4475350298025434,0.4124450490917961,0.376452480185724,0.3388901849092424,0.30292623429516913,0.275390093957347,0.2604090240858886,0.2570270391419718,0.25210348335605576,0.20823776883803616,0.1010871714757315,-0.02959160424373975,-0.13081884014422446,-0.1985532186709001,-0.25109221609074256,-0.29602525853406825,-0.3328149113848476,-0.3592064997111072,-0.37436337136621234,-0.3786980514503468,-0.37373968258512125,-0.36015282329159326,-0.3321447617363946,-0.2777353409391953,-0.18466701104115996,-0.05179344133700196,0.11051704068271756,0.2808162926643451,0.42232145234922946,0.4944994400306145,0.5017778285012339,0.48107593890692313,0.46150512462748605,0.45180166611952444,0.4420568268259995,0.4231807251432032,0.3963593872333951,0.36934877677647276,0.3527942358537089,0.35271928511758843,0.36910882427659586,0.3983820887611173,0.4316043806405382,0.45391421880430066,0.45259547926410065,0.4215758285633601,0.35984333342439917,0.26922622402282725,0.15729007189658012,0.04340640818775834,-0.04948982135138471,-0.1132966556998525,-0.15129505549639158,-0.17055443959499436,-0.1789704348237718,-0.1851817621303147,-0.19874733289499208,-0.22813729710945468,-0.27723548463307324,-0.3420170916645038,-0.40861189356106253,-0.4570318515484418,-0.4630044418575954,-0.41979793369484175,-0.35630476422027624,-0.3103348753510028,-0.30156274500593466,-0.33450533760933776,-0.40287099390917536,-0.4837009356335921,-0.5420271953308113,-0.5506710610387064,-0.508857217762726,-0.4449601117650964,-0.38003537406967114,-0.3194265684263635,-0.2650149408773132,-0.21628862607786536,-0.17708314226143557,-0.14824755304290077,-0.12893602193805553,-0.11394581558292209,-0.1011113469389554,-0.08986420918718152,-0.07969634232365325,-0.0683030283342435,-0.05292467889321781,-0.03405679200271243,-0.014653641076235355,0.0026645603477593958,0.01623738647002186,0.025017344401797405,0.029856609721622785,0.03387583797137683,0.038398023107618896,0.04323060109544627,0.04966802565457304,0.05758651822890611,0.06369982510286087,0.06766003140323805,0.0699763547454755,0.07418604862544553,0.08340195756011329,0.09752121396364573,0.11726980572656973,0.14261031306488742,0.17249747275324862,0.2035917650838727,0.22242957130777313,0.20893713938222944,0.1441526769719119,0.03228226936447253,-0.08209609473853222,-0.1711436257500785,-0.2322081854590356,-0.262042137839285,-0.253795210975633,-0.21041435688457402,-0.14598144425912757,-0.07887334570291257,-0.024434348570726853,0.007870832392833281,0.017008205973239512,0.013127035900411156,0.008454747136391511,0.008221009972850454,0.014406202858779815,0.029722243548141,0.04898598759514793,0.06058881341482435,0.05747201035089772,0.0431835018434345,0.023820079073964537,0.004330682125865173,-0.013024505360701452,-0.026715910941970938,-0.035569173697718816,-0.04041015053926754,-0.042591637526802235,-0.043193639760537327,-0.044006410580781,-0.04768724640055721,-0.059379138636672255,-0.0840744312677061,-0.12250254664943143,-0.163350014543603,-0.19217114033406482,-0.1993338014463237,-0.17294984074289896,-0.09049459493909788,0.04175081810899074,0.16618712857485338,0.21753667359000073,0.17330944774503307,0.05191053852094337,-0.09013395005750843,-0.18849495313756118,-0.22476171417912585,-0.21462761305022116,-0.1782543874359719,-0.12861170596548785,-0.07431054900783586,-0.02181024108505682,0.02037617327018255,0.04782125823703256,0.06277898372205791,0.07138997984497698,0.07754984633542664,0.07920126311854195,0.07276693777436447,0.060897695740679984,0.0523650534574822,0.05279307497560889,0.06442806925222044,0.08623604916610374,0.11400720182193498,0.14197571870008707,0.16563180985987247,0.1828613357389661,0.19355740119323314,0.19933530285025297,0.20148131444285014,0.20507513776400454,0.21295836972343177,0.22550235808481559,0.24602485067470312,0.2766723287580794,0.314499962899348,0.35336866033233455,0.389621904130185,0.4239159461479278,0.454910748473016,0.4793680180302864,0.4883106882987492,0.47282911990899296,0.43294257086770666,0.38266520227344303,0.3360045619570543,0.2988656968182001,0.2707654184542501,0.25092501153917546,0.23687490096109107,0.22668831131676762,0.2140969971716285,0.19243179064894197,0.15777601919972048,0.1103868477468159,0.06216636324349115,0.027770337661986857,0.009660344380994317,-0.0018528955049068973,-0.013692660432147606,-0.03180285366245276,-0.06126106710449445,-0.10194403662054646,-0.1536522584625309,-0.21398602244048445,-0.27793388349595566,-0.3358228646383575,-0.38239195203775106,-0.41388964490292035,-0.4241485959238217,-0.4054011001203264,-0.358644722476492,-0.3042213080198809,-0.28019450114113825,-0.31739479582170527,-0.43505057175241846,-0.6073576700445577,-0.7604589931438389,-0.8556294465378306,-0.9011105729867228,-0.9156891149136821,-0.9120535011779634,-0.8974923857822171,-0.8734171251991559,-0.8392358431038689,-0.7921887470049886,-0.726914114276314,-0.6356801192382168,-0.5142384007502201,-0.3706527610242926,-0.2251689737954132,-0.10087695151867368,-0.01462630458232306,0.03446575198638418,0.05968960712192734,0.07533610154670625,0.09353867928726925,0.1228082505817525,0.1645371157369443,0.22319327103359,0.3045303426590526,0.4042949618524425,0.5047258489514235,0.5817544122368058,0.6237434014878814,0.6405577696003655,0.6505957011074899,0.668611831036353,0.6994809585602737,0.7392299012779581,0.7787941733710851,0.8122374542037547,0.8378548310151581,0.858701418403235,0.8797698909098963,0.9036727399519713,0.9282300511575129,0.9435859365010129,0.9362863035984188,0.8946373918765144,0.8122509275881904,0.6919208406876846,0.5434266481632357,0.3739871982231783,0.19283949464850936,0.02535092598714986,-0.10223574999426116,-0.18207435399979624,-0.22010776152930497,-0.22151281430297828,-0.19408505051460762,-0.14705682825188263,-0.08752008987939695,-0.018320630433999792,0.05198845837634385,0.1060622028190878,0.12196431835348609,0.08385781371592131,-0.010939469851207655,-0.1425512093586532,-0.27962749267916465,-0.4037231912124902,-0.5154860406095022,-0.6236733410245213,-0.7331712621535116,-0.8255580575097756,-0.8193843141627856,-0.6714796864665519,-0.48570038770468094,-0.29621812064410585,-0.22632746835275847,-0.21293202913284784,-0.2207540888910967,-0.24461993203357302,-0.29158817068690746,-0.3757709787926126,-0.5027740160374994,-0.625130661941151,-0.6522937840505835,-0.5740382569895314,-0.431871840621554,-0.27341786751278807,-0.14187586141986255,-0.04633842748089399,0.02324303415988535,0.07626968456152107,0.11265290231792294,0.13074084887502194,0.1344328722077993,0.12869041174025536,0.119355263795568,0.11192596260010113,0.11110724443580833,0.11895627330921947,0.13559369329542054,0.1566056704871074,0.17501749122559693,0.18334036122324712,0.17972912520009454,0.16953383843003436,0.16241554487326987,0.16248864625148632,0.17090628420983667,0.18366852988397162,0.19736589821407705,0.20849152894363887,0.21724132228769347,0.22498852792566917,0.23464535239679632,0.2460020224650807,0.25505259380749284,0.25439305276369883,0.2490868203467121,0.24791909446192464,0.25720241139267774,0.2799577146710583,0.31869357389022923,0.3701481909318121,0.41931812965918347,0.4093847914593809,0.31872590310429677,0.23832054383624865,0.20315549149709836,0.19136025307939095,0.1780566252980714,0.15506772434594343,0.1264582347901489,0.09771316361500278,0.0709337534690635,0.04628880773051594,0.02565144583243925,0.011220906652914881,0.004028132447328431,0.0007351544032191257,-0.005391099237960361,-0.017792634350445646,-0.03791155951913573,-0.06604903709458548,-0.10084945621460326,-0.1406874894632383,-0.17990132716329782,-0.2113565401775257,-0.2308454936116526,-0.23827230867939184,-0.23611544036687715,-0.2268777209714506,-0.21466431415791098,-0.20816123043532572,-0.21765482342726197,-0.25312068664943516,-0.325314422676059,-0.44088369976924163,-0.5820557536093702,-0.6980761928565604,-0.7663530487997617,-0.8096146432782018,-0.8318852491886102,-0.8152918675960276,-0.7622182527771681,-0.6880226736289888,-0.6031649620508849,-0.5152589599037067,-0.42896195560908945,-0.340383182699131,-0.2541401222130378,-0.17521433270444478,-0.10545288985155599,-0.04527777714905777,0.006531074684306464,0.04920911556064389,0.08425877527895305,0.11532061787224097,0.1484531995075406,0.18530230413318166,0.22575934379626417,0.2669101356459964,0.3046997577485503,0.33169186681956814,0.33926908288024654,0.32169565600325345,0.27857508649348456,0.21731797567688693,0.1521337655519893,0.10175103918356898,0.08350482386235747,0.10305553205544442,0.1505292265776075,0.20710865193657127,0.25347606177613685,0.27523439839468944,0.2677166637094213,0.23771437719085206,0.19682693023596873,0.15239866148872547,0.10778750293120246,0.062122261760170855,0.005630800902497519,-0.10553153415705845,-0.18022400662133675,-0.08631942546654539,-0.023132908891389845,0.024419439725570348,0.05934270585024847,0.08092076093770571,0.08824719355994427,0.09045638487445752,0.10077347080819424,0.1214170909558721,0.14611203014561952,0.16656310679567962,0.1785419942298511,0.17123802213089706,0.1372524814500001,0.08835963267369223,0.043023581369409404,0.010041878415663149,-0.010454202841659535,-0.02100906435486691,-0.02554722998681962,-0.028201007745440883,-0.030917121893879,-0.03354267261731732,-0.033296054732929244,-0.025946809717931677,-0.010288183104243603,0.006729733153437253,0.014350328893234005,0.0001308215503171545,-0.048109766624476163,-0.13570396293087605,-0.2607130442869071,-0.4105859533579956,-0.5602659086892919,-0.6806408781943811,-0.756859942608772,-0.7900856421027626,-0.7772881012253022,-0.6970058081728319,-0.5025394697670922,-0.19815011065095609,0.08614709428020667,0.26645189935389585,0.34951637900221505,0.3528323983316619,0.2942488483216656,0.2098753998547872,0.1378869782588811,0.09283918111504308,0.07061781465574679,0.06206975379176037,0.059249758293629114,0.05785787060172919,0.056061515048657924,0.05384880438643489,0.05201951200587704,0.04899714776477343,0.04341784353505775,0.03535831171086716,0.025003737408549092,0.01483647824249131,0.01047714097705915,0.017699586685382948,0.03973214702463401,0.07918397496193995,0.13979577404032256,0.2281296117951975,0.34938399765417866,0.4997366786394714,0.6451129280503961,0.7435416921777874,0.7921266139681474,0.8070904895501881,0.7976715602680609,0.7632638879193655,0.6928615540657306,0.5619994597424409,0.3363962694395813,0.012964218924027963,-0.31521413072901733,-0.5417753713877721,-0.6512236921219171,-0.6673004757260378,-0.6116897127735841,-0.5070623932136268,-0.3924289515309052,-0.3058736429696433,-0.25844028040021017,-0.239371179206075,-0.23958687631473494,-0.25808893596637766,-0.29145726426713864,-0.3333132955287698,-0.3708702373389463,-0.39322648098049545,-0.3925636912612559,-0.36413814352192814,-0.30578759340055733,-0.22109485856914973,-0.12252641498784721,-0.028112067275267116,0.05014134829628179,0.10930400585563095,0.1492712467901019,0.17221920613396158,0.1813202326225929,0.18230963307427825,0.18393078746788258,0.19210472585674937,0.21196669768675824,0.24542132502593614,0.28870408257196817,0.3377655210037666,0.3926361845647889,0.45395499662566025,0.5057547178724957,0.5106023085659803,0.4046362851018979,0.15575272411437655,-0.04570730000049868,-0.06638022957798956,0.024778027135321505,0.13339886471012682,0.2045274763262032,0.22263833679794212,0.1849201592428153,0.09855794138463485,-0.021185712932327773,-0.15429585144822305,-0.2804777649856546,-0.3848370174414759,-0.45760323851836154,-0.49063872297289873,-0.47963333788604257,-0.4276839302654434,-0.34390906515014147,-0.2474758290264037,-0.15982689419153076,-0.09500004774601781,-0.05192303511254096,-0.020996985515777358,0.009192621347856455,0.04680520780224446,0.09551931571978203,0.15264929424879636,0.2136725555080439,0.2788080575142977,0.3524645542502287,0.4376256358705828,0.5219000247815911,0.5863369037329581,0.6226085246269923,0.6388705439225146,0.6504069644157304,0.6705824575879837,0.7023572691566907,0.7376884665067435,0.764989722608102,0.7756156537170819,0.7587231634569417,0.7080715541654499,0.6298939856186592,0.540830106305938,0.45906881824375106,0.3928870982388804,0.3415010857357841,0.2962930120504138,0.24534469885216012,0.18384415561899026,0.10584572491812824,0.006269879512235708,-0.10480777976303841,-0.2067291739646771,-0.2861619052439722,-0.34825673769320914,-0.40784496860090336,-0.4688476950000611,-0.5180571040248119,-0.5410182536783078,-0.5328355377387991,-0.5003705044211241,-0.45875451086597036,-0.42871252632702217,-0.42412494145406227,-0.44346170131721796,-0.4672784670287285,-0.47094749393903185,-0.43911705673765483,-0.3672659581522016,-0.2605251468963444,-0.13430596303176295,-0.011519853284879457,0.08108428999440276,0.13396208500070045,0.15972163856227975,0.1776609682565505,0.19878532948183497,0.22312975980156197,0.2361741581509329,0.18475399153725966,0.08833328731706422,0.029228280953907088,-0.0017996462497544676,-0.017267681528383327,-0.01739689780580134,0.0005236977289076482,0.03549282835993315,0.0830042133110116,0.13307031598104405,0.17807685247820107,0.21676619528373958,0.24945308600986768,0.27794721007222906,0.3031907154407324,0.32703887440473267,0.3494869955102522,0.3676999421323286,0.37849542623430044,0.37792678225209353,0.3676334519640841,0.35372038695775054,0.340484858052288,0.3280421861977645,0.3138546578308098,0.2954765255858968,0.27428921753087465,0.25395469855080166,0.23845933657929502,0.23232348153113322,0.23567066758024482,0.24904947600720287,0.27180036547377245,0.30016233705236045,0.32741335658182075,0.3440539087099842,0.33878540932338475,0.30550095472052724,0.2436856506151887,0.13970297942657803,-0.016411108582783548,-0.21099643446412042,-0.39479018168586666,-0.47547714887339254,-0.4906976540505014,-0.5374792430406129,-0.6810760940215184,-0.6771324900618839,-0.3839065578580286,-0.22957552594347788,-0.1507470683095271,-0.09919739027407655,-0.05943394082149832,-0.027948592717648896,-0.006526051216550435,-0.00351972262888124,-0.02103315952442384,-0.04176845705818264,-0.05275624374628265,-0.055497467462980295,-0.05314480522676249,-0.04713591618022815,-0.0385374384616641,-0.02631604477734298,-0.010185747119885255,0.00977771302960158,0.03672237397779939,0.07077093071453863,0.10585528449347295,0.12959560884225335,0.12620493156285403,0.08243423253435553,-0.001274920837087837,-0.10067913504382518,-0.1829802931532837,-0.2209840270017756,-0.20959923555426757,-0.16309418337063852,-0.11367874437775363,-0.07976391944084563,-0.06908531812295342,-0.08173830873675393,-0.10756482801701318,-0.12546741028107977,-0.11068930361742657,-0.06300446618678648,-0.0068180645358681315,0.0354667283263589,0.05827936722143217,0.06539639495013592,0.05981977246158332,0.04248422301057333,0.017521739643954436,-0.0070204739186260886,-0.025127016129422686,-0.03536678353922418,-0.04056496244680383,-0.04486178077092085,-0.05210799120464485,-0.06449378446307891,-0.07891292385781462,-0.09015527852293118,-0.09935907333214483,-0.11008469564296741,-0.12046361531930774,-0.12735108645431836,-0.12927029119521144,-0.12353137387439879,-0.10713803250524442,-0.07972900629848119,-0.04413206113573948,-0.00565525300445419,0.03291226354082146,0.06970319439675221,0.08493159919799138,0.04808603167904648,-0.04595510238675779,-0.17582930764605492,-0.3211273898464764,-0.4669934295766366,-0.597470026619557,-0.6945899108951162,-0.7506802436863212,-0.7600620102008844,-0.7191338488666819,-0.6224001889765829,-0.4737939639971613,-0.30813548066600394,-0.16044019066890225,-0.03986525572872488,0.06266933149829705,0.15077522538523683,0.22175993387807455,0.2730054802345403,0.3031024083657742,0.3136447514288934,0.31129134840423633,0.30210390458769487,0.2880522242960582,0.26964606877156977,0.24725311376313422,0.2216535606867402,0.19355191528746357,0.16277886526653462,0.13022636417815445,0.09484302005795109,0.0545601664810011,0.00854084536218543,-0.04077431186010397,-0.08909707663420552,-0.13299564099625769,-0.16958215500877802,-0.19623669579505834,-0.21560381609539694,-0.2317543140541056,-0.24761490054743435,-0.26542833909370656,-0.2771248188085098,-0.25434912711391344,-0.18210605049891473,-0.08424467634286453,0.00488063703334134,0.0704746242786297,0.10452426919519134,0.11474279058608278,0.11341389494851595,0.10722056900018044,0.09845767364779053,0.09028947715405378,0.0846342323429909,0.08234197781126829,0.08393193510816056,0.09113414305821133,0.10392344380564805,0.11580876826248451,0.11901238638723147,0.1121239132530097,0.09977543970060054,0.08902995495998264,0.08382938800650876,0.08561043432730239,0.09571972732062001,0.1124622882418388,0.13360676838320398,0.15564068354297828,0.17476701435908598,0.18854282544895395,0.19562261528228422,0.19823828926899922,0.2000731114485015,0.20683093595808338,0.22299884172456472,0.24854157546364475,0.27375461344453667,0.28744210004095255,0.28489597376797965,0.2723093372925732,0.26460895972169163,0.2720676980056439,0.19397511560307895,0.022971640913439017,-0.05856277076141459,-0.11393703028885728,-0.1708568869921288,-0.235093647134246,-0.29676980663668845,-0.33341282186920773,-0.31869055669981755,-0.24563888046709584,-0.15079615162072432,-0.07797777655300198,-0.038423562853155784,-0.01917742858271855,-0.005807606245386715,0.0059863749260373,0.01673664049113319,0.02400242979203135,0.026560797970162406,0.021761076907253634,0.007276299445620377,-0.018568350337502922,-0.055134398402599136,-0.09857840218007041,-0.14177388237179697,-0.17425933335899718,-0.187295801236959,-0.1768487348406958,-0.1480011616071966,-0.11394993711709638,-0.088065556100127,-0.07373439853179546,-0.06125867207583498,-0.035599573692752774,0.015546582829840295,0.07608273927258277,0.11612102154871298,0.1348770876053349,0.1453449265530791,0.15361022830750545,0.1618759337094872,0.16319993370409785,0.1293016158899279,0.057522458000071296,-0.0019591617649118397,-0.038110995678744465,-0.057425516130994544,-0.0678642788026591,-0.07421186448031053,-0.0787141852537625,-0.07693963207015886,-0.06502517128121595,-0.0402902220008886,-0.005099698378665495,0.03220380477190272,0.06361007829019714,0.08675835319056953,0.10728969209810779,0.13142620331773844,0.157910193607886,0.17350372756355317,0.16189325077255265,0.11591461128911874,0.04317756744730092,-0.04040210995169859,-0.12034872999896551,-0.18861386669887734,-0.240696201963239,-0.27353568834000863,-0.2871888443176089,-0.2839577128596067,-0.26229848641284725,-0.21781163732972822,-0.14100744570056392,-0.01404337182134463,0.18147199972925282,0.4353703867702024,0.6713506615780139,0.8160574665784998,0.8823894383430045,0.9022920686563111,0.8982733108139996,0.8887141016889166,0.881830150183853,0.8722030166136481,0.8388773163279026,0.7672591047698538,0.6680761291308114,0.5552836144241291,0.42897278965012475,0.2757973998152789,0.08264094532403327,-0.13815292323371228,-0.33936834668232074,-0.48400605097273525,-0.5721433367445774,-0.6220785103801214,-0.6510743799139059,-0.6667637522191984,-0.670816042272492,-0.6614491555454691,-0.6383800157084797,-0.605321728288739,-0.5667349305703081,-0.5219895563511008,-0.4636038473188965,-0.3817270811773449,-0.26860539996719257,-0.1318060271670885,-0.0004242797879928044,0.10192812200180087,0.1779839278597121,0.2424538485081154,0.30497692199689563,0.3686482794051985,0.4321147333824167,0.49111035052030505,0.5302889314709207,0.5374737947183238,0.5084730064158749,0.4256135239461456,0.2726828515150234,0.1285929802341897,0.046805193888252695,0.005453983854631243,-0.02113601978689819,-0.042964081571570965,-0.053035590272966386,-0.03499219869009365,0.029139198480442788,0.13763116627280284,0.2530157813462223,0.3351593791468125,0.38175903393118404,0.405274219808456,0.41496113569990295,0.4130800100514322,0.39817074434942873,0.36458144359708927,0.30732269211510616,0.23051631432353972,0.1508471302632127,0.08436108375478832,0.038850265489149036,0.01425921939757323,0.011378435457344105,0.033703506113591256,0.08332779339056201,0.16136531234418758,0.2604334231360016,0.36449056811400354,0.4522110925210762,0.5088217394793253,0.527070728246085,0.5149580349863889,0.4937016719703305,0.4867542089209525,0.5073235561118501,0.5527750977448991,0.6135159411169269,0.6614090442446584,0.6282441547756469,0.4737175122380366,0.310975552960297,0.20519103520240986,0.14803262541650655,0.11465492440930207,0.0904512367411967,0.07086339561344605,0.05720822797053637,0.052750229781653155,0.05764268302587746,0.06752240179558142,0.07700084048939779,0.08097416582265098,0.0768511269401396,0.06528999952008874,0.047896489672218365,0.025966078317028872,0.0010412932063329644,-0.021300115229865402,-0.03551463428195119,-0.037937401760849136,-0.03119137740548566,-0.019927156215191786,-0.010367863064245926,-0.007047700299467405,-0.0118532900420544,-0.02588613083654318,-0.047719785082248355,-0.07483701004914232,-0.10568752372851734,-0.14004717822885274,-0.16971123115649853,-0.1705311717930968,-0.12745373708609037,-0.06520184072686984,-0.026049034747692046,-0.024564319154225987,-0.05185040518131329,-0.10143018353014151,-0.17138616836490608,-0.24334911822653799,-0.2856155379917089,-0.3128592039483199,-0.35113835579446534,-0.39305071031454986,-0.4167464760988494,-0.41621250098109097,-0.4075964837221767,-0.4048409537946016,-0.4104354430442405,-0.416922563802584,-0.4139552897757919,-0.39546713802612055,-0.3613943792025612,-0.32237888219689,-0.29504198361134415,-0.2913552063486209,-0.3053503086478974,-0.3178314562453154,-0.31483592415436806,-0.2953485923266342,-0.26452485133677744,-0.2290671926604504,-0.19351692476732885,-0.16145238991476413,-0.1342065443700118,-0.1072191423414074,-0.05853296567227731,0.08847280139530289,0.47909338019328324,0.7785783064662654,0.8377763853212515,0.8292626820879949,0.7745931461140905,0.7120921066514385,0.6837398905164842,0.6941231226315966,0.7214080518806032,0.745218637527028,0.7552650337875075,0.7406824343599682,0.6929415269726223,0.6205082844997809,0.5522273040856389,0.5108770177622165,0.4942006291569596,0.49059335605032084,0.4872489909453478,0.47284825829093957,0.43537009068703425,0.3750344009763811,0.30493305859317144,0.24433904327199546,0.2041495627637628,0.18484603644454323,0.18082039155326265,0.18756258117305236,0.1996217414829172,0.20676102153140424,0.20144511662920286,0.18437771248201798,0.1671928879693144,0.16248849078621697,0.17529256747027128,0.19737314091075103,0.20886532246136022,0.1915141798995721,0.1395121621387638,0.05855753451986309,-0.036648319382336036,-0.12071689194510324,-0.180237098590351,-0.22430048642998512,-0.2699651601983052,-0.32673864435344097,-0.38905267885244194,-0.44074754086772366,-0.45931196190408297,-0.4181947802323769,-0.2999293702054757,-0.13790889502905818,-0.013961546415361634,0.0414564203626079,0.04494037321708504,0.015942643387376176,-0.02795844530199445,-0.06980665074505654,-0.09970438821064181,-0.11830564169730767,-0.1284960204853826,-0.13365741693120023,-0.13735071166112006,-0.14211189924228831,-0.14779785461858772,-0.14976179961826108,-0.1454421419919587,-0.138265601048,-0.13501492023573716,-0.13925074692403588,-0.148255273689006,-0.15145287545026204,-0.14173102806427615,-0.11597476899183667,-0.0747174210250385,-0.025062995611638928,0.022007595278720076,0.05785334577092384,0.08514959530439846,0.11479170849497689,0.15620907136074866,0.20781097866915724,0.25406540398521793,0.26866334518039114,0.23181243703519025,0.13740638166729469,0.009998938411933538,-0.09217742079391812,-0.11186165125674886,-0.049069310471512625,0.043748482525399576,0.12305761059719236,0.1784600577103476,0.2101871064203333,0.22036619789019476,0.20943439922837395,0.1799291862373217,0.1434094648313769,0.10924295166601469,0.0785891673007305,0.04705736322737203,0.01173746431936836,-0.02370809836925946,-0.051412146213797395,-0.0672461653319529,-0.0718427544081369,-0.06412933273037384,-0.04067516417920605,0.005294809082307246,0.07618797985110444,0.16087097478107376,0.2403030635258341,0.2989759699157266,0.3299279667434236,0.33199830661916035,0.3078879245019661,0.26509065621569555,0.2164064870802387,0.1770952179643996,0.15389402868408295,0.14735657953866302,0.15625434750803413,0.18167792847699032,0.2237689591002053,0.2769943552672714,0.32962874249692914,0.3606958454153783,0.34056090392157545,0.22898195512662436,-0.01503134950822471,-0.32050025572868374,-0.5085432190170038,-0.5731580070142853,-0.5769701243296201,-0.550199469674561,-0.4985144634082586,-0.42999489017123105,-0.35410469966959623,-0.2779165783694751,-0.20404308579784308,-0.14021531202892418,-0.09459568836786438,-0.07127936353507144,-0.06882528131921338,-0.08371108106984043,-0.10503339648307222,-0.11950681612466742,-0.12419144070533113,-0.12058027995384431,-0.10927530264673505,-0.09156590054367326,-0.06876286475424792,-0.04311324389462111,-0.018089461912087424,0.0015929042201667488,0.012294327725461539,0.015354548210037882,0.016688218904385946,0.025351287672128277,0.04602328750500441,0.07366996618681752,0.09879203688678918,0.11543944826129533,0.1261609762612542,0.1395288565348404,0.1589244126541085,0.18474155232367429,0.21892943508424484,0.2669258185059703,0.3336899500074939,0.4123746978166389,0.45733674279655406,0.4509857169462379,0.42812311537392206,0.4001192532176376,0.36465499903680726,0.3245603464802675,0.28823154746045926,0.2603399363168977,0.23881167000962408,0.21621791855922787,0.18743249721458463,0.1485064830815744,0.09533901572810248,0.028403183568648134,-0.05083328958666103,-0.1352109896315204,-0.21454532849984326,-0.27722248578386094,-0.31242238040829134,-0.3176591424751974,-0.30024302274528863,-0.2645214383317348,-0.2136280524430028,-0.15658187945489246,-0.10423569693235492,-0.06134409170082313,-0.027362815660154013,0.0009174183846311644,0.024775570740602822,0.0390234529568311,0.028619579416513594,-0.035234011340939446,-0.18920656631340915,-0.42266136117044556,-0.6413260457722431,-0.7845602875482196,-0.8621216863128648,-0.9006884651240014,-0.9157934433084299,-0.91001933053819,-0.873457677323284,-0.779746744668961,-0.5993376976966919,-0.35851048732366364,-0.15484835493322327,-0.03330816949163586,0.032395698179672444,0.07407530099387614,0.10895218042305883,0.14216990205412175,0.17398046891289523,0.20489476182066937,0.23566037003536644,0.26678331972599784,0.29820901324470717,0.32847355965536795,0.3520312405740159,0.3622916799874629,0.35504380787392337,0.33530987357866454,0.3135229177193738,0.29747960899901904,0.28873432117262626,0.28572372075450564,0.2873863762828846,0.29139711509854793,0.29364279630302276,0.2913825327243882,0.28806201698002654,0.2930959931733192,0.31972721278795785,0.3875619249439406,0.5210834299678045,0.7065827909419516,0.8183218940378139,0.8293326255699079,0.82286756735643,0.822941083872777,0.8225492139681111,0.8101382069272941,0.773038475479535,0.6927239027315937,0.5507579699317231,0.3642777658338968,0.1936537211646233,0.08084357178619163,0.021649043508585666,-0.009972890975012746,-0.03798976730079491,-0.07162671761874087,-0.10913914120659758,-0.14283912853632297,-0.16541757338120733,-0.17831217812131964,-0.1842713605299941,-0.18248715494276319,-0.17389967613329513,-0.16158775586544127,-0.14789071334319515,-0.1368655514623279,-0.13144327195754624,-0.13251134240692153,-0.1419199543571228,-0.16268913032792848,-0.19466669144702892,-0.23450261112779733,-0.28013399910063064,-0.3302698057600319,-0.3859991756231814,-0.44681263910177643,-0.5071533937600436,-0.5528814097539358,-0.5731199495023711,-0.5680088912718162,-0.5395055338137045,-0.48657663362111564,-0.39127177631813215,-0.19307286666457324,0.02909556166000324,0.11594457750759726,0.12082423511285834,0.090203356207846,0.0440745542256747,-0.0046038944613654865,-0.047157458604707415,-0.07904151149851064,-0.10114185191220737,-0.11697709271043213,-0.1316068962104115,-0.14676752499713205,-0.16263843234062816,-0.17516672431205463,-0.18007633372988036,-0.17742967021799264,-0.1696757355243887,-0.1581479498819359,-0.14091787326735414,-0.11782345834829198,-0.09178295432789194,-0.06524701171382648,-0.041471426039120976,-0.02621120648967227,-0.021452696088878752,-0.021861309467831824,-0.017715820279390025,0.0012624741091935927,0.04040326982422025,0.10529764441936215,0.20311479441947125,0.32774876258521424,0.4556945149648369,0.5573866680762272,0.615732192367498,0.6348487135675034,0.6256690735744541,0.6035728345561789,0.5915882328439468,0.6056671597117926,0.6462595254868053,0.7005759142502266,0.7489798732002909,0.772567937780699,0.7722304338215277,0.7572086954705426,0.6750950700614815,0.4362333077629976,0.1965743141558526,0.05764019292824757,-0.01636474700113522,-0.056791979005325566,-0.08184974178283792,-0.10105287995971787,-0.12082904721758378,-0.14670711968473804,-0.18102846142979112,-0.21779508158893698,-0.24748547886181088,-0.254499090089883,-0.2263876213640379,-0.16349324730379503,-0.0762063848932823,0.027329332914652768,0.14188636754548714,0.2622272584769805,0.37516870128846835,0.46585494562951013,0.5250955946518511,0.5527267970000778,0.5515117228857316,0.518182526230228,0.4427950841623047,0.32101524379580626,0.18728374682818377,0.09116252023156339,0.03821180536480636,0.010782386282695672,-0.0062407335343731265,-0.021578127593239446,-0.0436020045082554,-0.08459216805040207,-0.15705995295808547,-0.25646103812014925,-0.3474182023560485,-0.41203672924085527,-0.4498961716343053,-0.45976317828899194,-0.44516451642789623,-0.4132888929224246,-0.3697336810017082,-0.318272817707751,-0.26118295065166214,-0.2016228292832216,-0.1439400219300677,-0.09397249839824724,-0.05516680620150929,-0.025605882896089754,-0.002397167836313019,0.016747189385824885,0.03310504344620741,0.04805501927150505,0.061367350774417455,0.07255998251938474,0.08304231142302469,0.09494965814234693,0.10792877056648259,0.12090855403738049,0.12965527188815568,0.12949527751793374,0.11880021979665083,0.10112568796210666,0.08217020161594575,0.06785735053809612,0.0692042840794729,0.09143415536454214,0.12635986158427764,0.15693892489671232,0.16713003209923,0.13768696148778864,0.07305379146362981,0.015753040913736565,-0.004053382350367028,0.008660603433483675,0.042895964971199414,0.08391460138127863,0.11799011928700785,0.137452027356485,0.14344380300040746,0.13716891180321408,0.12254127962827084,0.10152576237612938,0.0770590950617693,0.05306414804398482,0.03589832809563107,0.030891694407003758,0.03640594726424744,0.04436125983285642,0.04470504701709021,0.027708111735272625,-0.008911100686946524,-0.05617816949868144,-0.10197162426462075,-0.13654182343875465,-0.15429667468027253,-0.1535237501853931,-0.14094416700182705,-0.1299180755910597,-0.13747248601190523,-0.17551651986129083,-0.244679274880586,-0.33545170269639796,-0.42961247304889716,-0.5071993796526902,-0.5544831157187479,-0.5682401393209114,-0.5527125346947351,-0.5138771474982133,-0.4584993886190118,-0.380525208648143,-0.25858660571224756,-0.1043625678844454,-0.001547565255791239,0.030320974703456995,0.022071429686533216,-0.00397994975858413,-0.037162017689615766,-0.07405712547488694,-0.12129994811175782,-0.20505849264873785,-0.38285895121676833,-0.5491261996170671,-0.514451438953478,-0.5222455884688043,-0.5213130590541663,-0.18429058767507908,0.01249936908171944,0.09907012782553128,0.14682217529783667,0.17395041090484992,0.18535005050861048,0.18769568891818178,0.1883069287274774,0.19379816068707012,0.20576261505630142,0.22279958420829707,0.24284023330814017,0.2646458768760301,0.2900146919744681,0.3220088759595569,0.3630619817091885,0.4113837965477987,0.4627596936314258,0.5051237024286429,0.5162921653039694,0.4797802383271219,0.41477193382095134,0.3596589801640499,0.3322675552461118,0.3408127976599428,0.4091037482900056,0.555093502978191,0.5766539703517884,0.46157514371497493,0.3996591131555648,0.37083503749533636,0.34713640856483297,0.324095504361026,0.30852916173546097,0.3020098034155658,0.2995130591220094,0.2977539830086059,0.29697159358126074,0.29920071405621146,0.303968417889824,0.3065098031356678,0.30176806048465304,0.28350585974280207,0.24949269481113634,0.20651617957917992,0.16694120857888628,0.13920421175880335,0.1224345637623536,0.11337573366877782,0.10493110211591357,0.08261568524250816,0.034833199377429555,-0.038869021544251064,-0.128946257304549,-0.22683913971358086,-0.33144868069627687,-0.44459320975365435,-0.565482351904422,-0.6824272449283819,-0.7800429153615022,-0.8475547200822596,-0.8870899036290919,-0.9036228511927306,-0.901387410727496,-0.8869604413699017,-0.8657854292640859,-0.8364813809234096,-0.7971373144180744,-0.7470307411844567,-0.6874598874864282,-0.6228858172130924,-0.5625769142702953,-0.5074975400538402,-0.45126574757577,-0.39094121806570986,-0.3250930519874448,-0.2454272981873801,-0.14532203046951508,-0.03604308818740075,0.059897920939236654,0.12847369286062096,0.16926383061832623,0.18211476786307793,0.16233937097301063,0.10969587381004894,0.037342795532101326,-0.030764467364212563,-0.07188797275614599,-0.07240798138600818,-0.030485073032858544,0.03907907892459679,0.11659659175581884,0.19308361732230941,0.2768353252388984,0.3905111223139479,0.4935513086341985,0.4100631645978345,0.3621834782583176,0.4198097267644728,0.5516956992042977,0.6368406832944162,0.6377048048037777,0.6614210976619668,0.7181609269631036,0.763468881359433,0.7664757905447882,0.7221017639200277,0.6443762886858727,0.5586417227778101,0.495522790753982,0.4524709350978579,0.4107689807242458,0.3816699676892015,0.36359532185751753,0.35110462324579494,0.33979366745694795,0.32723950867731244,0.31177418942066887,0.2921439463280272,0.26973709287379943,0.25058264530873214,0.2391211972891478,0.23388254514182183,0.23109285796203463,0.22493205408099226,0.214186300180262,0.20132254982254544,0.18645681456407348,0.16630704847063493,0.13685834067632846,0.09727880289493958,0.04718811933284176,-0.011958606523026072,-0.07341192519577906,-0.12805860563780513,-0.1716640686152054,-0.20390702230448637,-0.22832159741008448,-0.25301230592258755,-0.2926056323100186,-0.3549978615524083,-0.43722343834017674,-0.5260803240778753,-0.6027333172779706,-0.6459965545433572,-0.6397828483940566,-0.5923578821772187,-0.5356305714965475,-0.4900214732407239,-0.45204750630535523,-0.4085334877812155,-0.35400918052109004,-0.28778489347429026,-0.21667184574631532,-0.15006917478389406,-0.09363289762547254,-0.04695528373744153,-0.00512727682540951,0.03460449781526842,0.06818772111100363,0.0907177324110384,0.10175358167594503,0.1018881962747236,0.09356529374061705,0.08272191033853037,0.07512822742764085,0.07457724769128489,0.07979442711402887,0.08844565923845138,0.09702065457672161,0.10232394268756448,0.10134422306906551,0.09290465701125507,0.07833926822404705,0.06285635959377116,0.05055618046211138,0.04084371856352604,0.031259068446889825,0.017908034139295627,-0.0013178138466406585,-0.02498731008581441,-0.04869467562912579,-0.06518512584246858,-0.06876459407239104,-0.061604017115031565,-0.054493185252375974,-0.055166640128846374,-0.06000196170446131,-0.06029095026107014,-0.06444240381743313,-0.08099953151483033,-0.11570371458390685,-0.17164201605663715,-0.24322320025426458,-0.3165575724622201,-0.37611480035186334,-0.40594326368625955,-0.3969840647623737,-0.3469197321035142,-0.2608304143748802,-0.15478265080091339,-0.05051396683800943,0.03524302774588493,0.09411537981222352,0.12401191218007496,0.127722890209377,0.11610493529326828,0.10412165492585848,0.1003716703210966,0.10446266341668917,0.11088085331349551,0.10973354427710454,0.09411065242848998,0.06236768971508296,0.015817393215095506,-0.04729743311628914,-0.1304034305384715,-0.23563289462978879,-0.35087397832677547,-0.4517185279703675,-0.5119256931593094,-0.517716739909079,-0.46993943996089543,-0.3834570852853407,-0.2700631342308618,-0.1448039655583271,-0.031175542585840224,0.04143810454793849,0.07149895970679229,0.07390543760357783,0.062080413485078124,0.04292258441693628,0.024614184227825797,0.010091216673470354,-0.0010470719019320745,-0.010018931069471911,-0.015126640906487448,-0.01445707231096214,-0.007992142818538725,0.004589632610206813,0.02237258968512073,0.04525810049854049,0.07079581220213252,0.09374812358972681,0.11184092853199536,0.12479217423974012,0.1308249751142774,0.13155028276863165,0.13009776659938907,0.1289890607372473,0.1300320446247175
