0.046999863412614334,0.11725620029321318,0.16691707119609125,0.17726958258102374,0.004731448562769723,-0.1862719029309573,-0.2629718864562177,-0.3102491500699386,-0.3492403817147193,-0.3846421497587579,-0.4133043156214286,-0.4287823419880919,-0.42379205059146974,-0.39269669282562686,-0.3311207871444575,-0.23619869218198614,-0.1112527392643538,0.036615125433835584,0.2094767122509122,0.4329790069955903,0.6423772005707161,0.4694147992889769,0.20145503263291498,0.0015593152213034809,-0.1563125709738832,-0.2844961557194201,-0.3797529300844052,-0.4357518891008563,-0.45543566609029656,-0.4534077571163912,-0.4503348451179196,-0.4572381072367713,-0.4708423210992365,-0.4815643368631262,-0.4853898057777874,-0.48403522413490857,-0.4806395482154293,-0.47363264516951603,-0.4547553274779615,-0.4124394982863597,-0.3340543108288507,-0.21149890550335795,-0.04639339745737708,0.14046999234234878,0.31951022258227124,0.4681646456625125,0.5764166210025266,0.6491583998697735,0.6965414769008839,0.7271340438171797,0.751027091604085,0.77384250207552,0.7963425187755576,0.8175248705835775,0.8375772546325341,0.8581753193639697,0.8782415145710549,0.8940669419069436,0.9020107593642331,0.901303519918576,0.8920489111570842,0.8748595887778906,0.8501838193059017,0.8208358952819554,0.7939761576099235,0.777850099455841,0.7699404084772152,0.7602763811802918,0.7367848099569414,0.694289284624596,0.6288319199814488,0.5458336443389649,0.4630037039433438,0.3895324875434323,0.32563981734650815,0.2640769884352647,0.2034039368425157,0.16398091892719593,0.16977940709693687,0.23446676700826594,0.35395577010894796,0.48330416261834086,0.5744586114119512,0.6106496358489844,0.5941044406443521,0.5177978685933052,0.4215557187569526,0.33652178016912254,0.2284677440263381,0.12460196137346591,0.059583188005172254,0.012297401298181465,-0.03960550153278009,-0.10956750790094255,-0.2018077024806428,-0.3154963972952912,-0.4470412488578459,-0.5905130578229616,-0.7276121022729138,-0.8320275520569961,-0.8921454901777113,-0.910488149865297,-0.8986557824873413,-0.8691626913768992,-0.8303882088365674,-0.7868110468409018,-0.7388930644871178,-0.6915398497543642,-0.6523491339468417,-0.6216861674282429,-0.5926846820646516,-0.5553371343650668,-0.5038007984870613,-0.45111810312791206,-0.4167754076022221,-0.40688926341156967,-0.4113576337717299,-0.4211219638944352,-0.43026396764232694,-0.4368144790391032,-0.43446801881606223,-0.4081138142350141,-0.3399589371145394,-0.23850969403364158,-0.14164834335755358,-0.07495368991011318,-0.036500926910548716,-0.006115387732458173,0.025028271713975727,0.06017660354185504,0.09350062517402742,0.12226101340756598,0.1397064849225213,0.14738995901523191,0.15400594141124033,0.16529432385495554,0.18335731645827155,0.1992419419536681,0.20106241157888918,0.19543609205943546,0.1917637029226117,0.19393768773210598,0.19926469175053105,0.20288065089670745,0.19993439503690233,0.1947347347770889,0.19465984620204826,0.1986103661661853,0.20194288918269435,0.20124796609437248,0.1932674489105422,0.1745795678339071,0.15116055956470884,0.1265109958951635,0.10315788150664049,0.0833122811452366,0.061043510382250574,0.02766370887559195,-0.019592217055029476,-0.06774709279321779,-0.10594054805343366,-0.12811979183542607,-0.1389031288806037,-0.14156236684845838,-0.14547237093384255,-0.15970613955153493,-0.1882496374693888,-0.22791599402225324,-0.2534509130961257,-0.243272450013284,-0.20656859091562998,-0.17976834003366574,-0.17030299287352152,-0.17731254199237922,-0.19628998074471957,-0.2281518830467707,-0.2659516332213536,-0.2977478944119944,-0.3077942371175246,-0.2880397929094452,-0.2507587759673977,-0.2150429045912369,-0.19296587690811562,-0.18138538835264637,-0.17204154604879743,-0.1595183154933244,-0.14484035827938832,-0.12770949247559601,-0.1064691547887005,-0.08140614540071311,-0.05622242162804004,-0.028210154457191005,-0.0027433778418222013,0.026067528605390623,0.06005825465287896,0.09984548978255153,0.14261541373156017,0.18373694270865396,0.23693542352914224,0.3036322517572318,0.37245988118481266,0.42101858302062084,0.43982260693606917,0.43648828734676726,0.42456087213408744,0.42426747874154946,0.43916648087207105,0.4683111134334227,0.5045904628271608,0.5468872848132257,0.5893325870438886,0.6299158982614032,0.6678823691062465,0.6996264291140889,0.7213607279442459,0.728414932610859,0.7227270263320342,0.7059729958784287,0.6887162493664746,0.6833165579811238,0.6854771629165325,0.6846466912556088,0.6668578630748728,0.630950351884981,0.5801956597190955,0.51393853387173,0.43110333408223084,0.3351927919685256,0.23627115807685856,0.14701905295173923,0.07001829754107744,-0.0015094343414552938,-0.06976567567281085,-0.1430120870146173,-0.21964539006582337,-0.29574102530401586,-0.3717152694481359,-0.44658562570423593,-0.5160658867301737,-0.5589371197764397,-0.559313199663625,-0.5312825184923994,-0.5081569154425248,-0.5081812039714068,-0.532238460541569,-0.5719623041077543,-0.6145030087706084,-0.646309608297348,-0.6592240778227741,-0.6431700165568914,-0.5836325664421314,-0.49302016756658396,-0.4065806157589834,-0.33719176176565524,-0.281091937953232,-0.23750528172697033,-0.20841235098591698,-0.19296015600442995,-0.18536200128534858,-0.17586311987744224,-0.14771761035323552,-0.09134108651800629,-0.024900450886056063,0.01772824902787469,0.03972172940256625,0.049615015458880196,0.050528281225376774,0.043947989536410534,0.03452094130652718,0.026660169630045954,0.02281520330541786,0.027273435487336375,0.03852357764100983,0.05879914417956638,0.08711465602167383,0.10806341809157351,0.10327772363978989,0.08694241504900102,0.06824529878143164,0.04982402608001279,0.027643328671334563,-0.003240865346609465,-0.04590293116656287,-0.0964690488631231,-0.11786336534530174,-0.0963806396181301,-0.07398477149190087,-0.06469381696404941,-0.0626497336344654,-0.05524352731875121,-0.0390027027226237,-0.018663196157970977,0.0011342006500721922,0.019248423921480285,0.030002293480798338,0.016686567875636688,-0.03834446929627959,-0.1437872440969751,-0.2749743429688971,-0.3807083348164282,-0.4151245515201272,-0.3484772916982719,-0.18625127141634934,-0.003418423472552828,0.1262975203100484,0.19774596314613788,0.227887841412738,0.23774879230417253,0.24236890813328033,0.24333927681559137,0.23822204504741695,0.2260539724472612,0.21124996767613619,0.20018092021286032,0.19985744875568878,0.21921335048547552,0.26757579186981145,0.3600054761929205,0.5010927125905383,0.589653123146889,0.5142763373242932,0.4126715171617545,0.3539907210452228,0.3375838595506387,0.3559494466549975,0.4096933662458034,0.49241397542421084,0.5829779523215711,0.6458680046543834,0.6534060260803213,0.5759978400967398,0.34969717189004007,-0.07312609528431499,-0.483434998711503,-0.6995786619562177,-0.7935629034249496,-0.8335975295457166,-0.8465412477608922,-0.8409518784093504,-0.8181911802214812,-0.7746017598881585,-0.7048076681336792,-0.5999336288409454,-0.4456447513314382,-0.220389330678472,0.059989692665835447,0.23548943017797286,0.28243177884792176,0.28409230867591967,0.2732284472960546,0.2568026531415827,0.23989070520307762,0.2252140934567411,0.2113816853443405,0.19635585615751736,0.18464590510981785,0.17888076111527265,0.17791556942935283,0.18280764731803842,0.18468747403582536,0.19889706024979195,0.2319880101407535,0.28555454169005834,0.3506081904637211,0.4137659941034729,0.4706872440506976,0.5237312780588572,0.572326239142862,0.6102704212726598,0.6288967292071449,0.6276992945208976,0.6123619317772085,0.5831592437140536,0.5332713706871542,0.4529055835074115,0.3319193373023151,0.16958076067229066,-0.0042565566146747546,-0.15255124051947977,-0.26760767235412336,-0.3682223901582462,-0.4587309448899438,-0.529848203089104,-0.5729660301344411,-0.577712288653686,-0.5296764634939524,-0.4154353569808343,-0.2490156072051962,-0.0745732012893468,0.06739952519411314,0.1724011404920702,0.24486589675537912,0.29438096136015796,0.32889093875499203,0.3346904226969433,0.3160355152463003,0.283135517785483,0.25093731380846246,0.23025887405514123,0.2252469037216933,0.2302871457927938,0.2392006726178327,0.2509654087274806,0.2668562582069228,0.279889457763395,0.2775659701085041,0.24437676220822085,0.17756478265373468,0.08979015584602751,-0.003136513276045793,-0.09104396198792833,-0.17326476230335563,-0.25089209785897865,-0.3058236427807662,-0.31416018407688995,-0.27573480115514964,-0.20922310550751239,-0.14197202258566716,-0.09634259690139824,-0.08191799578520653,-0.07004052904026349,-0.03501444238803187,0.022811222728766584,0.09415889906338551,0.17093409474253046,0.2441427295675926,0.3094668415732799,0.3581634953477545,0.3827751128037051,0.39156335078106236,0.39245384824540525,0.38352115753474203,0.35347789283781533,0.2806015321120004,0.14509450592543413,-0.057454598202133694,-0.2900531681367182,-0.488656972341249,-0.6401646558847535,-0.7511022399481235,-0.8246498018952356,-0.8654042468570321,-0.8833945646315697,-0.8850676921354943,-0.8759640246965517,-0.8581059667497262,-0.8338171836580034,-0.8009794436808527,-0.7432344989865411,-0.6327039615720815,-0.4754414461979773,-0.31712612250920963,-0.17920467126436862,-0.0559226939575354,0.06196435482627004,0.17066154779632714,0.2687436370379036,0.34634599432568325,0.3982691998293445,0.4267119281539333,0.4427670612558853,0.4524691193017957,0.4591857686902295,0.4656942552080764,0.4688120127711359,0.4638768535546267,0.44448773059019275,0.41410294497986644,0.3766945821029766,0.3301165599236374,0.2619870060853046,0.15504856749943913,0.004554814940619565,-0.17114293331608438,-0.34312307345057763,-0.49088226566858756,-0.6128813778553317,-0.7079951789740889,-0.7735590875932375,-0.7960928874467668,-0.7603410585630453,-0.6701508275930589,-0.5417200840277032,-0.3848873445402313,-0.19851525817237692,0.008495640930761146,0.2135160717241569,0.3940988138417828,0.5431599821501903,0.651025365362199,0.6945422759394293,0.6435371072928776,0.5332094102240554,0.4355883305279115,0.37289873505312476,0.3396225301203419,0.3258235638569287,0.3222053394527556,0.3187895449110118,0.30779966732044745,0.29194823919155527,0.27547011102955193,0.2611509221778355,0.24606887557553225,0.23723007462799311,0.2439863918015429,0.26796750900481414,0.2967083045773712,0.3205230603385697,0.33516177338683784,0.34269246436685213,0.35093964375354914,0.3638597116221562,0.37739879330370607,0.3820320700747025,0.37832726496793434,0.37133681509327454,0.3676154999528615,0.36142220528292063,0.34081107329345267,0.2968821070927146,0.23002210679983354,0.151070133856439,0.07989810109991825,0.028132727694845164,0.003893350361466975,0.00022999182335288896,0.008654546847508436,0.027226495932494058,0.04515979395472032,0.044255040907472454,0.0349631856955347,0.036537879630453796,0.040910444537750924,0.036896255280474716,0.027225135695829735,0.01497399598297476,0.0010553646202692845,-0.019552266156624712,-0.06260479170007317,-0.1495667039771483,-0.283398360970545,-0.43202600601690433,-0.5571376592986088,-0.6420578552296439,-0.694001203677535,-0.7189750861759799,-0.718617702841197,-0.6937466127883203,-0.6382589753326439,-0.547229568780033,-0.4264272404253038,-0.2908036655754254,-0.16961543152157094,-0.07811459977979793,-0.012538444282750912,0.03137441451676468,0.05557025167507419,0.06683362613202336,0.08468226785779885,0.12716811545267584,0.18728751125677828,0.2260271566845985,0.20533987196650966,0.14366860030161732,0.08457812267215399,0.04166980258804611,0.008593268592032619,-0.02154409932669497,-0.05275575675086656,-0.0853789952811675,-0.115949052820354,-0.13694777670175706,-0.14583609699051364,-0.1450736480696319,-0.13631998537423923,-0.11727997604441703,-0.08749116657659138,-0.04303596108276265,0.020838045218669467,0.10376153426998194,0.1897983610737185,0.25240579271583463,0.27673002235834354,0.25696473652171803,0.21151335807040786,0.16400333919625484,0.12476143759035373,0.09133520334777057,0.0604197522564103,0.030350218257769,-0.002111507000953172,-0.033693656778602026,-0.061498267332504346,-0.08769854162238457,-0.11443626557418093,-0.1448272180970366,-0.1564373936497227,-0.10057438803763058,-0.03574457284719892,0.009906504893210962,0.04358567712215382,0.07439246727095009,0.10540207850238247,0.13368807673451175,0.15538249819437497,0.1696376558967347,0.17659832171350978,0.17450522145787778,0.15712641388803034,0.11206966603943916,0.011984295395814396,-0.19628818832050385,-0.52080917947959,-0.7745767372980432,-0.8641617464393163,-0.8670106854368641,-0.817775195369052,-0.7046298396871297,-0.5026001711611997,-0.22983148046177262,0.0248366023214391,0.1954731213951042,0.2860011917377748,0.32284357181104245,0.32958814693845334,0.3230192608923086,0.31751581327304823,0.32005102548779596,0.32675394659069473,0.3289260324277798,0.3181418159865704,0.2953479868344845,0.2540081035558012,0.19323092656501548,0.12383555125142377,0.06329422660896812,0.02946036914216064,0.024253138709500213,0.047540708878267265,0.08933581500383796,0.1366497503429429,0.17640047514720505,0.20619299197005442,0.22831265140876653,0.24490907252592992,0.2591851964924881,0.27534593311488204,0.28748049407643045,0.2923793549756276,0.29173175104861954,0.2886527574104779,0.2852991164878169,0.28478160810341024,0.28664712850425983,0.2914971228031984,0.29907296767942904,0.30560008255953863,0.3097360145963835,0.31244198853519556,0.3172471635800377,0.3254398000177777,0.3339151955764163,0.33441190957417866,0.3200191016851962,0.28903701641508084,0.2458643938310145,0.19418772577734633,0.12800891272799741,0.020038113701672026,-0.16480329294343365,-0.3993438947837883,-0.6046539872994818,-0.7348397017629852,-0.8054264000628919,-0.8404055298213711,-0.8573639704450227,-0.8679624419909598,-0.8786391038131857,-0.8891072025088428,-0.8938347992031457,-0.8841839495425539,-0.8481139479137121,-0.7649059683683609,-0.5989080016978732,-0.3435618061082475,-0.08395308915884206,0.10682213672971276,0.22457520255490346,0.28116107306236415,0.2884302849915979,0.2600475315985297,0.2120181606006828,0.16158391706678243,0.12362045244483597,0.10550656897169049,0.10870680505238343,0.13325114136723729,0.17092045764226588,0.20859523659872728,0.2451681341548071,0.28562696962577205,0.3354972986257208,0.39804269781084783,0.4720901316746653,0.541470061759294,0.5885704987996386,0.6065099519991232,0.6009461502226408,0.5860800577947366,0.5733707249597918,0.5620521946429915,0.5389396827935697,0.4886135765851468,0.3933437585090187,0.2471251576935049,0.0677689995870096,-0.11061971233908698,-0.2632675067058909,-0.3785509321234526,-0.4692163858870703,-0.5597652768241753,-0.6624070137458309,-0.7585587347065255,-0.8303506373776337,-0.8771018172078248,-0.8949925473812244,-0.9004130158010725,-0.9335468267788983,-0.9343188337573313,-0.703717753448261,-0.38259631084269474,-0.13111446186783082,0.063824905392825,0.22359543652536637,0.35034434414040994,0.4436217368799239,0.5043430188312558,0.5382485693079663,0.5507733523880062,0.5477868336667271,0.5279593752733686,0.48425798292836997,0.4215125276546484,0.3626639933113991,0.33095667252835614,0.3301787707828391,0.34567014952665304,0.3610524267123442,0.37235198046064055,0.37620377912779424,0.3646052752302251,0.3166429576272075,0.204612183955352,0.02165197243949812,-0.20154752881655166,-0.40065357126014556,-0.5364483885252531,-0.6087771126737503,-0.6365831012749994,-0.6440986386647544,-0.6543039532224473,-0.667935391339994,-0.6679134758521846,-0.6337464829137467,-0.5487702841728942,-0.4048827011451869,-0.24040854974546863,-0.11788965190888136,-0.04105014287019075,0.02388870281124497,0.12001339653991397,0.28094064555487025,0.43109079844099146,0.48317273080719897,0.49648484894634004,0.49605559335803545,0.48271438848378345,0.45055757112467015,0.40596462990490784,0.35845786108418987,0.31657108084125046,0.2814455975433272,0.2522619526124712,0.2303215811251769,0.21728826421710595,0.21693245632471955,0.23169776179277388,0.25235022171481086,0.2518321155196285,0.17945063189886146,0.045299290817414864,-0.06148640265076923,-0.1282519283290295,-0.1753525953837183,-0.2152820237860904,-0.24963326478305176,-0.2808634563978859,-0.31249530454900326,-0.3498717136151297,-0.39542164445436556,-0.44651123139056015,-0.5004152418416847,-0.5562168772004938,-0.6130726887410837,-0.6544923022132587,-0.6219399363824496,-0.49903598894465373,-0.3470801057669565,-0.19803055078379264,-0.08165539211550625,-0.01087532186977668,0.02723501763930661,0.04975004642540344,0.0657115857552448,0.07979874728041621,0.09090492273459526,0.0913996945149155,0.08328684470830809,0.07182826659604133,0.059601339238430105,0.04946104536681937,0.04349005922971747,0.05059263268536965,0.07455849864105228,0.1094547300354469,0.15202163649029668,0.19275026013626323,0.2261751838226515,0.24504839026559205,0.24389646872011553,0.22011425187004974,0.18259579519308558,0.14990436039212496,0.1328357523764671,0.1304356589253084,0.14058525722516654,0.1621995460337642,0.20621686920566204,0.29439268738388763,0.4508482414053012,0.560758770249361,0.466771312770263,0.36500444788048764,0.31702803865614826,0.30738091584813926,0.3219494931208382,0.3530159580297934,0.3892241074542515,0.4245587491691633,0.45699868204886956,0.4902527216272972,0.5192098819839496,0.5222201821938112,0.43629299766913066,0.03984240706341564,-0.615350485074126,-0.8590257878086579,-0.9227960776124959,-0.9426439268325012,-0.9464265052208637,-0.9383433733700639,-0.9126162175016098,-0.851101665805474,-0.7195109864975628,-0.49348539373163774,-0.22785976236719707,-0.01146918528356139,0.12562380558062383,0.18325564988053855,0.18044418135871862,0.1471985192301379,0.10499609647262516,0.06146225707993584,0.01235019679225231,-0.050397231669130634,-0.13748093135420686,-0.24824957746831747,-0.3697138632864012,-0.48220429743134846,-0.5848297798535321,-0.6974973073307269,-0.7902893284864633,-0.7444127710617197,-0.6000082622440658,-0.4532688641351473,-0.3175606990455624,-0.190881736853265,-0.08127422382486155,-0.00030283627271618596,0.05015362266143427,0.07367700765927905,0.07893065848069862,0.07642036257373706,0.07476852588105622,0.07863403616168815,0.0895486614605771,0.11122465594988332,0.14987788351072992,0.2178150228126385,0.33290337869046294,0.5057349272781954,0.7003756533708535,0.759920042483949,0.6477489340387171,0.5068179616447315,0.3958977208699898,0.3201366116497297,0.2723359522030838,0.2436986457069374,0.23456255823065172,0.24658021403630787,0.2781599269742585,0.3230023076419562,0.37877402644469377,0.4403908021642667,0.49800353653114204,0.5378668896711786,0.5482965104350014,0.5279860565464337,0.4864078701080111,0.4396122047491034,0.400565861994376,0.377296953404984,0.3692638451235386,0.36997267431144404,0.37335208957301386,0.3806818229927546,0.38647388778709857,0.3902250458991421,0.3929132588471026,0.39666755611548693,0.40144405824110974,0.394862438682279,0.3648129005640285,0.32308138280589876,0.29290321714984624,0.27351667398382656,0.2564133986268678,0.23867589283924512,0.2078011431763611,0.15858070375230787,0.09514256222774607,0.026795366531858076,-0.03560316390614332,-0.088723001419459,-0.12808409024423448,-0.15555691331299673,-0.17240662856105285,-0.18014467058344485,-0.18179098859005385,-0.18166394853818144,-0.18581010309668505,-0.1967422787356029,-0.21546927610136848,-0.2158862281419699,-0.18433010564759622,-0.13058719395010224,-0.07631130601240547,-0.03426638127636989,-0.004304578408388831,0.023426779622319444,0.04257886477396377,0.04303977131245423,0.02142511159428129,-0.01933426368307156,-0.07961252556393522,-0.15061494738794992,-0.21613403975557627,-0.260891472604021,-0.2878703285166191,-0.30879426563018514,-0.32866652690989673,-0.3465476511246913,-0.34985720320755387,-0.34243265921837124,-0.3331593097597093,-0.3355825347015285,-0.3540287906573271,-0.39137500875279485,-0.44080643239875866,-0.49209257542861307,-0.5334171933946212,-0.5620645240329701,-0.5863365899150543,-0.6111603420780454,-0.6358254035952599,-0.6555479358578125,-0.6627685950572674,-0.6553119275253911,-0.6306359555894611,-0.5763322612202009,-0.4602669770424578,-0.2495308998876409,0.01609639008545279,0.22694522605604125,0.34464440284803755,0.39207270251068294,0.41173187317604265,0.45009348208193045,0.529975402882544,0.6199377044914812,0.6891097915668543,0.7303617022485344,0.7318430702091734,0.6696754867556475,0.5001654486856765,0.15297596860702442,-0.3282248841582352,-0.6739431962448421,-0.825653634139011,-0.8867699910325533,-0.9126473533458941,-0.9233707498376232,-0.9263898365773742,-0.9245313419539826,-0.919615714002893,-0.910213243359687,-0.8941912754530194,-0.8690242869141166,-0.828821526051461,-0.7598237710178395,-0.622166167137589,-0.32075139687372034,0.1930357368308822,0.5931818218265322,0.7538060508564,0.8086013966878494,0.8264139568633461,0.8328183910717604,0.8380970359879621,0.8446587665150831,0.8483663304107855,0.8437645749337234,0.8297671701948554,0.8103532033044254,0.7888918616006376,0.7670369668132843,0.7465357154566643,0.734258648697474,0.7259579848825402,0.7170511392892505,0.7059931248619175,0.6949512984823231,0.6883935017022902,0.6936246916976364,0.7117453148966517,0.7296928575973347,0.7336650530741453,0.7224122634099024,0.7050707495194748,0.6954709142470794,0.6989285248142872,0.704711549018791,0.7010154229661989,0.6853616045271713,0.6561633853240955,0.6011503423315148,0.5230769392698198,0.44664696246303687,0.3916267844925039,0.3640610179407393,0.3666193037553551,0.40243152683673095,0.46912142208315954,0.539600112374327,0.5581647941514345,0.5113183714030012,0.4463064996885707,0.39543839174764855,0.360558343157879,0.338489372442161,0.3272262360042386,0.323382615340156,0.32441969462285175,0.33230730105113915,0.32660687695688295,0.20955306427312487,0.0565485677847797,-0.02458085824405073,-0.0687526473692099,-0.09703894430440176,-0.11888978340243533,-0.1438264772479558,-0.18316383632186387,-0.2510274127497282,-0.3648498182038496,-0.5277971041088109,-0.6961550350615883,-0.8030052461526186,-0.8367845093680101,-0.8338725776409986,-0.8222220411130997,-0.8092435589117605,-0.7917967134662199,-0.7611864579690301,-0.7111303083706579,-0.6414433001353536,-0.5581928085584623,-0.47114436207351235,-0.38952160784298573,-0.31727554877311237,-0.2568952323430916,-0.2137751164504865,-0.19599132654448806,-0.19854197199004994,-0.1952575371116979,-0.14458654331313373,-0.031009534843465823,0.05518926185783621,0.08760699575460289,0.086533720945004,0.07204729283293398,0.05902716485101943,0.06292898333462092,0.10099440911296018,0.19780912344457532,0.3667778334977338,0.5355545523630558,0.6194679029868791,0.6250725300971447,0.5844595248563272,0.5198143017184965,0.4495652729488692,0.3895009733826929,0.34229080906193415,0.3008345980667224,0.25373727226438414,0.19217397857683033,0.11627819700020614,0.028170781382116875,-0.06832823132683424,-0.15646598363560046,-0.22026695828299148,-0.2546785858137227,-0.26661392171929593,-0.26360745753638837,-0.2500129492012643,-0.22439821146527125,-0.184434938708886,-0.12915502708762705,-0.06547955496733092,0.0007947608053056343,0.06776293765980304,0.1298570711593919,0.18117677237453772,0.22755692478875206,0.2814367544822994,0.349356052315359,0.42176948919497226,0.4786673028042888,0.5152377718176923,0.5425779066318978,0.57104896646179,0.5980902018908351,0.6134602783833037,0.6155738783801159,0.6049617456730919,0.5718018957973819,0.5027433334366115,0.39311410956479476,0.2642373294304098,0.13569684872914184,0.022409997067376623,-0.07332795776332159,-0.16499701638437672,-0.26354541739968496,-0.36298620755620314,-0.445910550008625,-0.501612647620232,-0.5416137592852357,-0.5800661111815086,-0.621455833125752,-0.6652849257242575,-0.7083477865144574,-0.7484485953403012,-0.785151390486913,-0.8151205468336686,-0.8339124230850173,-0.8375325325706308,-0.8239171415000052,-0.7850704414317627,-0.6950680909660125,-0.4875304820766652,-0.07973506974630128,0.3802037089391912,0.6435764018214252,0.747216272557193,0.778313512546508,0.7801148423280522,0.7697683691251281,0.7526816188092595,0.7337417694097477,0.7161524516792149,0.6992398803468178,0.6829474821073173,0.6696599678178198,0.6665588342320438,0.6762612887227858,0.696080506074743,0.7087129996157497,0.6630422226857717,0.5440236348591687,0.4253342271703927,0.3515161793177431,0.3219171448782657,0.32122795225756273,0.3271922103872341,0.3242362694919341,0.3053199323342091,0.2652435181752896,0.1941553849684724,0.0829673543042466,-0.07677930419905583,-0.2873721960936408,-0.5247737055850032,-0.7257311230376248,-0.8486536066375688,-0.9074758157823936,-0.9284782884397278,-0.9244689442767388,-0.8958597812590686,-0.8357458859068265,-0.7382289000242753,-0.6084211733640268,-0.4622677445797634,-0.3282919804237502,-0.243915116912524,-0.2112438216216923,-0.20415607144801898,-0.20198180364938964,-0.1975507829100438,-0.1846313264060418,-0.15269569936157346,-0.10396378346590761,-0.05274206366200362,-0.007437149018680322,0.02716805122665354,0.04903929009253243,0.05922270761334541,0.06826024789691611,0.08796361515447933,0.12052174626643777,0.15609038283371254,0.19205286647930592,0.22604517434234547,0.26456852348005894,0.3100806281829322,0.3523071198389041,0.39031499515333457,0.427464916401881,0.45814513773873644,0.4611345001653577,0.42290299928406827,0.34035985153356957,0.2228440714379875,0.08813062680226676,-0.012294614491145503,-0.020987858971749058,0.06854774450307297,0.22463923662911875,0.38739876800323,0.4907369093451575,0.5261904993783404,0.5267744835174161,0.5156018354101276,0.5051790505372906,0.49959046069469487,0.5049926273319232,0.5322268216763798,0.58071981271687,0.6314249729860293,0.6651799276054854,0.6812483349568916,0.6907664146089396,0.6951904516033841,0.6965628443587288,0.6895421267849224,0.6626806589294494,0.6151541382307949,0.5565244784538643,0.4946066366114987,0.4275550313707664,0.362150262258555,0.3076526785125635,0.26212998271856974,0.2086706121227335,0.132159882849713,0.04711335441793261,-0.020865842751202464,-0.07013884582040057,-0.1022555489532985,-0.1210852453346109,-0.1330384288863053,-0.14394966335948453,-0.16077264227035581,-0.1902874037388366,-0.23509949499862512,-0.3012430244821716,-0.391958883588285,-0.4755647608040442,-0.459173012158598,-0.3548687669697255,-0.24939943654688648,-0.16657443536470481,-0.10327246237977979,-0.059635149766770854,-0.03694992870451991,-0.032455561846895485,-0.04212823283457033,-0.0634595202324014,-0.09820935270070748,-0.14571703086922738,-0.1989099548337524,-0.24917356090445653,-0.29251165967601706,-0.3284165643335817,-0.3542649529548761,-0.36293911884052915,-0.35161450998646704,-0.319477421577436,-0.26670543791017287,-0.20524463713470134,-0.1618991539690818,-0.16345757230879746,-0.22324499939226583,-0.3315840048256114,-0.44358040931436094,-0.5166421836576696,-0.5392597670386174,-0.5307362651296432,-0.5155341566984841,-0.5039511440376367,-0.4907598747162877,-0.4494712539991828,-0.3485734147219264,-0.17638306218997268,0.030868388587602606,0.2093763456968571,0.328904480834834,0.3943464453467488,0.4291859638884721,0.4555097882041499,0.4800350657313465,0.5029284591771533,0.5243292792787648,0.5381810473297522,0.5432706237627578,0.5316885117797698,0.5100049913339219,0.48401936204297447,0.45993829388767327,0.4317221868238512,0.3945867481788412,0.34548772758831825,0.2912705573639832,0.24551843844040558,0.21984026898993117,0.2148527575746252,0.22174047546400402,0.23422437664337262,0.2450014504375825,0.24996706932146426,0.24069722776386931,0.21135614450393375,0.15273988497551508,0.06369352945453276,-0.04118820297840236,-0.1509198198643425,-0.25577175765340304,-0.3373030345484952,-0.37970912760217734,-0.37387209207865363,-0.31624330347336777,-0.21730222760600168,-0.12404141927263466,-0.0556111125072146,-0.009804108659330736,0.015556527140292107,0.028809465472012036,0.027891972413084228,0.003950770288052272,-0.056330459144403544,-0.1551016579616597,-0.25073575211531335,-0.30200069009625174,-0.32219343212708995,-0.3196173853322349,-0.29451038732084894,-0.24765399049550735,-0.18772451423974387,-0.12663813768890247,-0.07927077647022274,-0.05288667979003851,-0.048544117706875195,-0.06056889715097086,-0.07211181303986612,-0.04933955575412301,0.04010015052584472,0.19417759889661884,0.36441282017128146,0.5076144992711908,0.6073377060414773,0.6664000344732978,0.6985348027151921,0.7109144985018548,0.69314361493956,0.6387363015301811,0.5448375263376729,0.4188605502270513,0.291127815381761,0.19667084301291268,0.1555353718782913,0.16154523950343727,0.17788137139960522,0.17564040614232657,0.15631115713645322,0.13081704680376247,0.10428352972562917,0.07383028484335269,0.04870633564258969,0.03649112659635555,0.025661647964367908,0.006220250482325876,-0.01666192180061785,-0.035935835574159365,-0.04179404861129793,-0.025752243211032835,0.01838376706353779,0.09690016241432435,0.22395055990347926,0.4072157022198079,0.6083446122831925,0.7510292134187141,0.8197388764582557,0.8323531065753367,0.7685044479130362,0.412630194583676,-0.5758732861658525,-0.8994904295611175,-0.9545201517813738,-0.9658006167627418,-0.9616845622969696,-0.9410631402850198,-0.8927871443287042,-0.811118197538993,-0.7251957643614836,-0.6758495194840162,-0.6712884071013944,-0.681908079270031,-0.6911267837433208,-0.6958558585704788,-0.6939977743172292,-0.6845484895417016,-0.6625497321575557,-0.6245502005888589,-0.5726366874713436,-0.515862142448224,-0.46331233579134906,-0.41729459907880073,-0.3701702112836584,-0.31370824571356853,-0.23654778771211532,-0.1437655818477194,-0.04355132072521129,0.043319249225530126,0.08735165685281183,0.07293460725080654,0.010713401701033774,-0.06789544409985247,-0.12432868191413649,-0.12752450935337425,-0.04717790233309093,0.13374684689142377,0.3824774988256432,0.6010220326979523,0.7375711460241205,0.801250193274351,0.8137359255790618,0.7881082808079672,0.7405750473835201,0.6873040701894344,0.6385236302308355,0.594320946862491,0.5502167061231277,0.5057798762859633,0.4623582890120206,0.4251480973968891,0.40230415672747905,0.40180874604469646,0.4279258215824556,0.4817382969249481,0.5640534763563164,0.6817179038893277,0.8126167448281347,0.802867269677638,0.6189942152505237,0.45717684506375045,0.35569095867896466,0.2961453268112694,0.2619282826601345,0.24270063441930442,0.23439214014990437,0.23657298028341606,0.2483628008246863,0.2714374606254776,0.30443312451401267,0.3422170591620788,0.376196236802409,0.3970640624988457,0.39827434085823243,0.38063450976739854,0.3503770704878915,0.31343784220731485,0.27280934622977354,0.22575808326290958,0.1519007440944481,-0.00040877078134205267,-0.30156394691541116,-0.6056090395844286,-0.7016514468832324,-0.7134717266936685,-0.711163979905302,-0.7087495855774123,-0.7044152761170458,-0.6991687293439973,-0.6964598712284462,-0.6995812621775962,-0.7026864378803397,-0.6991524177143315,-0.6811816780848945,-0.643638045839427,-0.5837620549429056,-0.5126757527096699,-0.45134409191476726,-0.41900017497219955,-0.42142793934167705,-0.4484847305911631,-0.4832365043682901,-0.5174596541822402,-0.5454270660521968,-0.5614101266901954,-0.5698612176092135,-0.5770770895974001,-0.5863396077091156,-0.5969385589609468,-0.6059829038400099,-0.612675028193698,-0.6104611162440434,-0.5871796392813696,-0.5360421825215692,-0.47103974551128064,-0.41399957686910216,-0.3792849076196462,-0.36938287467657993,-0.3749622580014474,-0.3774000245291322,-0.36373329434992985,-0.3312065539276861,-0.2743554418545603,-0.19461836360532608,-0.10536466633285431,-0.010969725959878508,0.10435628935821449,0.25937727174028924,0.45007806976588866,0.6329904314534852,0.7507496555107777,0.7934676439025519,0.7985323186761578,0.7929164170110962,0.7847082362840576,0.7738881638544044,0.7559186715852213,0.7228140243597245,0.6734760255885371,0.6248395302357787,0.5928016133552578,0.5879498670748858,0.6020574563983864,0.618382329857382,0.6245635394971386,0.6156224935291262,0.5868485947232,0.5352700855944217,0.46047406309159206,0.3683345343574354,0.2657103850623629,0.16360644530502513,0.06940239898648631,-0.014621465808436252,-0.09224569988106159,-0.16784530572320866,-0.2542659704635093,-0.3517967195217581,-0.4585892396033289,-0.5643142285838947,-0.6686358023927043,-0.7605456887748222,-0.8276935499862752,-0.8689282296329565,-0.8854605729749653,-0.8801636411716451,-0.8529265922434359,-0.7945000720512745,-0.6805173135628707,-0.48090870648095974,-0.22251055739811484,-0.007577866391915513,0.12074075244248804,0.1899732982517087,0.22713778054761308,0.25304333738922863,0.2826719106823003,0.3190815201363665,0.3595184689168119,0.4038317789832533,0.44956429101846906,0.4898627947170581,0.521446275900948,0.5459900685053907,0.5657665467482359,0.5788110297146299,0.5858246902433241,0.5819116246504089,0.5609203067547194,0.5193413300702866,0.45937309621181394,0.39166418021431854,0.32024196653729575,0.2503546717751673,0.1821161166941114,0.11772797829175237,0.058151141386633055,-0.0007803348173506815,-0.060947282747519066,-0.1349140158542103,-0.2236145852984995,-0.30739584264261205,-0.356656931089021,-0.3562470763568251,-0.3260038192715868,-0.3007110072995816,-0.2867690915918242,-0.2631461673785824,-0.22500337379670002,-0.20107299216716387,-0.23569840892627453,-0.3606749514779771,-0.5531111786854567,-0.7280612768635185,-0.8346434852688426,-0.8841698051640297,-0.8997414345815578,-0.8888198978993511,-0.8399389354758487,-0.700392777121036,-0.3394917186972789,0.18809002163643324,0.5154244803839888,0.655418876297306,0.7221827557093197,0.7597685312458492,0.7837427788905784,0.7965226322778429,0.80191306133865,0.803127735582754,0.8011234860566203,0.7964880620129113,0.7881446692946901,0.7761396702661361,0.7620226399565811,0.749472126828763,0.7454003017350913,0.7541537508086337,0.775377887314606,0.8011810822172909,0.8224080347776477,0.8311857280704582,0.82186110064322,0.7893015756586985,0.7327051615849488,0.6607777648906439,0.5797249066870744,0.479447963284996,0.3545364382276609,0.2185367153600811,0.0908394072693026,-0.02129827268995647,-0.11159619092978613,-0.1834325994404747,-0.2383971384877862,-0.27766013981940063,-0.31880223208656766,-0.36760171640737577,-0.40704289165341956,-0.42292241210985004,-0.420202086178049,-0.41282511297263247,-0.4107713344156352,-0.4153292991953768,-0.42830872566569517,-0.4483116470931132,-0.4701600649856106,-0.49295071908344057,-0.5180217182962956,-0.5402994686032152,-0.5474667691162819,-0.5429142942813118,-0.5413276244866498,-0.5450980365893834,-0.5448374941002786,-0.5329252815408441,-0.5060611832224873,-0.46501449760440144,-0.41658325348756603,-0.36210865020035554,-0.29595286986395236,-0.21758561542475757,-0.13463908647527925,-0.06447307205307319,-0.018975131485686365,0.005083157956309844,0.0071866689370808715,-0.02017773707748091,-0.06554564534483952,-0.11097684505351077,-0.15353414311630656,-0.2007531301218941,-0.24913678112402446,-0.292283054965861,-0.32772721832524704,-0.34731940137056555,-0.33590102507963077,-0.26600109581499204,-0.13150560160875685,0.04424653034248223,0.20976720351181824,0.34147684063573003,0.43651740901657665,0.5082752921131646,0.5622692457065795,0.5906460960425091,0.5911183713998831,0.5712362756055398,0.5393708283183305,0.49985214921428645,0.4498492154744919,0.38182143905051,0.290411434221173,0.1734731264601364,0.05879913314737685,-0.02558080259174488,-0.07178226568860349,-0.09711576761939653,-0.11223431314573926,-0.11261537378382652,-0.09059207469218766,-0.04284497664666694,0.029378134119183153,0.11004180508044689,0.17288001280338597,0.19836438879242824,0.1716087454162589,0.10105132796579604,0.013094578370252187,-0.0776500488515191,-0.15825933945527831,-0.21824132889211798,-0.23574928584568824,-0.20856118852101788,-0.16054390195924992,-0.11920502110539705,-0.09194572873403906,-0.07806341711035945,-0.07128954177390345,-0.06390280759261338,-0.05493120358150155,-0.040415441534842736,-0.02807169502763662,-0.022232915197704976,-0.018741790844316104,-0.022597156069255633,-0.044835195952969815,-0.08926583600768963,-0.14910189436391139,-0.21529587009899984,-0.2795942006895456,-0.3367465152583955,-0.38816333119413066,-0.44242407900789243,-0.5110916672112147,-0.5897073251792239,-0.6695830871174475,-0.7479074915868094,-0.817691463437267,-0.8402812088428184,-0.7936537591694638,-0.7292786580418271,-0.6751520881674467,-0.60898115912358,-0.5085730226561095,-0.3622553745947934,-0.14836697147374986,0.15550410095198752,0.4543436820011689,0.6092576944204925,0.6550210412547465,0.6605959158801549,0.6576274420368797,0.6598539561503617,0.6617914518608128,0.6594151872954768,0.6505640141649602,0.637329917221715,0.6170353384559986,0.5920279886283386,0.5661751193911491,0.5439243316394231,0.5319415270844987,0.5246465026215104,0.5124177765410718,0.4819439135289805,0.43226310348255575,0.375764422469806,0.3255014558527005,0.2869527700466242,0.26361157463055657,0.254155349997803,0.25508439197585664,0.26715372084568334,0.29387110351888995,0.33822345724653985,0.39061461674457065,0.43211321141150294,0.4498295283482421,0.441874501663526,0.421647107482199,0.4063844714283869,0.3994183476918732,0.39393647013149447,0.38530555502801883,0.3755900935453471,0.3646544506051538,0.3540543058690243,0.3422111473804071,0.3198443819914031,0.2790926121392265,0.21232982882274418,0.12063386935867212,0.007989060874983297,-0.12435442128802748,-0.27393288952835315,-0.41510729076912595,-0.5261602846194988,-0.6028009945324787,-0.653753859052384,-0.6891650077992066,-0.7212220076180086,-0.7528221539752493,-0.7733018725055842,-0.7786151177775056,-0.763395042243702,-0.7217648359295878,-0.640839966713145,-0.49672519716686836,-0.26339669157574536,0.026314641336074175,0.2737665050819064,0.423478863178035,0.47949187491473494,0.4735927060656918,0.4335344310931298,0.3711570866470404,0.2817880419421567,0.16417086952789808,0.029556064077551673,-0.09660158242084851,-0.1863886959498315,-0.2287180641245317,-0.23096169989687645,-0.2014240234036325,-0.14119208426388666,-0.04372810372141076,0.08903759737422867,0.258435240574596,0.4414192542353821,0.593401171829397,0.6879683948444091,0.7313144123352318,0.7361200729355151,0.6954052154924093,0.5754811012331703,0.3194268141820285,-0.07938026451289339,-0.4613317868201183,-0.704536325168317,-0.8304723516692227,-0.8915151047946599,-0.9163641418020538,-0.9109312623954567,-0.8529971134597802,-0.6927089643842093,-0.42616680564952253,-0.1665887966685492,0.006237470129007251,0.10230807988586693,0.15771176046012259,0.1932622100431801,0.2189908662203366,0.23826116367236116,0.25414880169483045,0.26812013672765966,0.282315272245899,0.3001155177503488,0.3244177235004865,0.3546585742943769,0.3874905424529264,0.4182052499674865,0.4400136231258623,0.43137940541458414,0.36926879472956003,0.26441948683730365,0.160563454353528,0.09313407628462587,0.05710590498860614,0.027761829130263063,-0.010791483407783568,-0.05044983457025956,-0.0724060984809495,-0.06746701743501739,-0.037858027495669445,0.005103265182099632,0.04820668602918855,0.08327159698171285,0.10436698459094032,0.11322461117991683,0.11455006636460957,0.1154353617580734,0.12074807468019585,0.13612580066415558,0.16416342634371345,0.20796734126269487,0.25659446031366073,0.26637284537348305,0.22599923200510427,0.1888991390990657,0.17222885197589274,0.16516498918477795,0.16111333215077503,0.15758663834370804,0.15376575511671095,0.14017922588390785,0.09741790576984441,-0.0019043754781506146,-0.16634536878070816,-0.31999233793550824,-0.4079494674388802,-0.45605993954433494,-0.48705465660828146,-0.49265262888010464,-0.4616087490992394,-0.38324568182057,-0.2701865089256805,-0.1623679707126677,-0.0866714247605403,-0.02839495637119419,0.05315449986418869,0.1740620601696804,0.25020516292993555,0.3032678009797861,0.3501290537146625,0.3879371190112662,0.40978554901641134,0.4150079805650769,0.41027268695269486,0.4030797170803036,0.396580972142052,0.39084933645157793,0.38157292541504795,0.3692564729133423,0.3571166072989264,0.35168316110389447,0.354394807849059,0.3642007935064492,0.37776886266990917,0.38526986314134803,0.37317922985755136,0.3303883832440143,0.26108403054813634,0.1731264718812385,0.08385228249740692,-0.0030133933980992116,-0.09750326543514311,-0.19314859118439243,-0.27508392167182927,-0.3431273702458266,-0.40194513389123165,-0.43902753017674184,-0.41872665603735415,-0.36628559146410183,-0.3426350251085743,-0.3648482817463831,-0.41823728883172945,-0.49817791619966745,-0.5991670339207262,-0.6988639202309143,-0.7368705215083103,-0.6493328332317828,-0.48087244137605245,-0.33424204431859167,-0.241192064706445,-0.1909639459253448,-0.1655559076459169,-0.1545205525441659,-0.15292202651056452,-0.16319701516638307,-0.18630541927088753,-0.22730860686327534,-0.2916313405618444,-0.3753569251355666,-0.44327272782692445,-0.47315484433345756,-0.4726589074887027,-0.45613227726325284,-0.4285382521630239,-0.3975917749034812,-0.3815990445032355,-0.3932297511493269,-0.4348534857283726,-0.5006542125965533,-0.5787912487671963,-0.6535860104640654,-0.7152437118263522,-0.7627780912455195,-0.7963076093750686,-0.8195901856985657,-0.8300872937817892,-0.8263957567767414,-0.8032781506446389,-0.7539325793197307,-0.66369207968363,-0.5037403850464088,-0.2647637133272033,0.011140918475525504,0.26840916037434215,0.4738761720343074,0.6134188250773241,0.6921540701216788,0.7331099735453919,0.7520842636150059,0.7549280009950037,0.7432104513369024,0.7226513796983299,0.7003109610532108,0.6857340078372207,0.6830860479592212,0.6875673318151656,0.6880356703210484,0.67651883997661,0.6471909243335666,0.5989649219011124,0.5352572278243174,0.4484886324502543,0.33171943322011366,0.1820555691520939,0.014912155597626566,-0.12456504682495677,-0.204661684629961,-0.2354563527658508,-0.24194282210999205,-0.22988948071581894,-0.19838185737762043,-0.13671257258768665,-0.02403537054388742,0.15916536308062434,0.3873947700363475,0.5852033016636148,0.7045247186283992,0.7538845647196258,0.7538042297295934,0.7295805329758256,0.7016677467967734,0.6791572165450578,0.6646394692499976,0.6452966884662057,0.60428967320553,0.5384866297700116,0.4572801662921188,0.3732916092607332,0.29630324440988737,0.23277949778989535,0.18222965641391986,0.14249436131734508,0.1074617576531404,0.062418229751076984,0.0045819246253254965,-0.06243547195884144,-0.13365571089002792,-0.20635828915542356,-0.2718688862798471,-0.31067896598252104,-0.300886095918295,-0.2321510457520767,-0.112051211339216,0.04011738929023296,0.18985812083499246,0.2937528278175518,0.33839818615721134,0.33604240675884584,0.30671200861978604,0.26296301822024626,0.21549932415277406,0.15351930851818724,0.07105542451335205,-0.019910644540838747,-0.10964735928310117,-0.20162081204699708,-0.30398767247800496,-0.41655364850737026,-0.5312540848676186,-0.6246531367226744,-0.6876928334383429,-0.718179710039201,-0.7251877658144834,-0.7143920204579475,-0.6831443446435271,-0.6296500618117634,-0.5500066009956845,-0.4355122735081091,-0.27748443540614043,-0.08526394899548743,0.100090395924935,0.23504891575516995,0.31426859290343423,0.35228028521316324,0.34111722839144837,0.2575114726773602,0.06350663419764545,-0.2567501761371076,-0.5763796001213485,-0.7616769501850162,-0.8418858482854665,-0.8654859759575366,-0.8473245413367216,-0.765376776947251,-0.5280713029841995,-0.0323352242672994,0.4198908244742176,0.6294652421404552,0.7111195492019566,0.7383397839573697,0.7425636577223402,0.7375187767691196,0.735284031065094,0.7391942377299605,0.7469846543811667,0.7510731836406557,0.7442443285724977,0.7199013366218194,0.6755903504652124,0.6073840829480313,0.5129016575445506,0.4074003119334811,0.32390979641179074,0.2828082168470908,0.2902333215556222,0.3314161875016789,0.38516965169456263,0.4118622571407237,0.3816093261059382,0.2924990151069908,0.1907821311472164,0.1122777348249552,0.06104344241911046,0.031773926869969916,0.012116911104005012,-0.009318767725617752,-0.036651747845189285,-0.06623991038663458,-0.1006468391404406,-0.14709594102460796,-0.21405565780860578,-0.30217642980621784,-0.4016818597098152,-0.50170159058965,-0.593779455107594,-0.6744397776948249,-0.7354370190287942,-0.7737583570607598,-0.7898528130428157,-0.7842390333122696,-0.7541999338810932,-0.694028455861757,-0.5964030435098469,-0.45255282855262957,-0.2536145360473031,-0.020612841685799157,0.18431105771228412,0.3133122174870384,0.36997438602251903,0.3804323487068501,0.3667411126969077,0.34672715798098075,0.33762740280167713,0.3504476158114921,0.3921704147181126,0.4615638268956853,0.5398659989794802,0.5984974496909402,0.6211953948649163,0.6186585674583759,0.6062489610544565,0.5902594290162348,0.5711287986565174,0.5470536207238831,0.5183419049303102,0.4846230709217576,0.44397754485477325,0.39637959489435537,0.3434757790258738,0.28363317847329317,0.2119056436698133,0.12150390268509136,0.019774127897685366,-0.0889151977757096,-0.20543829592400922,-0.32809536811745027,-0.4387093389686961,-0.5115262022327473,-0.5411909260875237,-0.5408134021360773,-0.5318123655402376,-0.526585223203919,-0.5277525577746863,-0.5325988275209915,-0.5353868722514008,-0.5317388781779789,-0.5129886949852706,-0.4691796777410252,-0.38166358266252504,-0.2572311663540345,-0.1371785178172368,-0.04772104985760147,0.005395875555250899,0.02943200643597495,0.028455798704129388,0.004571478807839874,-0.02195383742658608,-0.038534552256282405,-0.05654194744561011,-0.0905276439169592,-0.14239510295758126,-0.20334905974875433,-0.2571394411669637,-0.2859840371625882,-0.28750481236663966,-0.27731611363722053,-0.2768808054352971,-0.28506252881388083,-0.28991810789405104,-0.2841628842741458,-0.2685150649948976,-0.2513966738202484,-0.23615447322010155,-0.22474304924823132,-0.2255302356162762,-0.2354090409805695,-0.23029587897608564,-0.1934417547316576,-0.12462159955819102,-0.041050593441572476,0.03234624530956016,0.07608053656622243,0.09210802246749933,0.09364569873883807,0.1013334881595944,0.12471986854247263,0.15222249180216327,0.1893073884770598,0.24892341462945977,0.32271578729632555,0.39741689817926923,0.45295783644662196,0.4644099625471571,0.39975310044879386,0.2613922467319526,0.09565373862979955,-0.052950067723360354,-0.18089205833132666,-0.27161368886047826,-0.29744361537538344,-0.24842955016212478,-0.14881127940483507,-0.06508853364552411,-0.05806257770221022,-0.12275794614770132,-0.19231591179429386,-0.21424758147438522,-0.16747073273623056,-0.0635257674213682,0.060219847818616945,0.15777920580211144,0.21307626034019417,0.24143324686453413,0.2629477535109445,0.28226361695606705,0.29561691141006585,0.2943548207572911,0.2752596671199204,0.2462251161705214,0.2131723943827762,0.1749855008207493,0.12738448952274126,0.07299789102298145,0.022339902292766733,-0.005318978182567543,0.016877250563490456,0.11962033180787265,0.2923464839765861,0.4020466870425113,0.39987455941134153,0.3585769739964666,0.30673881581075263,0.2513256196515872,0.19647605950256739,0.1415370244819017,0.08809102411508483,0.04298120147704671,0.01099250213401905,-0.00721336234503648,-0.011868797880782184,-0.006596546790246275,0.00401749684717239,0.018120726314202844,0.042043490008307434,0.09164046265968732,0.17693264281117174,0.2487737516422969,0.2685252473653966,0.25879028365361306,0.23273684693476743,0.1988643899746179,0.16417040353280632,0.1341458250187373,0.1016811641503734,0.06677640764267027,0.026600411449201077,-0.023255365743918215,-0.08624739313658558,-0.15588280297816254,-0.228280727966617,-0.2987916607865417,-0.36660415870028845,-0.42607471777322103,-0.4757487845995731,-0.528487773251922,-0.594302686302707,-0.6670686213913126,-0.7243304475568876,-0.7381447845036087,-0.6781227077698969,-0.5123259724001674,-0.2712111925453218,-0.04970109848472813,0.10835679663802437,0.2248038901334621,0.3295024568382024,0.4349302544665723,0.5375454588141021,0.6202479731605848,0.6773679272002598,0.7043112741955674,0.7116074720447524,0.7099784350193685,0.705836994628865,0.6998895461072264,0.6848164129910081,0.6598306758004121,0.618155842771765,0.5622435329891069,0.49912762330783716,0.43828785113800595,0.3812455734792744,0.326858773469986,0.27841423196614257,0.23675654360847723,0.19921830434982332,0.16264214991806095,0.12932480918413491,0.09833424478877614,0.06219066743927336,-0.01194657304024672,-0.07038135357955555,-0.08608462780766447,-0.0954938269724862,-0.11197361422369026,-0.13897061859331036,-0.17933563416720208,-0.23664339195257764,-0.3200758107246466,-0.45273597311582775,-0.6663818904665035,-0.8304181635082607,-0.669370175015303,-0.507558522682248,-0.43810645537790677,-0.4208578684973901,-0.43172554735863183,-0.46000216276032635,-0.5042158027743278,-0.5790499489944708,-0.7007767669603451,-0.8322040901906939,-0.7678057454238975,-0.5448707895214907,-0.3762127941830429,-0.2720246479324864,-0.20152778618623238,-0.143873038883379,-0.09041281974609885,-0.04320331595819502,-0.008122567169576529,0.014937540937276486,0.0302586272187691,0.04231437657942118,0.055957167731439765,0.07567619000927622,0.10829569547727146,0.16464947394735982,0.2595290346998046,0.4050210528589195,0.5376175456912745,0.514487235362512,0.3990766850890847,0.3004675469407188,0.23368981970294408,0.18936059327774374,0.1598937020821245,0.13911920995858928,0.12447043296649961,0.11335636691643847,0.10156166909400957,0.08761922815454755,0.07614751612110894,0.07151217997720186,0.07207664225977067,0.07787244978247826,0.09209459798998566,0.12311622760342633,0.1758670244530923,0.2450615358441029,0.3231163757835533,0.4054664513949337,0.4864890365738718,0.5599196596324805,0.6223117872341732,0.6742585512219512,0.7062112698876277,0.7024879569920685,0.6346058162951873,0.4170247972999479,-0.08236238472972383,-0.58622955288668,-0.8027530492761003,-0.8774071571442501,-0.8998881605316215,-0.894217380812007,-0.8529138852674842,-0.7287439187576789,-0.434176022383267,-0.040415623246040006,0.21788417258560858,0.335937905951361,0.39210463612072965,0.422229251683906,0.43147557240891915,0.4133028218751156,0.3642263987056645,0.2874596212061019,0.194493165396728,0.10280251206423437,0.041368903129174246,0.006887712031455809,-0.026660626470088173,-0.07605840338024947,-0.13295336592637202,-0.17669870414900202,-0.2011011791732335,-0.20635957683589667,-0.1963680201408017,-0.1867973178850066,-0.19403432077314536,-0.22518829775485624,-0.2833020305979048,-0.34461716990515334,-0.38346008900138734,-0.3940667189550419,-0.38788774173572416,-0.38010107805902527,-0.3717519854777567,-0.3474933282721897,-0.29462332629239835,-0.2285634790753354,-0.16891880719847235,-0.12378463641745642,-0.08888278052728928,-0.059655927610249584,-0.02899465681291358,0.003018864856948666,0.03348863204469919,0.05961547367125126,0.08001790036654868,0.09066124641579644,0.1010517393953969,0.12095978629402308,0.15050996886875356,0.1847423292353918,0.20554710621173108,0.21135857039567857,0.21077222958638214,0.21910832942027747,0.24897211662152466,0.30093038208399886,0.35911029715323,0.41102938821653695,0.45059275105240104,0.4775822625339898,0.49213478340603084,0.49081218368680946,0.475699885075465,0.44526243111121094,0.4008503575587218,0.34945786949165364,0.3012824288439761,0.26459930297406303,0.24325955560646942,0.2402465780389884,0.25277784214239024,0.2883400984746728,0.3554606398848024,0.44947193861983226,0.5505458016972613,0.6382554979566868,0.6959567361615866,0.722044976146264,0.7255981282043468,0.7155452472660137,0.6947146322123564,0.6650964034719434,0.6302255281969257,0.5859080825133443,0.5245081524500848,0.43995777319685303,0.33113783003901887,0.20259523312425531,0.06287651167375266,-0.09386531076504925,-0.2801885497517694,-0.4793673131485834,-0.6532638376718118,-0.7644696738870707,-0.8268080379797494,-0.8595485831928263,-0.8794409974012064,-0.8932154012590761,-0.9039983965735862,-0.9123485877265,-0.91859317085135,-0.9241125160482365,-0.9290000709359916,-0.9292113513737469,-0.9206745465086225,-0.9014036572354399,-0.8690801291892076,-0.8169268156480105,-0.7406630352813319,-0.6466124736219199,-0.5649711587863672,-0.5353783163264768,-0.5697582639040488,-0.6371113157498679,-0.6978187261766674,-0.7350235789615781,-0.7428718241343787,-0.7159927145432965,-0.6450326839333304,-0.519884483674725,-0.3353088580298851,-0.11177764259881448,0.09501308250546402,0.24113076981802198,0.32223283674705727,0.36094165989370375,0.3834540870087256,0.40128380939162855,0.4236582942665537,0.453146832509854,0.4933812153227394,0.5434706706491321,0.5937007243160481,0.637393742345711,0.682702780902067,0.7403008401882895,0.8064183399283498,0.8621440926504519,0.8946677586307907,0.9050839650867389,0.9033026672121813,0.8983781716865186,0.894498340089866,0.8915941283834415,0.8883699830851607,0.8828701372645458,0.8731779134215902,0.8599903453262201,0.8426031550600801,0.8223804149113899,0.8025461185828556,0.7831627510310615,0.7651731999150574,0.7490932670400366,0.7308619150710465,0.7067262191543674,0.6758396923457854,0.6404339212390822,0.5949621031697697,0.5336382147158991,0.4582507224161187,0.3789747018558261,0.31093104503739355,0.2663950677656536,0.24723401194637057,0.24347712126791798,0.25208518182798134,0.2691815492551018,0.29292851497690237,0.32141227922732657,0.37182024518629425,0.44216599169677623,0.5099639058940743,0.5356455287423677,0.5111546170955295,0.4556835782667102,0.3845645098584699,0.2864713613014757,0.14381083228234778,-0.07064528378558005,-0.3362143054085543,-0.5779658415966455,-0.7403131030731684,-0.8271668484628695,-0.8647461173313139,-0.8766778492773701,-0.8694276085798105,-0.8467958081543759,-0.8161739403196924,-0.7862311573501065,-0.7623163085479763,-0.7424116524483271,-0.7142159630769127,-0.6699231903771414,-0.6170890402160853,-0.5742399388677956,-0.5486006188609112,-0.5307534759148487,-0.5095905803422828,-0.4801061529195121,-0.43673480838231216,-0.3901988061221856,-0.358906847669375,-0.3512732787419694,-0.35376614012796664,-0.35141999994493456,-0.3376108103386858,-0.3282958958348116,-0.3332820758045423,-0.3479776352832559,-0.36027943552239583,-0.3650074764352633,-0.36448102168455393,-0.3628723976006503,-0.361022123557914,-0.36102797752066995,-0.363615672582484,-0.3725054801034467,-0.37623631047008427,-0.3579565674247301,-0.3234379816667053,-0.29708209427724186,-0.2832847424941076,-0.2676503789616298,-0.216692888104207,-0.1026404986848488,0.0901306689384021,0.32772676779683046,0.5289131914451726,0.6394951993054127,0.6786090565224052,0.6744390510254565,0.6514208354193883,0.6221978442531532,0.5953936695181113,0.575144610972331,0.5611944750093162,0.5488189703951571,0.5355228986016102,0.5211569745389769,0.504622349974174,0.48965742337381324,0.4739632275238694,0.45567097203210427,0.4334977791079774,0.39732689700152585,0.33040079440715653,0.22776973932511488,0.11982384630756272,0.03441822880384058,-0.025017287615677068,-0.06244748556818001,-0.09150235916567494,-0.12181745179071539,-0.15473665591860086,-0.18608907323343984,-0.21643781740022264,-0.25058111742474015,-0.2935383813735184,-0.3587093736576452,-0.4667572276362167,-0.583018863542426,-0.508237111784536,-0.3706012200308915,-0.27741334113212646,-0.21432585378033528,-0.17004193784875266,-0.13952945812653736,-0.11075735250436058,-0.0726166273863309,-0.013579383063807413,0.07631934442616066,0.14484604109598898,0.1746685094127028,0.19609241207817635,0.21738634067335866,0.24231725619404912,0.2816432833680636,0.3460886610512358,0.4376493575999123,0.5325569279603501,0.5946425312022974,0.6146717453180544,0.5974416268654372,0.5485183752694439,0.4731215721001805,0.3892993321604251,0.320988347566405,0.274741840729435,0.24107378927538714,0.20226766826858567,0.15656564670299714,0.11412925002078066,0.09324685694748837,0.11332665341499162,0.1697638482115515,0.2381287542520526,0.29007811492102287,0.29949478855225975,0.2324390019987227,0.04354771168923381,-0.2662730513866092,-0.5774185371484528,-0.7765257970896576,-0.876971888407242,-0.9229859860671499,-0.9423214124901748,-0.9471311655118498,-0.9407465328671534,-0.9191534194538149,-0.8661268696073146,-0.7394178193339631,-0.4722647747920696,-0.08424138136651803,0.23813382424105525,0.4319370093057917,0.5375214221920084,0.5945704731187355,0.6244028939818426,0.638484218775478,0.6416773604083331,0.6367828985268059,0.6228732572476763,0.5983777913863989,0.5606602239983971,0.5154740001994362,0.46931990000105267,0.4231186978950678,0.3743136444759932,0.310490157083568,0.2363956592618253,0.1647656744895083,0.10276412218545758,0.058382480393236555,0.03746689560563846,0.04593912690040985,0.08466146194161285,0.14927909694504937,0.22402599257849734,0.2746409437851566,0.2712316213667613,0.18938322214408507,0.03357403033472524,-0.17214495658146153,-0.37023145267018076,-0.5237689175800722,-0.6274258847553429,-0.691696411942912,-0.7152671787734197,-0.695481432624333,-0.6253127840943454,-0.5007547273421404,-0.33721618761603006,-0.16904081159399617,-0.02102980576192302,0.10697581573771438,0.21592904244026037,0.30075230936357167,0.3588282517237665,0.39891732845797623,0.42982088653766864,0.45876624762668117,0.48876068268485107,0.5221910190260105,0.5580831261647857,0.5880594734163622,0.6024995843587938,0.6004072644995738,0.5904909633681181,0.5862347808821555,0.5900615081957409,0.5900473829161291,0.5769090645818024,0.5495233999771838,0.5131724062223799,0.4804676390761664,0.46083801275000363,0.4569183068962816,0.4620243846248606,0.4659279984185457,0.45486285339180604,0.42314318307922627,0.3809253468646207,0.3395952694787335,0.30405919661238806,0.2742726420620281,0.24785093021390397,0.23228380394247214,0.22538261649168356,0.2177000188943394,0.20279735012276612,0.1864192661680437,0.17624869216879555,0.18190643353507413,0.19648619516589874,0.20377628844333173,0.18650509929462883,0.14404827636118483,0.09288070390841989,0.047348708320557736,0.011967067338661335,-0.016587604099652258,-0.03997996235549133,-0.06496258409548723,-0.11198832392273766,-0.19501568295237295,-0.21544844810650549,-0.17560457522908282,-0.14330365949129453,-0.12268674927724638,-0.11146652463980061,-0.10917989788481045,-0.11412396751412808,-0.12593362386532286,-0.14782159778444867,-0.18503564653675916,-0.2427804478976821,-0.32588608206118663,-0.43985333976765584,-0.5720286269295802,-0.6790327009926217,-0.7154084348130287,-0.675356823826968,-0.5910225059742718,-0.49906438511782625,-0.4145539469975197,-0.3431928925297492,-0.28752356486924074,-0.23909284026290073,-0.1884867833499002,-0.12882509686378085,-0.06292526752980629,-0.000526263122354901,0.04934826207116639,0.08177240910177717,0.10020646681812126,0.10868427398594407,0.10846876397549014,0.09551401948158292,0.07044100731512924,0.037487972741820946,-0.003252492700760581,-0.05275127774503826,-0.10856628024885594,-0.16121165268099735,-0.1947555687950099,-0.19426442197131322,-0.162521485886183,-0.10861833041612723,-0.044320649595319644,0.01734742723174108,0.06346937730648884,0.0884323168398864,0.0957390784079085,0.09332944344309958,0.07315098721284734,0.02425478863671359,-0.06996965049051349,-0.21008580534513555,-0.3681883419942823,-0.500166864882988,-0.5884478114063343,-0.6433966395875186,-0.6692221512797165,-0.6668784459027463,-0.6360507024082475,-0.5819487867522396,-0.5121587559982917,-0.43248547206403654,-0.33527376443098666,-0.20320762751231708,-0.030359762490220373,0.1653501054636471,0.3500671076508358,0.4941306899955196,0.5900556846017547,0.6481750467195436,0.6796280118496472,0.6972280900678853,0.7151991579919565,0.7389640312075239,0.7666567732691127,0.7892128656297914,0.7981061205763712,0.7943459630051002,0.7873506978770394,0.7781339343277021,0.7701370319297427,0.7677868643068582,0.7771349682140346,0.7997427616446591,0.8240421011560076,0.8320306014146996,0.8066929332131275,0.7412407742856545,0.6393507260646999,0.4923139788493782,0.256350482236556,-0.13795651006888462,-0.5599564079843908,-0.7778095134611887,-0.8430728206443346,-0.8554159006379755,-0.860905190909339,-0.8712818303711829,-0.885848588644133,-0.9013999889273315,-0.9156329264918552,-0.9270714960202356,-0.9354161659654721,-0.939797339397968,-0.93910899588875,-0.9310990743475129,-0.912102088591554,-0.872162377799321,-0.7837708748730442,-0.5576212330967417,-0.06887451895191729,0.4148487053815356,0.6466555717141691,0.7376252093087491,0.7656916591984102,0.7623472463711091,0.7452738343304692,0.7270378509946983,0.713826272028344,0.7091387756798608,0.7125051808024249,0.7216170078633108,0.7360887751958028,0.7521027475719205,0.7641723810783253,0.7720837375017384,0.7791609112799505,0.7866732004135149,0.7920748499565333,0.7948306431956209,0.7995755783608235,0.8089371906768732,0.8200382625179303,0.8264598728196928,0.8223823285198308,0.8058925281344621,0.781607524614426,0.7541488620016535,0.7272386518789798,0.6989705751977521,0.6697941502289031,0.6432028132531841,0.6199402474877994,0.596387534043007,0.5627129516570777,0.5077076344230956,0.44551012804227647,0.4077184058627136,0.4069847574975338,0.411904777889976,0.3707554133830228,0.3141521206588262,0.2736730784551885,0.24549959177317823,0.22272955584090656,0.20131843139291553,0.1763582411020266,0.13937586569148622,0.08218807523838655,0.012091929682279345,-0.05436818729136018,-0.10786802793482327,-0.15023156546881822,-0.18987777796173916,-0.23166690306940219,-0.257921272458763,-0.24786921357698913,-0.18378163641144382,-0.07967542809619198,0.015808096645797735,0.08853250369110345,0.13993027934278107,0.16121009704246944,0.13347930836105257,0.06435043970547828,-0.027705929355149147,-0.14126478329312042,-0.27832373518468373,-0.4176270710552704,-0.5260892322834442,-0.593540365432661,-0.631867398058593,-0.6569249373215785,-0.6753078858898318,-0.690374333510569,-0.7010517697249895,-0.7006017916892362,-0.6787150657399965,-0.6192145593015601,-0.5052370405587214,-0.3446637330024093,-0.17577373685839523,-0.04942791000722,0.00015610222226632354,-0.042105100219004744,-0.18955608492825954,-0.4174228198429442,-0.6461572693584452,-0.8005173428491962,-0.8785069635712833,-0.9115014361798784,-0.9218646283616497,-0.9161332787130861,-0.889832572264406,-0.8302831314374622,-0.7304422540814828,-0.6083141460972995,-0.490357804616868,-0.38760247007811083,-0.29989213699603173,-0.22117405872926904,-0.13536364962551695,-0.027971863285524933,0.1087373805363485,0.2761460316630373,0.46572995473067785,0.6536263634246892,0.7407400394264574,0.6485313329879813,0.5047183293049843,0.39997265883804767,0.3370055458153291,0.30283210772841546,0.28462746855773413,0.27716357300732375,0.279312440838114,0.2894919631141945,0.305620420920962,0.32295887028626247,0.340534686360063,0.3597307001819863,0.38216344087323223,0.408098992252266,0.43908370939480357,0.4764805560493096,0.5067713136210066,0.519254503403762,0.5149331738726073,0.4960328835759806,0.46971945024979167,0.43888613718728187,0.410003721072816,0.381331852835111,0.34820292064550795,0.314841873703399,0.28517888730837465,0.2629249843159213,0.2502562332985424,0.24287350848508293,0.2362255963439057,0.2314180961388824,0.22462603795954872,0.20573390506718528,0.16668445868805098,0.11075270700532412,0.04790554802738987,-0.015617107723827255,-0.06833601817000128,-0.1006012780543667,-0.1143468262543252,-0.12037219951965282,-0.12102354707593181,-0.11523525856109289,-0.10641233580789464,-0.09748972161445674,-0.09062661387018899,-0.09023543213957959,-0.09306400547029303,-0.09831213633001085,-0.10684468805094113,-0.1287294187780824,-0.1656773391790903,-0.21061965753983494,-0.25002767715034335,-0.26961366720508945,-0.27279184435088527,-0.2649164781888109,-0.24740883186609516,-0.21903827069020776,-0.1862919223562019,-0.15167924728644655,-0.11412302180108196,-0.0762520237432029,-0.04220782023221017,-0.01332137568355568,0.007763450075226769,0.02960851722028898,0.08829330792634722,0.1776591033948205,0.2736867302583938,0.3561531667992243,0.42630584603387417,0.4808972820172928,0.5196593149705376,0.5455069748772854,0.5595763396364657,0.5563037878844032,0.5375299097754009,0.5109072289015993,0.4896963382309061,0.4736433541766527,0.4615468229914897,0.4642410698221909,0.48368536998483064,0.5071621179449942,0.525427970684621,0.5297836600908402,0.5132817549195776,0.4718688869307021,0.4094062124842729,0.32133133603302716,0.2195366475398467,0.11392895731274767,0.004945174023300371,-0.11704686267202798,-0.2585445631076525,-0.4006796436291636,-0.5159560089390971,-0.5896347060852073,-0.6319435338965983,-0.6648236772379386,-0.7031677088812198,-0.749856322802816,-0.7950747328176075,-0.8238314319384828,-0.8274601790896539,-0.8120483629039871,-0.7855397114323229,-0.7531677549609571,-0.71750220450939,-0.6740989351750524,-0.6224110563694748,-0.559993593463468,-0.4862318764435038,-0.40632619932942327,-0.33524279599356893,-0.2798544407172381,-0.24976900070230712,-0.2631582282083174,-0.3206058942995218,-0.4027544155922049,-0.4922088840371311,-0.5704203537777384,-0.6301717564213897,-0.6661777388483368,-0.6801571579050574,-0.6751235266680019,-0.6529791157191651,-0.6130123877791748,-0.545481518294241,-0.4405169479345094,-0.30429082190903955,-0.15517765500753444,-0.003881940689481018,0.12380537452916338,0.21202062753502157,0.263450102415918,0.2882357066813802,0.30276334802206867,0.3202300127328092,0.35646748170704284,0.4091725106623058,0.46545865518442153,0.5085839760533326,0.5289037175989625,0.5247054328553403,0.5063648107867719,0.4877008974294981,0.49163846509423836,0.5241435577886958,0.5550237968226184,0.5605523567122468,0.5380956228516209,0.49699975046737155,0.4557069137751345,0.4340300829574304,0.4379760095145005,0.46535364928630424,0.5036665708388521,0.5377971936163228,0.5525788602742454,0.5449773787967418,0.5246045571128797,0.5023927921590768,0.48284576817843755,0.46962638495371634,0.4692867345334391,0.4825247806251887,0.49753747873883125,0.5012091682835054,0.48542266025333264,0.45259068047443135,0.41067117917915386,0.36542984226251585,0.32081899504310457,0.27923799080337586,0.24089549951264577,0.20640883266886753,0.17760633969317158,0.15876054311808502,0.1523257206331411,0.15060640925475688,0.14147270184685645,0.11532126963118768,0.0754844897639862,0.030628335482479258,-0.009161141489503161,-0.043179283478443665,-0.07583120652319485,-0.10537482128317101,-0.13496042729938834,-0.16908355124758132,-0.2089502544433313,-0.25357399199558,-0.29329434989314485,-0.320135275040642,-0.3343329377005157,-0.344265175057521,-0.3599089815548843,-0.38293204676180603,-0.40567739628187915,-0.4268036617910787,-0.43763941262838224,-0.43265934467119627,-0.41567729036754536,-0.3928613415692345,-0.3721314808721497,-0.3566911255794689,-0.3485371357284633,-0.34393289787417014,-0.33172309983785,-0.3146705368066225,-0.2933989155959286,-0.2669289781161054,-0.22244018111313435,-0.15636635229818058,-0.06760968906422288,0.041804404473119554,0.15880184201501674,0.25946297258745604,0.32464161359825544,0.34960081015370364,0.3433057170469516,0.3137855082897053,0.2630391601010346,0.19191713602974353,0.10614529217443659,0.018232637274045106,-0.06234147161591923,-0.13468590794465982,-0.20608165776171217,-0.2922780488598087,-0.3917215823409525,-0.4923338650636634,-0.5795747291075009,-0.6431174780510068,-0.68528583009833,-0.7116780309074434,-0.7264222744234842,-0.7306189772848717,-0.7167921945232728,-0.669684339960513,-0.5623450106513085,-0.36394153951926833,-0.07567046284719925,0.21197618208443852,0.4121966424275362,0.5233332167625232,0.5700548936678433,0.5748615183445634,0.5611742340501928,0.5377869940259696,0.5038237437096641,0.45492757036107284,0.38575535720188536,0.28805065849033984,0.16014058298813505,0.024807819591002474,-0.07723125659150645,-0.1041679640274947,-0.04254655425117358,0.09587030570558297,0.24916300798422386,0.3687951361243554,0.4465653137396242,0.48936014190922067,0.5122211597561703,0.5197138420861346,0.5116523337423277,0.47557722766662214,0.39418053140221504,0.26708745994994754,0.13031136478038,0.03291468993213558,-0.00702789804447714,0.0014706955380883496,0.04693355795963166,0.12362804938322922,0.2450626594300092,0.3900733779482467,0.5176645605848949,0.607813127478404,0.6539949003735887,0.6601484893957563,0.6193418763662861,0.5021675700158134,0.23609519806056736,-0.23236645582884524,-0.6504603761515761,-0.8401863291297005,-0.9111069965936187,-0.9391199543257293,-0.9497035038883319,-0.9510153714218071,-0.943676267101644,-0.9238546230275467,-0.8838419814287722,-0.8196298692226666,-0.7433530270248241,-0.6694271310467501,-0.5821541401544883,-0.4368542191902089,-0.1854012416750676,0.16343120901780445,0.4721695331367933,0.6519721670140933,0.7414251316718199,0.7904385514546279,0.8265287914296084,0.8546969433282039,0.8653610568652941,0.8556106658562345,0.8351440982668448,0.816691094614698,0.8036980577352262,0.7932993627367048,0.7805214739821043,0.7641822427832935,0.7460260762108555,0.7237880040985731,0.6960839523851148,0.6684569272931412,0.64812924929961,0.6317357494170918,0.6175250464783678,0.6019936152047551,0.5854023797474718,0.5668854951776701,0.5464769710216487,0.5312096688009612,0.5230397450221017,0.5159762875663724,0.5016086987072922,0.47087099596572374,0.4249375894225449,0.37783669648441387,0.34305285377166567,0.32801908364388893,0.3203761114740566,0.304267655034969,0.26725961438450413,0.21254417366711056,0.14454970775192522,0.08252353089691017,0.037630305317944375,0.005785112874413317,-0.02412195251190013,-0.06385745601536684,-0.1216638826607077,-0.21738559031141066,-0.35635213769389334,-0.4993560601631595,-0.5901643638823109,-0.6159743637835152,-0.6029693438790036,-0.5791890381322914,-0.5618053300839508,-0.5596808486861293,-0.5764623113258838,-0.6034254616327439,-0.621270544303855,-0.6219036147101152,-0.6014868124120868,-0.5661539861300035,-0.5239933702240079,-0.47890791031930013,-0.43572358548118467,-0.38877731136055105,-0.34003182904515666,-0.29173273500390373,-0.24453961519063833,-0.19732948972696668,-0.15439207136782457,-0.12158932170563799,-0.10219721007042222,-0.09263377449414535,-0.08343874774668769,-0.06351025479977736,-0.022943794237329965,0.028694782144386137,0.055814211250359916,0.04096198015912303,0.015392956847284724,0.0003369979994397753,-0.009014912590182559,-0.015032476588759296,-0.016413802613365273,-0.014301402204042184,-0.01080381897962626,-0.004808486877381095,-0.0062877493224670076,-0.031207294217099887,-0.07552919145442123,-0.10773868968235775,-0.11335918731300024,-0.10460676913521855,-0.09322933733567232,-0.08596652557205188,-0.0837636834656746,-0.09351056914941579,-0.11396962548275459,-0.1324406013783531,-0.13466455857182344,-0.12102180592784514,-0.10698651460608878,-0.10564713800127054,-0.11730473410940076,-0.12065758607880554,-0.10262239032217697,-0.06065264334239741,-0.001897212041254007,0.06067230700250142,0.12054533810253483,0.17393266893274612,0.22142599124452209,0.26249423273648936,0.29564424248403937,0.31792560335199893,0.3233869462579081,0.29816427012881236,0.22969184058323389,0.1581007550403609,0.11173580573492546,0.08760610131729263,0.07965350365184619,0.07702121338598002,0.07058339487884605,0.0585013791677901,0.04449422044303581,0.030618191905013196,0.01654748568723829,0.005252635989627989,0.000618621436386337,0.024482879833979808,0.08252159984806778,0.10405498729482351,0.1165083847671435,0.11854521593880621,0.10739668308486401,0.08558683365606139,0.054175560087230464,0.014507770231308148,-0.03297724128089502,-0.08636913418826511,-0.13149730563161854,-0.14664981067970398,-0.13596109648351526,-0.1160359998247211,-0.09557803397012304,-0.079516857941281,-0.06992512651826784,-0.06873613110030702,-0.07787721676870533,-0.09575874507322779,-0.11856522144011987,-0.13851600643292994,-0.13442600379267428,-0.11456429191870486,-0.10881958347655671,-0.12525813568068364,-0.15889541685512715,-0.19538175231840726,-0.2245351493798494,-0.24498419674099528,-0.263088172204813,-0.27783883004780163,-0.285426099582396,-0.2798444464426425,-0.26051686718277,-0.2208009716821187,-0.15128952007380847,-0.051047846566686955,0.06871793262780808,0.18143748321116546,0.26430604459261503,0.31707910867655664,0.3532319975989554,0.3790589823729383,0.3893315467387567,0.3803455328358573,0.3406267018801572,0.26424913455407345,0.17077594183359654,0.0840932622167936,0.0018122162539757334,-0.08110736921007683,-0.15464399171934254,-0.21152134250966356,-0.2515132079877206,-0.2784729393344098,-0.29619700489962536,-0.30413186557385463,-0.29245236499778604,-0.24318561010614806,-0.1450694112352586,-0.019963810552970186,0.09311671441801765,0.1748485240160756,0.22032035656255974,0.2368050509169427,0.2367451359580388,0.22620914849131937,0.21052169593893028,0.1953231947571604,0.1816267322873424,0.1700776441004927,0.160428606976534,0.15101645342590822,0.14065426182768118,0.1334980162629689,0.1329541369484746,0.13765893578350175,0.14170972190699688,0.1424184462933651,0.14320746393391234,0.14498625506440618,0.14959588210563632,0.156464295729594,0.16349002327756057,0.1667434582623808,0.151973587991863,0.11442557635384006,0.08252920871127949,0.07202582225452514,0.07510647841852854,0.08556906166301838,0.0999923893487523,0.11944370655791202,0.1482515531121621,0.18258186938270768,0.21306550200151833,0.23515657259884096,0.2429889631362848,0.2358943435747694,0.22095696023141626,0.21536146200233733,0.23038542453683036,0.2690969768749007,0.3331846951606207,0.4117339458638288,0.48865477728880896,0.5508124312738766,0.593734361862746,0.618537157242034,0.6366948008816972,0.6561108054417856,0.6780734696707127,0.6951789785789604,0.7007893844212387,0.6896894382327321,0.6622899794398566,0.6171850112509002,0.545092244824109,0.4366007316172337,0.29660646865137363,0.1393628594354292,-0.03788881857038569,-0.2375187817601574,-0.4409694993565176,-0.6087717650525504,-0.7143023935789635,-0.7734628013773871,-0.8040153248298121,-0.813548606207253,-0.809110008991634,-0.799909133010667,-0.7927989876079325,-0.7866801575324511,-0.775008146573921,-0.7508547084765521,-0.7046720141838693,-0.6338807686718784,-0.5449730193240381,-0.4625487508535893,-0.4160174140491815,-0.42953048780660485,-0.5012169389994882,-0.6030562976031669,-0.7001562329560719,-0.76715772542285,-0.7993431485395255,-0.7990315685451336,-0.7678683617112602,-0.7046623164838556,-0.6040620811226499,-0.4502899550105869,-0.25659110209936214,-0.0807139988706602,0.03813365735665865,0.09988229455542694,0.12305309584016723,0.12304678917648804,0.1124322683360407,0.10049978745591819,0.09539523045031248,0.09683942150544346,0.09942264436628925,0.10190262532825071,0.1107412249876546,0.11629283162115142,0.1128132032301219,0.1001091941594961,0.07843056930457813,0.058537561727633365,0.05023629856668777,0.06603987259454135,0.09598939700512552,0.12640244806401504,0.15109370026627444,0.16640599019127372,0.1685047744424203,0.15556274214547008,0.13759734290900527,0.12874747211223467,0.13543841058229122,0.15641228433169624,0.18500572408842209,0.20869274745342267,0.23332997317791893,0.27226315128932904,0.3374639782015414,0.42041960958272645,0.5033705627428354,0.5722535222394775,0.6121303809691157,0.6168172510837099,0.5858566080681461,0.5461369823909091,0.5226965891149844,0.5199390441171644,0.5177827879322283,0.5073897745016553,0.48308359916504934,0.4503817486049873,0.4221233868608323,0.40459286556469537,0.3945820612078926,0.38152419349324224,0.36520678779477983,0.340104910884448,0.300656386945301,0.25425221348799815,0.21074736856365753,0.17720360440837257,0.1513985610457536,0.1264159445025789,0.10516622194114243,0.08713894829263844,0.07248936794966045,0.0628533476296218,0.05711038819471335,0.056302307340219196,0.06315321930367127,0.07921063282930445,0.10565620431025065,0.1373696604198261,0.14835789863792595,0.1268599405688086,0.07718513207971509,0.01880302210826702,-0.02568017837395551,-0.04491548816322113,-0.05067993111762753,-0.050985814939689865,-0.052422965095781565,-0.05940090624993376,-0.06948883434505781,-0.08683669316257059,-0.12705504805065412,-0.196314324198645,-0.2871755888509767,-0.3675098811901293,-0.4137269852605046,-0.41872179431546375,-0.39704493118782513,-0.3713723594117728,-0.370162298354495,-0.38968013473887925,-0.4080148296132666,-0.4039318633540577,-0.3766652508969217,-0.3445865462896151,-0.32450360586715693,-0.3208681479288554,-0.32897270742148205,-0.33819267703760586,-0.3408238856284289,-0.33156449970566665,-0.312781740635775,-0.2954938107141897,-0.2853478207138168,-0.28286541306482654,-0.2748603338510558,-0.24719085243925298,-0.2002368832573295,-0.1477878792070913,-0.10012031865826601,-0.06782781930036265,-0.05627596738715859,-0.05267428674983833,-0.04753786180965463,-0.03586276006132614,-0.022553865694486204,-0.012063981566977286,-0.0036458518178445506,0.009535515609851107,0.04600559578420272,0.10849631778108801,0.18668538215140631,0.26595629758841993,0.33715816870749704,0.4029609436996751,0.470249768074802,0.5308040710440926,0.5860812073579341,0.6309397880477309,0.6611100295264275,0.6676355376294212,0.6529891517961178,0.631479402373218,0.6052483956782309,0.5736132315578089,0.5305391089756993,0.47933701128863193,0.43591743028035457,0.4110405064188282,0.386246133565907,0.3287521507452684,0.24951756569070913,0.1741672220943604,0.1184108287588725,0.0824197048830359,0.05798007745504171,0.033583511612190545,-0.0005873646149661052,-0.04906070336359723,-0.11047265444583487,-0.18667582157815582,-0.29400733937129986,-0.4550900969756822,-0.590419516021915,-0.5131807474563033,-0.378646794467963,-0.2834041030510513,-0.2185170993082826,-0.17110920638005936,-0.13096668196082598,-0.09426653824465009,-0.059251013690974665,-0.02652184932448702,0.0014570106968593037,0.023793121462194054,0.04313869252666895,0.052959069344617166,0.05136558409358038,0.03937492350280716,0.02172077483788432,0.0017168905634026785,-0.025121715820943916,-0.06777028543273834,-0.13547449948346207,-0.23062637617990311,-0.3399417032089472,-0.442837364225163,-0.5249009240176049,-0.5824120093922671,-0.5977537622953314,-0.5293366142571535,-0.4002993360359541,-0.29297347089016224,-0.22833633283770208,-0.19088094232458655,-0.16141916228518097,-0.1300021356358844,-0.09439411762017369,-0.05455467392667796,-0.0076874667041054515,0.048013806575196966,0.10760470443023548,0.16348030335437733,0.21297365984194705,0.2616617606325703,0.31165694946013717,0.3584476410892948,0.3891877040744282,0.39124813538357045,0.36343585643591386,0.3137328138215303,0.26418034201436824,0.2423368616087068,0.26110404055727027,0.3099602714258646,0.3645494747581904,0.40613458350173126,0.42333922482020553,0.41706943059086166,0.39898997535498987,0.3848290704884447,0.38627830215301406,0.4070897699387633,0.45954410607094326,0.5427775642496058,0.6268887848698378,0.6868785820416411,0.7167146261754986,0.7148997588781228,0.6726711619991501,0.5529755897932505,0.27987978001533614,-0.19096327984851286,-0.6308483184097836,-0.8427956269618336,-0.9199622725234731,-0.9481340714851355,-0.9563839853944927,-0.9535837514457294,-0.9414009065326479,-0.9156871133336023,-0.8591247404156138,-0.7161046501467809,-0.3746274432826206,0.13966408207826592,0.5065897785543215,0.6794118916757381,0.7587067198654767,0.7962481564329602,0.8118471130084325,0.8107902347556177,0.7870209820053736,0.7236768874756567,0.6058864376718208,0.45634989081776245,0.3101966743265305,0.18838157114884216,0.10349816656740926,0.05148367347623087,0.03162694803998329,0.04736756687599134,0.09684343401219954,0.15728314145686728,0.21319137970723917,0.2559017608941589,0.2765327173221263,0.28351767034633407,0.2909101031234361,0.30082242649854085,0.29866371826493776,0.28266702473853955,0.2703923851291732,0.28010138399170637,0.3196962701108149,0.38238644853490644,0.44948023271471776,0.5012722727478989,0.5288120691276813,0.5269321000637255,0.5018160979499722,0.4511227331234136,0.38330393117509476,0.3262726646764754,0.29386568197562757,0.2944832241685238,0.32720130740544745,0.3646076713554069,0.38679979753488364,0.4015457625081098,0.4162140129854074,0.4329704181109776,0.4494879657077846,0.46196126457587394,0.4612871006345878,0.4353789346089344,0.3854890124467499,0.32853176896243336,0.2830528808611342,0.2598826619024545,0.2563785375036343,0.26737985320728097,0.28360128064942747,0.29622806125116946,0.2940960672395765,0.27465319018614814,0.2380483461158528,0.19270317829794772,0.15143973344738532,0.11522678825053066,0.08083394044898741,0.04219101986808387,0.0019027316377278809,-0.032035721620223445,-0.055038132203964286,-0.07123717577987825,-0.0884071012470322,-0.12013169815899134,-0.1832298981998168,-0.21893353699619386,-0.2214004295027939,-0.22946126244289913,-0.24673857533231017,-0.273930524269741,-0.31234100211651933,-0.3557049692483631,-0.4018596203677954,-0.45747161479777027,-0.5340908393299663
