-0.007797700046261533,-0.008048188095480137,-0.009050140292354552,-0.010524165891809783,-0.012113802274690584,-0.013346970093805728,-0.01400209588501384,-0.01382867970987548,-0.01279782481714467,-0.011381604609402228,-0.010013553579883636,-0.009030873809987097,-0.008549164193917345,-0.008414286928124314,-0.00843355341049177,-0.008500995015693496,-0.008761113333790618,-0.009146484593412671,-0.009734162834808638,-0.010668679371091748,-0.012104166061201647,-0.01369380244408245,-0.014984775654910382,-0.01553392093157144,-0.015283438826963253,-0.014300753112456294,-0.012990507474650487,-0.012181237935281891,-0.012422095715621974,-0.013809407282897604,-0.016160144026923156,-0.019156364404057463,-0.022509047400347013,-0.02598697739355107,-0.02940710199504234,-0.03253819963796968,-0.03506234661252317,-0.03598722693531735,-0.03461917590579876,-0.030775147079950518,-0.02514880515832608,-0.018626485609763866,-0.011978925008897554,-0.0056974561071429205,0.00023718187104149213,0.006075481017209373,0.01196194720154135,0.017809874476528,0.023214636989400645,0.027675252697111664,0.030613673627143602,0.03166378905763145,0.031105013512091873,0.029708059786716888,0.028359275239565752,0.02760781109190994,0.027270614955122154,0.026721469678461097,0.02542086025414423,0.023291714808091307,0.020642320836623304,0.01784841338587333,0.01513158375381402,0.012250968215494868,0.00885011604098147,0.004774868026126253,0.0003913282942766665,-0.0033370884997778083,-0.00570708994278769,-0.0069306251151801486,-0.007527945514675474,-0.007479776336451624,-0.006574162496024908,-0.0044450158610499025,-0.0007358672732999043,0.0044954772810512555,0.010362674605171611,0.01567109281698614,0.019457316251121588,0.021384148770790177,0.02159609791066345,0.020767561888927394,0.01962109621277101,0.01863841644287447,0.017964024169298903,0.01736670376980358,0.016441829391619825,0.01491962866933033,0.012857918883868712,0.010545726993798908,0.008349139942544262,0.006605353866892554,0.005362551023210557,0.00445694015508905,0.0036091352731413727,0.0022314515969000933,0.00016974282202224784,-0.002335136302903393,-0.0049267236937365275,-0.00736416555302605,-0.009310264555062094,-0.010206236237389454,-0.009570382873159216,-0.007238918556111539,-0.0034526980942812986,0.0012294994000256786,0.005767185198433815,0.008734505257555895,0.009688288276206462,0.009274020265338434,0.008300964819709994,0.007125602392307637,0.005940599590189049,0.0043124278647291665,0.0020195000791826535,-0.0005624527626524608,-0.0029902591218062963,-0.005148309047098738,-0.0071522104685423585,-0.009194653771636519,-0.011632092658620833,-0.014503071983451047,-0.017190998919653967,-0.018896240141349923,-0.019599535110781885,-0.019782581554798763,-0.019589898897292946,-0.018626485609763866,-0.016603314733647578,-0.013289164702092942,-0.008529897711549888,-0.0026626980095853657,0.0032526714650640484,0.008108282162204177,0.011489873798960538,0.013368531195794855,0.012915730220191917,0.00929328674770589,0.0021351096736861434,-0.008529897711549888,-0.021863563767238258,-0.035515147588126114,-0.04584295705319123,-0.04946539458106684,-0.04503369345843306,-0.03358832101306795,-0.017817216070395266,-0.0009478187910173447,0.01379243542015182,0.024380369147924484,0.03027647749035582,0.032203310010024404,0.03195281601619539,0.031220624295517446,0.030960500032809906,0.031239890777884905,0.0312687934737413,0.030045249978894253,0.02734769277381282,0.023734879570205307,0.019996831258904127,0.016393660213395975,0.012896457793214043,0.009823165541999492,0.007616942277255907,0.006509015510444856,0.006441573905243131,0.00698108891302567,0.007742189274170418,0.008137184858060571,0.007896333022330905,0.006923283521312882,0.005372184858855327,0.0037247448676448625,0.0023085246599024206,0.001325841323239629,0.000545474717511841,-0.000446842930364554,-0.0018437952290330396,-0.003423795992885947,-0.005215748274456295,-0.007450873640595231,-0.010331483234303964,-0.013664899748226055,-0.017046485440372,-0.020360635471926635,-0.023751857377561515,-0.027441730566028427,-0.03127612912299814,-0.034917833133241205,-0.037779176244582484,-0.03923392941705984,-0.03854027660572724,-0.03518758766482727,-0.02912771124996735,-0.020746000786938265,-0.010928797689188871,-0.000870745728015018,0.00808901567983672,0.014669140620111725,0.01819524573615005,0.018860001796236685,0.017501581035596608,0.015362799376054748,0.013551583584422154,0.01258816435228265,0.012674872439851832,0.013686460850215184,0.015237558323750656,0.016904266580711702,0.01848426675010357,0.02008353934647331,0.02177915029929075,0.023561469339677368,0.02518963868729308,0.026162688188311103,0.026037447136007013,0.024640493410632024,0.022203054523647712,0.01918756171953553,0.015931217079693683,0.012376215212409378,0.008522556117682623,0.00445694015508905,0.0006610846686919561,-0.0027108683767312993,-0.005716724372893502,-0.008366117749900466,-0.010514529678320844,-0.011921119617184768,-0.012624408642006311,-0.01275929185240976,-0.012701480516086553,-0.012730383211942947,-0.012923071814059182,-0.013192826345645243,-0.013346970093805728,-0.013106118258076062,-0.012152335239425495,-0.010427821590751663,-0.007942213525543501,-0.005206113844350483,-0.0028457468314464127,-0.0010345262841254831,0.00012157203875358526,0.0006803529344425378,0.000670718504336726,0.00011193790587829441,-0.0005720868955277516,-0.0010730628156266466,-0.001641477546960369,-0.002672331845230136,-0.004184893976186528,-0.005890138170187696,-0.00736416555302605,-0.008202337788251041,-0.008346845322922592,-0.00821196805712956,-0.008452825837469645,-0.00897306841827431,-0.009339167250918486,-0.0092813618592057,-0.008799652243135949,-0.008173435092394649,-0.007547211997042929,-0.007007702933870811,-0.006805384062876055,-0.006872819723467361,-0.006574162496024908,-0.00549513842507025,-0.0035683082832458305,-0.0011983068402359484,0.000969377515162305,0.0023085246599024206,0.002693890569375096,0.0024530369502623038,0.0022410854325448635,0.0024337680900506807,0.003117793010348935,0.004437671889338468,0.006403040940508219,0.008512919904193686,0.010208530857011126,0.011085236056971029,0.010825117738873905,0.008975357093285561,0.005844258261436141,0.002221817166794282,-0.0012946481689888568,-0.004570259885659204,-0.006892092150445236,-0.007393068248882443,-0.005976848041140001,-0.003529771751744667,-0.001574038914063854,-0.001468063155205134,-0.003308185803921415,-0.00560111418392897,-0.006660870583594089,-0.005369894400460948,-0.0020557461522894382,0.0019520608518250964,0.005112062973991953,0.006865478129600096,0.007655481186601238,0.008194990249773357,0.00867669986584311,0.009081331663222197,0.009158403537302441,0.008773038222290808,0.008108282162204177,0.007241213175733211,0.006027305894375104,0.004322062294834978,0.0023566956215093954,0.0006610846686919561,-0.00013855008389420515,0.00037205996907998065,0.0021832806352931186,0.004784501861771023,0.00742425961975009,0.009630482884493674,0.011200846840396603,0.011769264544035535,0.011229749536252996,0.009871334720223342,0.007848163844107055,0.005343282757459975,0.0028191345939843977,0.0007670604275506764,-0.0005239161717051932,-0.000870745728015018,-0.0004661112555612398,0.0002564501367920738,0.000969377515162305,0.001749743764213468,0.0028384028597349797,0.004379867092086724,0.006181455587146009,0.007713286578314025,0.008647797169986714,0.00875377173992335,0.00808901567983672,0.006990725126514607,0.005834624425791371,0.004447306319444281,0.0029058420870925364,0.0011427919069175402,-0.000986355322518508,-0.00367428404210455,-0.006872819723467361,-0.01057233507003363,-0.014425994164760387,-0.01798099603204469,-0.020437707346006875,-0.021381854151168504,-0.021603439504530714,-0.021979168606053413,-0.022489780917979558,-0.022499417131468493,-0.021121729888460963,-0.017836482552762722,-0.012826727513001065,-0.006998066720381872,-0.0013909900922028072,0.0032430376294192782,0.006894380825456489,0.009880970933712277,0.012424384390633227,0.014736582225313448,0.016913902794200637,0.019168295237168075,0.020989147242289605,0.022193418310158773,0.023070123510118678,0.023975737350545392,0.024852442550505296,0.025285982988351198,0.025314885684207596,0.024852442550505296,0.024014270315280306,0.022732933317941312,0.021124024508082637,0.01896597636617332,0.01646109587398728,0.014129631556939606,0.012135363376679711,0.010247063821746036,0.008108282162204177,0.0058153561600407895,0.003560964311534397,0.001566694942352421,-0.0002252574581101353,-0.0018148925331766459,-0.0033563567655283903,-0.004994162326633043,-0.007065502380973178,-0.009618552051383065,-0.012422095715621974,-0.014994411868399317,-0.016901971961090032,-0.018086976546591742,-0.01847234186160338,-0.01814478193830453,-0.01762453341288945,-0.017296973489590604,-0.017470389664728962,-0.018202581385406896,-0.019455021631499918,-0.02099648289154645,-0.02243197552626677,-0.023645876863014455,-0.024397341010670266,-0.02456112097231969,-0.023983072999802242,-0.02283660732364586,-0.021160268797806296,-0.019117831439322552,-0.016670750394238883,-0.013443314394863846,-0.009262089432227826,-0.004734040441769669,-0.000928550525266763,0.0017304754984628862,0.0034357202869250954,0.00454364824265823,0.005487795047819859,0.006547554419790187,0.007944502200554754,0.009726821240941375,0.011624751064753568,0.013243290143490764,0.01406218995173788,0.013888779721209938,0.012973529667294285,0.01174999211705766,0.010526454566821034,0.009437800226987857,0.008532186386561141,0.00773255306068148,0.00706779700059485,0.006499379296955918,0.005834624425791371,0.005015721645239044,0.004322062294834978,0.00400413561271986,0.003965598486757654,0.004187184434580907,0.004813403963166374,0.006239260978858796,0.008667063652354172,0.01188486938285069,0.01567109281698614,0.019958292349558798,0.024544149109573907,0.02902403129965238,0.032964404426558735,0.036134040978831404,0.037251603959131394,0.03451550190009421,0.026971957727679702,0.014399386088525664,-0.002527819554870252,-0.021776855679669076,-0.03976380821135344,-0.05258686195511566,-0.05716308844625226,-0.052972233214737714,-0.042037467136688336,-0.02751880838471909,-0.012884532904713851,-0.0011308676128783915,0.006451210118732069,0.010343408122804154,0.012010116379765201,0.012530358960569863,0.012250968215494868,0.01116231387566169,0.009322189443562284,0.006961822430658213,0.004524379976907649,0.002385597722904747,0.0009886457809128867,0.00016974282202224784,-0.0006587942102975776,-0.0018341607989272278,-0.0030866004505592046,-0.003963308622824318,-0.00442574759529932,-0.004483552392551065,-0.00421379607758188,-0.003953674192718506,-0.004021113420076063,-0.00454135718980281,-0.005639650120969092,-0.006911358632812692,-0.007797700046261533,-0.008115629700681862,-0.008173435092394649,-0.008308312358187677,-0.008587703103262675,-0.00870330794207783,-0.008202337788251041,-0.007065502380973178,-0.005649284551074904,-0.0043005035706900185,-0.003076966614914435,-0.0019979413550376933,-0.000928550525266763,9.266958068160854e-05,0.0009886457809128867,0.001682304536855911,0.002144744103791955,0.0022988902297966084,0.002443402520156492,0.002848037289840791,0.003522427780033234,0.004360599420797184,0.004948282417881487,0.005256575264351837,0.005478160617714047,0.005979136716151255,0.00706779700059485,0.008724869044066958,0.010391577301028004,0.01165365376060996,0.012530358960569863,0.01326255662585822,0.013956215381801244,0.0145053606584623,0.014794387617026235,0.01451499687195124,0.01348414197922043,0.011933044505684958,0.010324141640436699,0.009052428967365805,0.008281698337342538,0.008098651893325658,0.008416575603135568,0.009553405065803013,0.011913772078707084,0.01548804637296926,0.01985231777962216,0.024322563756211696,0.0277812272670483,0.029534643611578523,0.029650254395004103,0.028677204893986077,0.02698159394116864,0.024871714977483174,0.022453542572866313,0.019524757856323315,0.016143166219566955,0.012424384390633227,0.008609258260641385,0.004929014152130906,0.001441450917743119,-0.0020268440508940866,-0.005774528575684205,-0.010013553579883636,-0.0150811199559685,-0.020755631055816785,-0.02688295502048885,-0.03294283143534877,-0.038559543088094686,-0.04331881602324816,-0.046921981124145896,-0.04961954427383775,-0.051777592415747066,-0.05352137254678835,-0.05450405826129531,-0.05431137560378949,-0.052346010119386,-0.04859832559459588,-0.04336698520147201,-0.03686393213527725,-0.029850272701766767,-0.02353990229307782,-0.019291241669850495,-0.018048437637246412,-0.020004166908160977,-0.024320269136590026,-0.0294263684774098,-0.03359795722655688,-0.034917833133241205,-0.03256710233382608,-0.026815513415287127,-0.019069656316488284,-0.010890264724453959,-0.00334672292988362,0.0027709636323774225,0.007096699696451244,0.009582307761659406,0.01068060425959194,0.011181580358029146,0.011393529497902418,0.011624751064753568,0.011875239113972171,0.012250968215494868,0.012857918883868712,0.013811701902519277,0.015218291841383201,0.017376339983292514,0.020507437626219854,0.024380369147924484,0.028513424932336655,0.032203310010024404,0.03496830882030756,0.03680843325240698,0.03811867889021278,0.03917843053418956,0.04011294707047267,0.04083550852227209,0.041018560910899386,0.040488682116605786,0.039428924528018584,0.03817648428192557,0.036875874857608695,0.035459648705255836,0.03385074584000757,0.03199135492554072,0.029929645140079095,0.027752324571191908,0.02572915369507562,0.023889029262976216,0.022097074009100656,0.019919759384823883,0.017116215720584974,0.01402365698700297,0.011056333361114635,0.008638160956497777,0.007000355395393126,0.006094747499576828,0.005545599845071604,0.005285477365747188,0.005256575264351837,0.005535966009426834,0.006065844803720435,0.006971452699536732,0.008060112983980327,0.008907921432694256,0.009052428967365805,0.008609258260641385,0.007886696808841966,0.006807672737887309,0.005015721645239044,0.002404865988655329,-0.0011308676128783915,-0.005533674956571414,-0.010928797689188871,-0.017181362706165028,-0.023607343898279544,-0.028867586987259806,-0.031998684630187145,-0.0327019795996191,-0.03160368310168657,-0.029811733792421434,-0.028202830927173173,-0.02711417064272958,-0.026497583760866795,-0.025929172001838283,-0.025071733284245837,-0.02389636491223306,-0.022586125219037675,-0.02127587363662145,-0.019734412376574913,-0.017942463067309775,-0.015928922460072006,-0.01360709435651327,-0.011439410001115017,-0.010032826006861511,-0.00955111639079176,-0.009743799048297577,-0.010119534094430692,-0.010331483234303964,-0.010726484762804536,-0.011622456445131895,-0.012817091299512126,-0.013770874318162693,-0.014204408811398176,-0.014214045024887115,-0.01400209588501384,-0.013645627321248181,-0.013163923649788849,-0.012566603250293525,-0.01204636066948886,-0.011343065700056897,-0.010206236237389454,-0.008944165722417916,-0.008202337788251041,-0.007961480007910957,-0.007682089262835959,-0.006246602572726061,-0.002893917793053388,0.002491573481763467,0.009264384051849497,0.016316582394705313,0.022116346436078533,0.026027810922518074,0.02813768988620354,0.029178180992423284,0.029544279825067465,0.02964061818151516,0.029553910093945982,0.0291203756007105,0.028156962313181415,0.026827450193008154,0.0253823213447989,0.023860126567119822,0.02234756205831926,0.02044000196562855,0.018002557134033814,0.01526646101960705,0.012424384390633227,0.009659385580350068,0.006913647307823945,0.0041293790428681195,0.001383646120491374,-0.0011501358786289734,-0.003182941779312113,-0.005051967123884787,-0.00719074937788769,-0.009608921782504547,-0.011882580707839437,-0.013770874318162693,-0.01515819183004874,-0.015765142498422584,-0.015601362536773161,-0.01488843729846268,-0.014194778542519658,-0.013722705139938843,-0.013192826345645243,-0.012055996882977798,-0.010273677842591178,-0.008269773448842348,-0.006410382534375485,-0.004483552392551065,-0.0024218437960115318,-0.0003601355561486238,0.0018075485614652128,0.004081208675722187,0.0064801128145884615,0.008956090610918106,0.011037066878747179,0.012395481694776835,0.0133492647134274,0.014399386088525664,0.015989022471406468,0.0182434149143739,0.020507437626219854,0.0217984167816582,0.02141305146664657,0.019457316251121588,0.016615239622147768,0.013734630028439034,0.011470601371982662,0.009861698506734403,0.008570725295906472,0.007077427269473368,0.005420355820462301,0.0039463308154681145,0.0032526714650640484,0.00400413561271986,0.006065844803720435,0.008580355564784991,0.010468649175108247,0.01058425995853382,0.00786743032647451,0.0014029143862419556,-0.00874184685142316,-0.022181487477048168,-0.03820308046893944,-0.05554454936751506,-0.0715757845175057,-0.08275141432050558,-0.08600775301573702,-0.08051630024912644,-0.06792442645994244,-0.05100686178572379,-0.032962097917716225,-0.016468437467854546,-0.0026916001109807174,0.00812755458918205,0.016499634783332613,0.022752199800308768,0.027280251168611092,0.030295743972723273,0.03195281601619539,0.03240562293640874,0.03198171871205177,0.03075818116181515,0.02872537407220993,0.025825492051523322,0.022405367450032045,0.018840729369258808,0.015401338285400079,0.012183532554903561,0.008956090610918106,0.0060369421078640415,0.003763281993607068,0.0021640123695425366,0.001200597298630327,0.0007959625289460279,0.00102718231241405,0.001971329117575678,0.003570598741640209,0.005478160617714047,0.006807672737887309,0.006778770042030915,0.0047555997603756705,0.000853767326197773,-0.004570259885659204,-0.010687945853459205,-0.016873069265233638,-0.022711366271341765,-0.02791380396860924,-0.031179784821940025,-0.0311990572489179,-0.027355028423069666,-0.020630390003512692,-0.013077215562219668,-0.0062755052685824556,-0.0007551355390504861,0.003753647563501256,0.007549500672054183,0.010651701563735546,0.012906094006702978,0.014409022302014603,0.015343532893687293,0.015979386257917533,0.016567070443923918,0.017337807018557604,0.018281953823719232,0.01899487906202971,0.018985242848540775,0.01819524573615005,0.017029507633015795,0.016114263523710558,0.01575780090455532,0.01575780090455532,0.015854145205613436,0.015786703600411713,0.015516949068825656,0.015247194537239592,0.015015972970388447,0.014909998400451811,0.014832926526371566,0.014611335228398938,0.014052559682859362,0.01307951018184134,0.01196194720154135,0.010911825826443088,0.009929140111936128,0.008956090610918106,0.00805047677049139,0.007578403367910576,0.00747242879797394,0.007376090441526241,0.006952186217169276,0.006316332852939038,0.005805721729934978,0.005786453464184396,0.0060369421078640415,0.006171819373657072,0.005930965754544279,0.005227672568495443,0.003994501777075089,0.0023470611914035836,0.0006418164029413744,-0.0008900139937655997,-0.0019690386591812996,-0.0026626980095853657,-0.0034430642586365284,-0.004570259885659204,-0.005938309726255713,-0.007248554769600476,-0.008192701574762104,-0.008809288456624886,-0.009406602911509791,-0.010331483234303964,-0.011651359140988289,-0.013289164702092942,-0.015293069095841771,-0.01769197501809117,-0.020177583083299335,-0.022287462046984802,-0.02380965682466388,-0.024378074528302814,-0.02380965682466388,-0.02242233931277783,-0.020456973828374334,-0.018231484081263294,-0.016111974848699306,-0.01418514232903072,-0.012537700554437129,-0.011179285738407475,-0.009734162834808638,-0.007874771920341776,-0.005456601893569087,-0.002701234541086529,-2.2940245661687892e-05,0.002173646205187307,0.0035995008430355605,0.004360599420797184,0.0046399895714111395,0.004553282078303001,0.003955964651112885,0.0028769393912361427,0.0015088901451006758,-0.00012891589157281014,-0.0020557461522894382,-0.004184893976186528,-0.006256238786214998,-0.007807336259750472,-0.008202337788251041,-0.007258190983089413,-0.005051967123884787,-0.0020846488481458315,0.0007959625289460279,0.0027324271008762595,0.0034646229827814887,0.0033490127938169568,0.002915475922737306,0.0020580366106838165,0.0006225481371907928,-0.0016896485085673442,-0.0050712353896353694,-0.00959928556901561,-0.014811359479772019,-0.019647704289005734,-0.02332794720859413,-0.02528368242411911,-0.025351124029320833,-0.023934903821578393,-0.021641978413876044,-0.018905876354838858,-0.0158614867994807,-0.01221977684462722,-0.007383432035393506,-0.00111159934712781,0.00621998855188092,0.013763532724295428,0.02044000196562855,0.025536471037569803,0.02881208215977911,0.0304595239343727,0.031105013512091873,0.031731230662833176,0.03301257360478258,0.03503575042550929,0.03728050665498779,0.038899045733724984,0.039303683475714495,0.038706363076219163,0.03730940935084418,0.03554635679282502,0.033870012322375034,0.032771721769052915,0.032347817544695956,0.032029893834886046,0.030873791945240727,0.02813768988620354,0.02378305469303958,0.018291584092597752,0.01197157747041987,0.005102429138347183,-0.0023736734288655986,-0.010379652412527815,-0.018838434749637138,-0.027711491042224905,-0.036969906705213884,-0.046353569365117385,-0.05508211217842318,-0.062432973693331874,-0.06810746101473848,-0.07223088058566171,-0.07501515776753317,-0.07657591523299925,-0.07677821032555233,-0.07516930151569366,-0.0709784700626208,-0.06325184377852688,-0.05151747409764994,-0.03630515064512726,-0.018973312015430167,-0.0019112338619295542,0.012347312516552985,0.022453542572866313,0.028301475792463383,0.030295743972723273,0.029534643611578523,0.027550005700197153,0.025497932128224474,0.023879393049487274,0.022954518671303523,0.022771466282676223,0.023002687849527373,0.023445858556251795,0.02400464004640179,0.024505616144838996,0.02478500688991399,0.024544149109573907,0.02378305469303958,0.022906343548469255,0.022588419838659345,0.023310981290458763,0.02489098145985063,0.026654034017869793,0.027993182351531993,0.028648302198129683,0.028426716844767476,0.027578914340663962,0.02675037237431749,0.026336104363449464,0.026104882796598318,0.02590256987021398,0.025709881268097746,0.02546902943236808,0.025266716505983746,0.024968053333930873,0.023966101137056457,0.022048904830876806,0.01985231777962216,0.018147076557926203,0.017299268109212274,0.017164390843419242,0.01730890432270121,0.017125851934073913,0.016114263523710558,0.01433195042793436,0.01209682446733438,0.009591943975148344,0.006778770042030915,0.0036091352731413727,0.0004876698013678875,-0.002046112316644668,-0.003770625370857459,-0.00475330870752025,-0.005244650375851646,-0.005446967463463275,-0.005129040781348157,-0.0043197718364406,-0.0030191612232016475,-0.001352452966240602,0.00028535259486405054,0.0016534018409995175,0.0026168175063727693,0.002992549580200675,0.0025012073174082374,0.0012487676657762603,-0.0005624527626524608,-0.0029902591218062963,-0.006169530698645818,-0.00985940983172315,-0.013491483573087696,-0.01663221742950397,-0.0192623389739941,-0.021603439504530714,-0.023925267608089454,-0.026141121141711555,-0.027788562916305146,-0.02829917522823129,-0.027008196072792943,-0.023607343898279544,-0.018279659204097562,-0.01208489957883419,-0.006236966359237124,-0.0018245263688214158,5.9622124102888215e-06,-0.0016222092812097876,-0.007296723947824326,-0.016786361177664456,-0.02976356461419758,-0.04562137169982902,-0.06248112503772446,-0.07675894978779531,-0.08489016625699536,-0.08489979652587387,-0.07788616681541548,-0.06677794889456522,-0.05468711064992261,-0.04384868887293134,-0.034888930437384814,-0.02750917217123015,-0.021237340671886536,-0.015447212844002257,-0.009079042988210946,-0.0017474533058190892,0.0061429166778006776,0.01374426624192797,0.020016097741271582,0.02448634371786112,0.027126107420450605,0.028311106061341903,0.02871573785872099,0.02904330372663026,0.029592449003291315,0.030343913150947126,0.030902694641097118,0.031182085386172117,0.031316962651965145,0.03133622913433261,0.031182085386172117,0.030623303896022126,0.02965988466388262,0.028330378488319777,0.02656732593030061,0.02436110266555703,0.022020002135020415,0.02008353934647331,0.0186191440158966,0.017684633424223908,0.01701024115064834,0.01610463325483204,0.01494853136518672,0.013580486280278548,0.012222065519638474,0.010902189612954149,0.009649749366861131,0.008667063652354172,0.008040846501612872,0.00769401415133615,0.007549500672054183,0.007404993137382634,0.00715450508816403,0.006913647307823945,0.006605353866892554,0.005959870233783799,0.004823038393272186,0.0032526714650640484,0.0014318164876373073,-0.00047574532899042645,-0.0021424536453975764,-0.0033370884997778083,-0.0041559918747911765,-0.004859283871917929,-0.0053313578689597844,-0.005379528236105719,-0.005109771921136532,-0.0047051377459132755,-0.0043390401021911815,-0.004242698773438273,-0.004242698773438273,-0.004281235304939437,-0.004358308962402806,-0.0048496500362731594,-0.005774528575684205,-0.006882455936956299,-0.007788063832772595,-0.008048188095480137,-0.007797700046261533,-0.00719074937788769,-0.006391116052008029,-0.005398797096317342,-0.0043775772281533865,-0.0033852594613847835,-0.0024218437960115318,-0.001525867952456879,-0.0007936726650126913,-0.00023489159098542614,0.0001312061716288761,0.0005069380671184692,0.0016148659039593959,0.0035995008430355605,0.006171819373657072,0.008773038222290808,0.011229749536252996,0.013272192839347156,0.014726946011824511,0.015680729030475078,0.016094997041343106,0.015738534422187863,0.014707679529457056,0.013493778192709367,0.012694138922219288,0.012337676303064048,0.012299143338329136,0.012790483223277405,0.013879143507721,0.015247194537239592,0.016538167748067528,0.017376339983292514,0.017337807018557604,0.01622987430713613,0.014119995343450667,0.010931092308810543,0.007327915318691972,0.0037343787032896323,0.00016010862970085283,-0.0037609909407516477,-0.008308312358187677,-0.013125384740443518,-0.017422214541894694,-0.02041844086363942,-0.021998441033031287,-0.022875146232991188,-0.023742221164072572,-0.024994661410165594,-0.026372342708562705,-0.027268320335500484,-0.027094904160362122,-0.025900269305981893,-0.02403124217802609,-0.02189246051848423,-0.019734412376574913,-0.017412584273016177,-0.015061853473601044,-0.012720752943064429,-0.010533802105298718,-0.008635872281486524,-0.007219652073744083,-0.006265869055093517,-0.005890138170187696,-0.006554896013657452,-0.008414286928124314,-0.011150383042551082,-0.014512702252329566,-0.018115873297837717,-0.021680511378610958,-0.02452258800758478,-0.025967710911183613,-0.025707586648476072,-0.023925267608089454,-0.0212277044583976,-0.017807585801516746,-0.013809407282897604,-0.009348797519797005,-0.004743674871875481,-0.0001192817586975193,0.0038499888922541646,0.006634256562748948,0.008233529159118689,0.00893682412855065,0.009322189443562284,0.009823165541999492,0.010959995004666937,0.012694138922219288,0.014717315742945993,0.01643219317813089,0.01731853459157973,0.017116215720584974,0.016239510520625073,0.015295363715463443,0.015170116718548933,0.016181705128912285,0.017665366941856452,0.01897561257966226,0.01977524590554192,0.019958292349558798,0.019736706996196587,0.019717440513829128,0.02012207231120822,0.020902439154720426,0.02172134490757796,0.022183782096669838,0.022000735652652956,0.02114329693506051,0.019996831258904127,0.018888898547482658,0.01794475174232103,0.01727036541335588,0.017212560021643092,0.017742438815936692,0.018368661911288414,0.018705852103465776,0.018542072141816354,0.017954387955809965,0.017125851934073913,0.01610463325483204,0.014967803792164596,0.013638285727380916,0.011913772078707084,0.009890601202590797,0.007925235718187297,0.006393404727019282,0.005429989656107072,0.0047170626344134655,0.003907793689505909,0.002867305555591373,0.0017690120299640494,0.0007188894659437012,-0.0002252574581101353,-0.0011212337772336218,-0.002046112316644668,-0.002903551628698158,-0.003818795738003392,-0.005013430592383624,-0.006583798709513845,-0.00848172258871562,-0.010341113503182483,-0.011844041798494106,-0.012903799387081308,-0.013645627321248181,-0.014300753112456294,-0.01484989838911735,-0.015138925347681286,-0.015379777183410952,-0.015553193358549312,-0.01556282362742783,-0.015427946361634802,-0.015061853473601044,-0.014580143857531291,-0.014021362367381296,-0.013443314394863846,-0.012730383211942947,-0.011583923480396982,-0.010235138933245846,-0.00887672411721619,-0.007585750906388261,-0.0060250172193638514,-0.004146356850224324,-0.0018052581030708343,0.0011524263370233517,0.004601453039909976,0.007992671378778602,0.010699870741959395,0.012193162823782081,0.01236657899892044,0.011383899229023902,0.009399261317642526,0.006653528989726823,0.0035513298814285857,0.0005936455007805035,-0.001988307519392923,-0.004223430507687692,-0.006381479838519092,-0.009001971114130702,-0.012287212505218527,-0.016372093166796428,-0.02104465801438072,-0.025380026725177227,-0.028424416280535384,-0.029946611058214466,-0.030322340159737157,-0.029850272701766767,-0.028125759053092933,-0.024464782615871993,-0.01853014130870575,-0.010774653941028384,-0.002123185379646995,0.006123650195433221,0.0128193859191338,0.017414878892637847,0.019601829730403555,0.01985231777962216,0.01918756171953553,0.018050732256868086,0.01641292669576343,0.014148898039307061,0.011374263015534963,0.008137184858060571,0.004389501522192535,0.000670718504336726,-0.0020750144180400197,-0.002768673768444086,-0.00111159934712781,0.0024819396461186975,0.006518651723933793,0.009929140111936128,0.012501456264713471,0.014274145036221571,0.015391702071911142,0.015622923638762292,0.014755848707680904,0.012578534083404133,0.009379994835275072,0.005902063653148928,0.002867305555591373,0.0007574259974448646,-0.00016745254196618188,3.486466453765511e-05,0.001084987109665795,0.002848037289840791,0.005930965754544279,0.010487921602086121,0.015911950597326224,0.02118182989979542,0.02489098145985063,0.02599890822666168,0.02364817148263613,0.017337807018557604,0.007135232661186155,-0.006863189454588843,-0.024060144873882482,-0.04274076805073071,-0.060091867218184845,-0.0728185647716681,-0.07844490074868213,-0.0766048060396348,-0.06885891921778386,-0.05769296129593544,-0.0459200348718819,-0.035852343724913895,-0.028694170812121444,-0.023780760073417905,-0.01899258444240804,-0.012720752943064429,-0.004743674871875481,0.003878891588110558,0.011509140281327993,0.017164390843419242,0.021162563417427966,0.024178056221540147,0.026673300500237248,0.028571230324049443,0.029717696000205823,0.03037281584680352,0.030912324909975638,0.03155781448769481,0.03205879653074244,0.03242489536338662,0.03244416184575407,0.031933549533827925,0.030873791945240727,0.02926488907999247,0.027386225738547727,0.025709881268097746,0.0244767134489826,0.023590372035533762,0.022906343548469255,0.022357198271808196,0.02185622217337099,0.02128780446973206,0.02055561274905412,0.019871590206600037,0.019293536289472165,0.018763657495178564,0.018050732256868086,0.01674048661906228,0.014755848707680904,0.012626703261627981,0.010882923130586693,0.009803893115021617,0.008994623575653019,0.007973404896411148,0.006518651723933793,0.004842306659022767,0.003108159174704165,0.0017015728026064927,0.0007477921618000946,0.00011193790587829441,-0.0004661112555612398,-0.0012561116374876936,-0.0024314782261173435,-0.0043197718364406,-0.006911358632812692,-0.009608921782504547,-0.011699534263822557,-0.012865266422346396,-0.013308437129070816,-0.013433678181374909,-0.013635997052369663,-0.014117700723828997,-0.0150811199559685,-0.016372093166796428,-0.017374045363670845,-0.01774978040980396,-0.01731623997195806,-0.016333560202061517,-0.015293069095841771,-0.01449343576996211,-0.013992459671524904,-0.013539652751311545,-0.013077215562219668,-0.012489531376213281,-0.01147794296584993,-0.009849773618234213,-0.00790367461619817,-0.006159894485156881,-0.004945991959487109,-0.004146356850224324,-0.0033274540696719966,-0.0021617219111481584,-0.0006395259445469959,0.000670718504336726,0.0013065724630280052,0.0011813290328797454,0.0005743771755838176,1.559636311941092e-05,-0.0004853795213118215,-0.0008803795636597879,-0.0009767214868737382,-0.0008033065006574612,-0.0005335503045804841,-0.00019635500003815858,-0.00020598913291344943,-0.0008418430321586245,-0.0018341607989272278,-0.0025663566808324574,-0.0027397710725876926,-0.0025663566808324574,-0.0023158686316138537,-0.0021617219111481584,-0.0021328198097528067,-0.0024218437960115318,-0.0029998929574510664,-0.003549040017495249,-0.0037320882448952535,-0.003529771751744667,-0.0032889175381708336,-0.0033852594613847835,-0.003895869395466761,-0.00419452840629234,-0.0037995274722528102,-0.002412209960366762,-8.074516775025173e-05,0.0027227932652314894,0.005574502540927997,0.008021574074634996,0.00983279581087801,0.01081548152538497,0.010892553399465212,0.010121822769441945,0.008811577131636139,0.007356818014548365,0.005940599590189049,0.004919379722025095,0.004360599420797184,0.00422572096608207,0.0046399895714111395,0.005275843530102418,0.005487795047819859,0.004919379722025095,0.0038307206265035827,0.002539743848909401,0.0012294994000256786,0.0003142551123821314,2.5230513828533017e-05,0.0005551088503871317,0.0020195000791826535,0.004399135357837306,0.006875114343089034,0.008378042638400656,0.008204626463262294,0.006547554419790187,0.0038981592594000978,0.0009308409836611416,-0.0018052581030708343,-0.003963308622824318,-0.005321724033315015,-0.005909407030399319,-0.0060731863975877,-0.006044283701731307,-0.005813065107185369,-0.005446967463463275,-0.0050712353896353694,-0.004888187162235364,-0.004994162326633043,-0.005080869819741181,-0.004830381770522578,-0.004223430507687692,-0.0033852594613847835,-0.0029131860588039694,-0.003096234880665017,-0.003982576888574899,-0.0054758701593196684,-0.007084774807951053,-0.008375748018778984,-0.009377700215653399,-0.010418191321873145,-0.011487579179338864,-0.012287212505218527,-0.01231611520107492,-0.011371968395913293,-0.009262089432227826,-0.005957575614162127,-0.001882331760534203,0.0024145004187611408,0.006210358283002402,0.008907921432694256,0.010487921602086121,0.011412795980269876,0.01196194720154135,0.012048655289110533,0.011489873798960538,0.009967673076671039,0.007568773099032058,0.004996453379488464,0.0026457202022291625,6.376712260963183e-05,-0.0032407471710249,-0.00692099484630163,-0.010244775146734783,-0.012634044855495248,-0.013790140800530148,-0.013616730570002207,-0.012200510362259765,-0.009878676314090607,-0.0071522104685423585,-0.004146356850224324,-0.0006106232486906024,0.00315633013631114,0.006547554419790187,0.009004259789141955,0.010420479996884398,0.01107560578809251,0.011094872270459966,0.010661337777224483,0.010083283860096614,0.009495599674090225,0.009004259789141955,0.008647797169986714,0.008339503729055325,0.00800230759226754,0.007838527630618118,0.007992671378778602,0.008349139942544262,0.008512919904193686,0.00832023724668787,0.007992671378778602,0.007588039581399514,0.007164135357042549,0.0066149900803814925,0.005844258261436141,0.004871208760418119,0.0037729158292518377,0.00282876902409021,0.0023085246599024206,0.0023085246599024206,0.0026553540378739322,0.0032141349335628854,0.003888525423755328,0.004736331494625089,0.005950234020294861,0.007443526102117547,0.00885011604098147,0.009890601202590797,0.010247063821746036,0.00991950389844719,0.009235481355993103,0.008859746309859988,0.009225845142504166,0.01044938269274079,0.012578534083404133,0.01526646101960705,0.01802182956101169,0.02029548848634658,0.02175024760343435,0.02221268479252623,0.0220778075267332,0.02175024760343435,0.021509389823094267,0.02127817420085354,0.02105658884749133,0.020497807357341337,0.01936097789467389,0.017385976196781453,0.014428288784382058,0.010776942616039637,0.006826939220254765,0.0030021834158454447,-0.0007647699691562977,-0.004589528151409785,-0.008645508494975463,-0.013192826345645243,-0.018096606815470262,-0.023125634282209793,-0.027538074867086544,-0.030524659030731916,-0.032027587326043536,-0.0328272206519232,-0.033453443747274915,-0.033829178793408035,-0.03347271022964237,-0.031883079791371984,-0.02858819624218481,-0.024040878391515027,-0.019127461708201073,-0.01521599722176153,-0.013125384740443518,-0.013221729041501635,-0.01519673073939407,-0.01841453646989059,-0.022220026386393497,-0.02568832016610862,-0.028029414752034815,-0.028183564444805718,-0.025842463914269104,-0.021391484420047024,-0.0159578251559284,-0.010360385930160358,-0.005418065362067923,-0.0016800146729225743,0.0008152307946966095,0.002173646205187307,0.0026649884679797444,0.0026168175063727693,0.002366329457154165,0.002154377939436725,0.0021254758380413736,0.0022314515969000933,0.0023374267612977723,0.0024145004187611408,0.0026264513420175394,0.0027516953666268406,0.002674622303624514,0.002395232153010559,0.0019135243203239332,0.0014607191834937006,0.0012776703616326538,0.0017015728026064927,0.0025012073174082374,0.0033201106924216055,0.003975232916863467,0.004379867092086724,0.00445694015508905,0.004139013472973931,0.0036476718046425357,0.0033586472239227685,0.0034357202869250954,0.0038210867908588125,0.0043509649906913715,0.004784501861771023,0.005314380061603581,0.006248891247737314,0.007799994665883205,0.00973645745443031,0.011663289974098899,0.013243290143490764,0.014033287255881486,0.013869507294232064,0.01299280209427216,0.012222065519638474,0.01196194720154135,0.012193162823782081,0.012376215212409378,0.012462923299978558,0.012501456264713471,0.012694138922219288,0.013252920412369282,0.014071826165226817,0.014717315742945993,0.01460170495952042,0.01384060459837567,0.012626703261627981,0.011104508483948904,0.009591943975148344,0.008291334550831477,0.007356818014548365,0.006672795472094278,0.005882795387398346,0.005092794113780329,0.0042738919276890455,0.0034838912485320706,0.002867305555591373,0.0024145004187611408,0.002173646205187307,0.0022121833311495123,0.002520475583158819,0.003098525339059395,0.0038307206265035827,0.004081208675722187,0.003522427780033234,0.0021640123695425366,0.0005262064517612592,-0.0007069651719045527,-0.0011983068402359484,-0.001285014333344087,-0.0012272089416312999,-0.0012368433717371119,-0.0014295266237039706,-0.0017474533058190892,-0.0022580632399010667,-0.0033178202340272264,-0.005023065022489436,-0.007171482895520233,-0.009117581897556275,-0.010341113503182483,-0.010533802105298718,-0.009936481705803394,-0.009136848379923733,-0.008828554938992343,-0.009030873809987097,-0.009445141820855122,-0.00964745474723946,-0.00941623912499873,-0.009011601383009223,-0.00888636033070513,-0.009165751075780127,-0.009695629870073727,-0.010109897880941753,-0.010158067059165604,-0.009811240653499302,-0.009290992128084218,-0.008905626813072585,-0.008732210637934225,-0.008770749547279555,-0.008558800407406282,-0.007653186566979566,-0.0061309917893004875,-0.004435382025405132,-0.0029131860588039694,-0.001891965596178973,-0.0014969652566004855,-0.0013331847004900202,-0.0011597703087347852,-0.0008514774622644364,-0.0005239161717051932,-0.0002734281819326937,-8.074516775025173e-05,0.0002082794129695154,0.0009982796165576566,0.0023470611914035836,0.00400413561271986,0.005603404642323349,0.006990725126514607,0.008339503729055325,0.009794262846143098,0.011191216571518083,0.012549631387547739,0.013773168937784365,0.014871459491106478,0.015719267939820408,0.016220238093647196,0.016528537479189007,0.016489998569843674,0.015998658684895403,0.014871459491106478,0.013281823108225677,0.011807797508770448,0.011008164182890785,0.010786578829528576,0.010362674605171611,0.009379994835275072,0.007819261148250661,0.006104377768455347,0.004620721305660557,0.0033490127938169568,0.0019231581559687031,-3.2574396370809984e-05,-0.0025856243521219973,-0.005398797096317342,-0.008096357273703987,-0.010524165891809783,-0.012556972981415006,-0.013925024010933597,-0.014580143857531291,-0.014570507644042354,-0.013934654279812117,-0.01280746103063361,-0.011304532735321986,-0.0092813618592057,-0.006863189454588843,-0.004290869140584206,-0.001882331760534203,0.00010230371355689939,0.0016919389669617228,0.0031948666678123035,0.004177550004475095,0.004370233256441954,0.0036091352731413727,0.0021062075722907917,0.00016974282202224784,-0.002412209960366762,-0.006034653432852788,-0.010784284209906903,-0.01606379972586504,-0.020620753790023757,-0.023308680726226674,-0.023520635810710365,-0.021478192507616206,-0.018096606815470262,-0.014531974679307441,-0.01160318996276444,-0.009618552051383065,-0.008414286928124314,-0.007653186566979566,-0.006843917027610968,-0.005716724372893502,-0.004271600874833625,-0.0025374539849760637,-0.00036976974847001886,0.002404865988655329,0.005641941173824512,0.008927187915061714,0.01196194720154135,0.014890731918084352,0.017703899906591363,0.020045000437127976,0.021162563417427966,0.020497807357341337,0.01816634304029366,0.01486182327761754,0.011827069935748322,0.01026633624872391,0.010526454566821034,0.012039019075621594,0.013830974329497151,0.015112311326836143,0.015391702071911142,0.014669140620111725,0.0134456030698751,0.012318409820696591,0.011827069935748322,0.012164260127925687,0.013802065689030339,0.01705841032887219,0.021422681735525088,0.025806225569155863,0.028927692943204682,0.029476838219865742,0.026451715146875037,0.01931280277183962,0.008435848030113442,-0.005514406690820832,-0.022239292868760953,-0.04084283822691852,-0.058675647010442394,-0.07242360485544047,-0.07891702170814628,-0.07687457246044171,-0.06745236494658247,-0.053193818568099925,-0.036815762957053404,-0.021073560710237114,-0.007797700046261533,0.002578280974871606,0.010381947032149485,0.016316582394705313,0.020989147242289605,0.024274394577987846,0.025892933656725042,0.025632809394017502,0.023445858556251795,0.019698168086851257,0.015189383200916388,0.010882923130586693,0.00720267426638788,0.004283525763333815,0.0023181584955471904,0.0011331580712727702,0.0006803529344425378,0.0009982796165576566,0.0020291339148274233,0.003339378958172187,0.004630355141305327,0.0056708432752198635,0.0062585274612262515,0.006566820902157642,0.006913647307823945,0.007376090441526241,0.007578403367910576,0.007491701224951814,0.007530234189686726,0.00805047677049139,0.009254747838360559,0.011056333361114635,0.013108412877697734,0.014842556795250084,0.01563255985225123,0.015054505935123356,0.013368531195794855,0.010902189612954149,0.008522556117682623,0.006961822430658213,0.006277793943593708,0.006441573905243131,0.007356818014548365,0.00844547829899196,0.00929328674770589,0.010179628161154732,0.011316457623822176,0.012597800565771589,0.01374426624192797,0.014563166050175089,0.014929264882819265,0.014659510351233206,0.0139754818641687,0.013204751234145433,0.012597800565771589,0.012318409820696591,0.012202799037271016,0.01209682446733438,0.011798167239891928,0.011326093837311113,0.01058425995853382,0.009591943975148344,0.008223892945629752,0.0066920619544617345,0.005468526782069277,0.00454364824265823,0.0035898670073907907,0.00209657314218498,0.00010230371355689939,-0.0017763560016754827,-0.0029806246917004845,-0.0035105034859940856,-0.0036453813462481574,-0.0037995274722528102,-0.004589528151409785,-0.006256238786214998,-0.008992334900641765,-0.012730383211942947,-0.01736440915018191,-0.02313527049569873,-0.030283807195002246,-0.037904417296886574,-0.04484100485631683,-0.050746737523016255,-0.056035889252463326,-0.06060244980705888,-0.06297250653494567,-0.0616333046997897,-0.05610333085766505,-0.04748076855890631,-0.03755759089122028,-0.028010148269667356,-0.020033069604017368,-0.01401172615389236,-0.009830507135866756,-0.007441237427106293,-0.006208063663380731,-0.005225382110101064,-0.0037031861434999023,-0.0015065996867062973,0.0010464505781646318,0.0034935250841768403,0.005420355820462301,0.006942550003680339,0.008599627991762867,0.010497551870964641,0.01227987091135126,0.0133492647134274,0.01343597280099658,0.012790483223277405,0.011644017547121023,0.010285602731091368,0.0089849933067745,0.00801194380575648,0.007385720710404759,0.006971452699536732,0.00693291973480182,0.0070581607871059125,0.007019627822371,0.006682431685583217,0.006422307422875676,0.006547554419790187,0.007038894304738456,0.007674747668968694,0.008069749197469266,0.008551452868928597,0.009755723936797767,0.011798167239891928,0.01433195042793436,0.017068046542361125,0.01959219351691462,0.021519026036583205,0.022684758195107044,0.02320500077591171,0.023368786682171547,0.023378416951050068,0.022993051636038438,0.022116346436078533,0.020989147242289605,0.020141344738186094,0.019755973478564042,0.019881220475478554,0.0201124420423297,0.019967928563047733,0.019177925506046592,0.017655730728367514,0.015622923638762292,0.013291459321714612,0.011056333361114635,0.008917551701572775,0.006923283521312882,0.005092794113780329,0.0036091352731413727,0.0025301100132646306,0.0016341341697099778,0.00046840153561730584,-0.0011212337772336218,-0.0032407471710249,-0.005658918981180715,-0.008105993487192924,-0.010235138933245846,-0.011680261836844683,-0.01231611520107492,-0.012200510362259765,-0.011612826176253378,-0.010948070116166745,-0.01012916436330921,-0.008982704631763247,-0.007402698517760962,-0.005562577652427807,-0.003953674192718506,-0.0029324537300935093,-0.002470014757618507,-0.0024218437960115318,-0.0026145270479783905,-0.0029902591218062963,-0.0031155025519545563,-0.0028457468314464127,-0.0023929416946161805,-0.0021520874810423466,-0.0023929416946161805,-0.0031444058422719916,-0.004242698773438273,-0.005514406690820832,-0.006988430506892935,-0.008558800407406282,-0.010090631398574298,-0.011728436959678951,-0.01355892517828942,-0.015610998750262098,-0.017740144196315023,-0.019811484250655157,-0.021593803291041776,-0.022894412715358647,-0.02357844120242315,-0.023607343898279544,-0.023164173191555126,-0.022239292868760953,-0.02099648289154645,-0.01967660698486213,-0.018443439165746985,-0.01743185075538363,-0.01654550934193479,-0.015370140969922013,-0.013443314394863846,-0.01062050424825748,-0.007219652073744083,-0.003549040017495249,0.00010230371355689939,0.0035127939443884643,0.006345235548795432,0.00844547829899196,0.010160361678787274,0.011692186725344873,0.012906094006702978,0.013715363546071576,0.014187436948652392,0.01446682769372739,0.014746218438802385,0.01495816757867566,0.015295363715463443,0.01602755543614138,0.01704878005999367,0.01816634304029366,0.019389880590530283,0.02060378192727797,0.02153829846356108,0.0218273194775146,0.02123963529150821,0.019948662080680277,0.018368661911288414,0.01676938931491867,0.015420610712377955,0.014620971441887875,0.014457191480238451,0.014717315742945993,0.014823290312882629,0.01432231421444542,0.012934996702559374,0.01068060425959194,0.00801194380575648,0.005564868110822185,0.004023403878470441,0.0035320616156780038,0.003666940070393117,0.003686208336143699,0.0032141349335628854,0.0021062075722907917,0.000352791703329399,-0.0016222092812097876,-0.003539405587389437,-0.005206113844350483,-0.006487454408455728,-0.007470140122962686,-0.008510631229182433,-0.009907579009947,-0.01146831269697141,-0.012855630208857457,-0.013530022482433027,-0.013163923649788849,-0.012113802274690584,-0.010919167420310351,-0.009975020615148725,-0.009396966698020856,-0.009069406774722009,-0.008847821421359798,-0.008895996544194066,-0.009252459163349307,-0.009936481705803394,-0.010678309639970266,-0.011044408472614444,-0.010832459332741172,-0.01004245627574003,-0.008616605799119069,-0.006795747849387118,-0.0050712353896353694,-0.003539405587389437,-0.002238794974150485,-0.00110196551148304,-0.00013855008389420515,0.0008248652248024214,0.001961695281930908,0.0032526714650640484,0.0043509649906913715,0.0049001114562745125,0.005169867771243698,0.005622672908073931,0.006509015510444856,0.007713286578314025,0.008917551701572775,0.009669015849228586,0.01009292007358555,0.01027596651760243,0.010169991947665793,0.009543774796924495,0.008609258260641385,0.007973404896411148,0.007992671378778602,0.008628530687619259,0.009534138583435556,0.010247063821746036,0.010613162654390215,0.010651701563735546,0.01044938269274079,0.010324141640436699,0.010121822769441945,0.009755723936797767,0.009177675964280315,0.00808901567983672,0.006643892776237886,0.005439624086212884,0.004880843190523931,0.004909745886380324,0.005218038732850674,0.0051891360369942805,0.004399135357837306,0.0030118178459512565,0.0014703536135995125,0.00027571846198875963,-0.0002734281819326937,-0.00020598913291344943,8.30354478063177e-05,0.0003046209200607364,0.00022754773816620124,-3.671940082216403e-06,-0.00029269650712937956,-0.00047574532899042645,-0.0005913552207244375,-0.0010537945498760649,-0.0019497703934307179,-0.003308185803921415,-0.005157943477204549,-0.007084774807951053,-0.008606969585630132,-0.009811240653499302,-0.011025141990246989,-0.012248679540483613,-0.013183190132156304,-0.013751607835795238,-0.013944290493301053,-0.013713068926449907,-0.01325063173735803,-0.012884532904713851,-0.012884532904713851,-0.01338550900315106,-0.014242947720743507,-0.015235263704128985,-0.015986727851784798,-0.01645880125436561,-0.016661120125360362,-0.01702721895800454,-0.018077340333102807,-0.019782581554798763,-0.02161306977340923,-0.022894412715358647,-0.022981120802927826,-0.021574536808674324,-0.01871319369733304,-0.0148017292108935,-0.010254411360223722,-0.005321724033315015,-0.0002541598567360078,0.00474596533026986,0.009274020265338434,0.01299280209427216,0.015690365243964013,0.01762682803251112,0.018850365582747743,0.01921646441539192,0.018773293708667503,0.017877316081729724,0.016933169276568093,0.016287679698848923,0.016287679698848923,0.01696207197242449,0.01772316638895882,0.018580611051161686,0.01998719504541519,0.022569147411681468,0.025835128265012258,0.028869887551491898,0.030767817375304093,0.031124279994459332,0.029891106230733766,0.027617447305398876,0.024746467980568662,0.02206817131324426,0.019794512387909375,0.017482314553229152,0.014495730389583782,0.010497551870964641,0.005767185198433815,0.0012969386273832355,-0.0018245263688214158,-0.003057698349163853,-0.0029324537300935093,-0.002547087820620834,-0.0028264785656958308,-0.004223430507687692,-0.006198433394502212,-0.007922947043176044,-0.008539527980428407,-0.00746050390947375,-0.004358308962402806,0.0006032798714402112,0.0063548658176739515,0.011663289974098899,0.015102681057957625,0.01563255985225123,0.01268450865334077,0.00592133191889951,-0.00454135718980281,-0.018347094864688867,-0.03537064005345457,-0.054658207954066215,-0.07360860349633176,-0.08808872333895568,-0.0947940655530931,-0.09324299780260972,-0.0850250494673988,-0.07226946110727997,-0.05708601062756159,-0.04160393264345284,-0.02759588025879933,-0.016487703950222005,-0.00887672411721619,-0.004204162241937109,-0.0012368433717371119,0.00102718231241405,0.0033586472239227685,0.00571901483128788,0.007751819543048937,0.009563041279291948,0.011711459152322747,0.0145053606584623,0.017511217249085546,0.02044963223450707,0.023253175898745978,0.025912200139092498,0.02808952070797969,0.029544279825067465,0.030430621238516302,0.0309894027286663,0.03164452257526399,0.03280062446490931,0.03431318302909945,0.03557526543329183,0.036259287975745916,0.036374898759171485,0.03640380145502788,0.03670245868247034,0.03742502013426976,0.03817648428192557,0.038590752292793594,0.03868709064924129,0.038706363076219163,0.03861001877516105,0.037752580057568604,0.03548855140111223,0.03146147613124711,0.026095252527719798,0.020266585790490187,0.014649874137744268,0.009774990419165224,0.00599840319851871,0.00316596397195591,0.0006610846686919561,-0.0016703802428167625,-0.0035875765489964124,-0.004907455427985946,-0.005687821677037109,-0.006053919915220245,-0.006371843625030154,-0.006969164024525479,-0.008192701574762104,-0.00999428709751618,-0.012229413058116157,-0.014734287605691777,-0.017422214541894694,-0.02041844086363942,-0.02394453409045691,-0.027933076395587116,-0.0321046651447342,-0.03563075837155169,-0.037441980107794696,-0.03762502655181158,-0.037104783971006916,-0.03645929439328774,-0.035399536804700545,-0.03326075514515868,-0.029513076564978976,-0.02394453409045691,-0.017210265402021422,-0.010341113503182483,-0.004454650291155713,-3.671940082216403e-06,0.0031755984020617216,0.00549742947792567,0.007193038052898943,0.008387672907279174,0.009177675964280315,0.00978462663265416,0.010439752423862272,0.01117194414454021,0.011855966686994296,0.012183532554903561,0.012087188253845443,0.011807797508770448,0.011383899229023902,0.010959995004666937,0.010497551870964641,0.010256700035234975,0.010439752423862272,0.010854020434730301,0.011046703092236116,0.010670968046103001,0.009563041279291948,0.008060112983980327,0.006412671209386737,0.004562916508408812,0.002674622303624514,0.0011427919069175402,0.00034315751100800395,5.9622124102888215e-06,-0.00015781834964478684,-0.0002252574581101353,-0.0002637940490574028,-0.0003505013638272288,-0.0005720868955277516,-0.0007647699691562977,-0.0009092822595161814,-0.0009670870567679265,-0.0008514774622644364,-0.00029269650712937956,0.000728523896049513,0.0019327925860745145,0.003397183755423932,0.0049001114562745125,0.005988772929640192,0.006403040940508219,0.006451210118732069,0.006316332852939038,0.006191085856024527,0.006277793943593708,0.006422307422875676,0.006345235548795432,0.005834624425791371,0.0049001114562745125,0.0037729158292518377,0.0028769393912361427,0.0025301100132646306,0.002693890569375096,0.002848037289840791,0.0024626713803681155,0.001441450917743119,-2.2940245661687892e-05,-0.0016511119770661808,-0.0033563567655283903,-0.004878552732129553,-0.005841967803041762,-0.006034653432852788,-0.005630016285324321,-0.004907455427985946,-0.0043197718364406,-0.004223430507687692,-0.00454135718980281,-0.004820747934877807,-0.004984528490988273,-0.005109771921136532,-0.0054758701593196684,-0.006053919915220245,-0.006805384062876055,-0.007662822780468504,-0.008558800407406282,-0.009358433733285943,-0.009965384401659786,-0.01031221080732609,-0.010543432374177238,-0.010659043157602811,-0.010514529678320844,-0.010167703272654541,-0.009936481705803394,-0.01012916436330921,-0.01084209554623011,-0.0117766061379028,-0.012634044855495248,-0.013009773957017945,-0.01294233829642664,-0.01267257782023016,-0.012431725984500493,-0.01231611520107492,-0.012383556806276645,-0.012470264893845824,-0.012373920592787706,-0.011844041798494106,-0.010793920423395841,-0.009319894823940612,-0.007624283871123173,-0.005909407030399319,-0.0043005035706900185,-0.0028457468314464127,-0.0015065996867062973,5.413297190050973e-05,0.001836451257321606,0.0035995008430355605,0.005160233341137886,0.006518651723933793,0.0078288973617396,0.009177675964280315,0.010642065350246609,0.012231701733127412,0.014042923469370425,0.01579633981390065,0.01703914384650473,0.01753048967606342,0.017280001626844815,0.01650926505221113,0.015333896680198356,0.014052559682859362,0.013050607485984947,0.012443656817611103,0.012337676303064048,0.012578534083404133,0.012674872439851832,0.01258816435228265,0.012443656817611103,0.012501456264713471,0.012944626971437891,0.013705727332582641,0.01446682769372739,0.01486182327761754,0.01454389956780763,0.0134456030698751,0.01161511485126463,0.009534138583435556,0.0076073060637669694,0.005988772929640192,0.004601453039909976,0.0031755984020617216,0.0014896218793500943,-0.00021562326578874027,-0.001641477546960369,-0.002701234541086529,-0.0034623325243871104,-0.004001845154325482,-0.0043005035706900185,-0.004550991619908623,-0.005023065022489436,-0.005687821677037109,-0.0063429409291737605,-0.006988430506892935,-0.007576114692899322,-0.008269773448842348,-0.009127212166434794,-0.010235138933245846,-0.011487579179338864,-0.012431725984500493,-0.012845993995368522,-0.012749655638920821,-0.012364290323909188,-0.011795872620270256,-0.010832459332741172,-0.009445141820855122,-0.008000018917256288,-0.006737942457674331,-0.005919041460505131,-0.005312089008748161,-0.004512454493946417,-0.0036261130804975754,-0.0028746495273028064,-0.002354405163115017,-0.0018148925331766459,-0.0011501358786289734,-0.0004179404722925772,0.00023718187104149213,0.0004587673432959108,0.00023718187104149213,-0.0003505013638272288,-0.0008996478294103695,-0.0009767214868737382,-0.00055281862977717,0.00014084036395027114,0.0009404748193059116,0.001749743764213468,0.0023759638872599773,0.0024819396461186975,0.0019231581559687031,0.0009982796165576566,8.30354478063177e-05,-0.00018672080771676356,0.00015047449682556197,0.0009212065535553298,0.0022507198626506753,0.004341331155046603,0.007308648836324517,0.010854020434730301,0.014409022302014603,0.017289631895723336,0.01900451527551865,0.019784876174420433,0.019890856688967493,0.019476588678099465,0.01860951374701808,0.017617191819022184,0.016480362356354736,0.015382071803032624,0.014351216910301815,0.013676824636726245,0.013378167409283794,0.01330109553520355,0.01312767936006519,0.01251109247820241,0.011422432193758814,0.010208530857011126,0.009129506786056467,0.008474380994848353,0.008069749197469266,0.007742189274170418,0.007491701224951814,0.007414623406261154,0.007453162315606483,0.0072797461404681225,0.006248891247737314,0.004254623661938464,0.001971329117575678,-0.00020598913291344943,-0.0023158686316138537,-0.004030747255720833,-0.005225382110101064,-0.005890138170187696,-0.006410382534375485,-0.0074219709447388375,-0.009146484593412671,-0.011497215392827803,-0.014069531545605146,-0.016372093166796428,-0.018048437637246412,-0.01909855901234468,-0.019965633943426063,-0.02095794992681154,-0.022094779389478986,-0.023520635810710365,-0.02537039051168829,-0.027393561387804577,-0.02910843882298947,-0.030264540712634787,-0.03125685669602027,-0.03234551698046386,-0.033549788048333036,-0.03464807860165514,-0.03492746934673014,-0.03334746917733828,-0.02940710199504234,-0.023694051985848726,-0.01725843458024527,-0.011015505776758052,-0.005485503994964439,-0.0006395259445469959,0.0039463308154681145,0.008667063652354172,0.013416700374018705,0.01752085346257448,0.020488171143852395,0.022222321006015167,0.023108662419464007,0.02342659207388434,0.023609638517901217,0.02400464004640179,0.024544149109573907,0.025025858725643658,0.025208911114270958,0.025122203026701775,0.024736831767079723,0.024110614616338424,0.023127928901831463,0.0217984167816582,0.02012207231120822,0.018493902963592504,0.017241462717499486,0.016355121304050646,0.01552658528231459,0.01432231421444542,0.012848288614990192,0.011538042977184386,0.01098889770052333,0.010719137224326852,0.010333771909315217,0.0096112104575158,0.008570725295906472,0.007038894304738456,0.004562916508408812,0.001383646120491374,-0.0016125754455650176,-0.0037609909407516477,-0.004811113504771996,-0.00493635812384234,-0.004955626389592922,-0.005919041460505131,-0.008327578840555135,-0.011439410001115017,-0.014397097413514411,-0.016574412037791184,-0.01774978040980396,-0.017961729549677233,-0.017470389664728962,-0.016564775824302245,-0.015350874487554558,-0.013751607835795238,-0.011439410001115017,-0.008549164193917345,-0.005745626474288854,-0.0038573328639655976,-0.0032118444751685067,-0.003712819979144672,-0.004772576973270833,-0.005774528575684205,-0.006294771750949911,-0.006092458824565576,-0.004945991959487109,-0.0027205028068371107,0.00012157203875358526,0.002934744188487888,0.005507063313570441,0.007751819543048937,0.009563041279291948,0.010959995004666937,0.011933044505684958,0.012395481694776835,0.012077557984966925,0.011249016018620453,0.010487921602086121,0.010218167070500063,0.010439752423862272,0.010921456095321606,0.011316457623822176,0.011489873798960538,0.011538042977184386,0.011827069935748322,0.01232804603418553,0.01277121674090995,0.013166212324800102,0.013590116549157066,0.014206703431019848,0.015430240981256473,0.01754975615843088,0.0201124420423297,0.021846585959882054,0.021692442211721567,0.019043048240253563,0.013426336587507644,0.0044954772810512555,-0.00727745746545687,-0.021295146063599325,-0.03749014928601855,-0.055361496978887766,-0.07286677556216489,-0.08648944479797552,-0.0925300606750784,-0.08910031769392944,-0.0771924902256412,-0.05949455276329993,-0.03988905520826796,-0.022046610211255136,-0.008462456106348165,0.000545474717511841,0.0060369421078640415,0.009717190972062854,0.012829022132622736,0.015603657156394833,0.017694269637712846,0.018705852103465776,0.01892743745682799,0.01897561257966226,0.01927426980710471,0.020131708524697155,0.021268537987364604,0.022289756666606476,0.022810005192021556,0.022646225230372134,0.021885124869227383,0.02060378192727797,0.018802196404523894,0.016711583923205885,0.014881095704595415,0.013830974329497151,0.013474505765731492,0.013464875496852973,0.0133492647134274,0.012713411349197163,0.011576581886529717,0.010227797339378581,0.00916803975079138,0.008541822600050078,0.008166087553916963,0.007665111455479756,0.006865478129600096,0.005767185198433815,0.004534013812552419,0.003580232577284979,0.002857671125485561,0.002693890569375096,0.00327193973081463,0.004341331155046603,0.005439624086212884,0.006152552891289615,0.006114013981944284,0.0050446237466343965,0.0029636468843442813,0.00028535259486405054,-0.0022869659357574604,-0.004165625710435947,-0.005080869819741181,-0.005340991704604555,-0.005206113844350483,-0.0045220889240522285,-0.0033948932970295537,-0.0021424536453975764,-0.0010730628156266466,-0.00021562326578874027,0.0005358405846365501,0.001441450917743119,0.0021929144709378883,0.0025012073174082374,0.0022699881284012568,0.0017208410683570742,0.0010560850082704434,0.0005743771755838176,0.00040096242715195735,0.0005743771755838176,0.0009886457809128867,0.0014221826519925373,0.0018075485614652128,0.002154377939436725,0.002385597722904747,0.002549378279015212,0.0027805980624832343,0.00327193973081463,0.00400413561271986,0.004707428204307654,0.005227672568495443,0.005641941173824512,0.00592133191889951,0.006065844803720435,0.006335599335306494,0.006884744611967551,0.00747242879797394,0.008060112983980327,0.008532186386561141,0.008580355564784991,0.00805047677049139,0.00698108891302567,0.005564868110822185,0.003888525423755328,0.0020773048764343984,0.00010230371355689939,-0.0017956242674260644,-0.0037513565106458355,-0.005957575614162127,-0.008578066889773738,-0.011439410001115017,-0.014156239633174326,-0.016111974848699306,-0.017113927045573723,-0.017489656147096418,-0.017508922629463877,-0.01712355731445224,-0.016333560202061517,-0.015379777183410952,-0.014339286077191206,-0.013212092828012698,-0.011757339655535343,-0.009975020615148725,-0.00795184973903244,-0.00570708994278769,-0.0033948932970295537,-0.0013717212319911836,0.0002082794129695154,0.0012487676657762603,0.0017593781943192794,0.001749743764213468,0.0011909628685245154,0.00028535259486405054,-0.00055281862977717,-0.0016029410154592056,-0.003192576209417925,-0.0057359926386440835,-0.009310264555062094,-0.013375872789662123,-0.017094654618595845,-0.019638074020127218,-0.020668928912858025,-0.020447337614885396,-0.01966697671598361,-0.018770999089045833,-0.017470389664728962,-0.01556282362742783,-0.013366242520783604,-0.011160019256040018,-0.008915263026561522,-0.006371843625030154,-0.003308185803921415,9.266958068160854e-05,0.0037921840950024192,0.007799994665883205,0.012125727163190776,0.016239510520625073,0.019380244377041347,0.02133597364795591,0.022116346436078533,0.022154879400813444,0.021808052995147143,0.021374512557301238,0.020931341850576816,0.0201124420423297,0.01848426675010357,0.015786703600411713,0.01178853102640299,0.006451210118732069,0.00015047449682556197,-0.006188797181013275,-0.011564651053419108,-0.01519673073939407,-0.016314287775083643,-0.014917339994319075,-0.01195965258191968,-0.008626236067997589,-0.005485503994964439,-0.0025856243521219973,0.00017937695489753867,0.002934744188487888,0.005651575009469282,0.008069749197469266,0.009967673076671039,0.01143206840724775,0.012530358960569863,0.013329992286449524,0.013715363546071576,0.013464875496852973,0.012597800565771589,0.011374263015534963,0.009929140111936128,0.008387672907279174,0.006807672737887309,0.005295111795853001,0.004052305979865793,0.0033008418322099816,0.0029636468843442813,0.00316596397195591,0.0037151110320000924,0.004264257497583233,0.004611086875554745,0.0043124278647291665,0.0033586472239227685,0.002221817166794282,0.0015281584108512575,0.001749743764213468,0.0027131588351256776,0.0038692571580047465,0.004890477026168702,0.005507063313570441,0.005661209439575094,0.005507063313570441,0.005140965669848346,0.004726697064519277,0.004379867092086724,0.004254623661938464,0.004370233256441954,0.004765233596020441,0.004986818949382651,0.004697793774201843,0.004071574245616375,0.0036380373745367243,0.003763281993607068,0.004389501522192535,0.004986818949382651,0.005160233341137886,0.0048615749247733495,0.004110110777117538,0.002973281314450093,0.001557060512246609,0.0001312061716288761,-0.0010056235882690899,-0.0016703802428167625,-0.0018341607989272278,-0.0018437952290330396
