0.21413024731154517,0.059832902430900316,-0.13554573264348596,-0.2913977146831389,-0.35458045171468505,-0.2964324749161113,-0.12058641686428298,0.0846467827900341,0.22501389860488025,0.28355689633080366,0.29294169880013005,0.2949281866486939,0.3233871681464461,0.37453422902329386,0.40596109990548207,0.40279858049145073,0.4093734145835052,0.4405975675716786,0.4875288730856994,0.5394442654396749,0.588513228342563,0.6346647273990383,0.6797970245485602,0.7138672172987963,0.7242695123468432,0.7140501104416361,0.6946098289357083,0.6706819693805064,0.6431806291269344,0.6122853050833471,0.5727620924929433,0.5158681620480501,0.4204856093364641,0.23267484169108515,-0.1276447192295425,-0.4855732772715799,-0.6385396922840983,-0.6858189276762982,-0.6839241231798749,-0.6442588304780564,-0.5732211260643686,-0.4789141852063744,-0.3741824900859148,-0.2783581178734317,-0.20277456119025883,-0.1403242555771415,-0.08580668984937483,-0.03792838868134806,0.009247548292687953,0.05723113636351018,0.10333524361056215,0.1405644062488522,0.15735791114233122,0.15048476998473506,0.1097978166959782,0.03958677039929127,-0.03855989133139768,-0.10163334640884043,-0.14971361721048226,-0.18183831337147346,-0.18843499918787757,-0.1714701419679849,-0.14217134074960336,-0.11158930162482235,-0.08758219992686879,-0.0727905403432153,-0.05914597930241446,-0.042125551796210435,-0.020776798515998465,0.0033735892280469864,0.024514994932961505,0.037078374461855974,0.042685025839039804,0.04799984260476592,0.057655537655621494,0.07590910127783565,0.11074237678106687,0.1789571477891893,0.3013754828574242,0.4367886415373545,0.432633135402129,0.31678944130833553,0.20131951148182103,0.11983861223231397,0.05878343620826467,0.000961956651350986,-0.05561964210048684,-0.10145545222226217,-0.1349005248591939,-0.14825610395288072,-0.1323257081073114,-0.08305456212357885,-0.016358952718810982,0.01914658324218602,0.0013049642884019,-0.04830690423104892,-0.10597981679491979,-0.1581961149830844,-0.20018683114972552,-0.22625343624575348,-0.22877829518349496,-0.20088360208607234,-0.1375358584198764,-0.047128287589304395,0.03443693446471133,0.0834124937223646,0.10653129207138738,0.10858152011651757,0.09659589127339954,0.08038640228368009,0.07163597695222382,0.07550473908960706,0.0888154162130928,0.10065210165459082,0.09672434813674419,0.07901255249269487,0.05290941093289822,0.006975221917870959,-0.0706536149274352,-0.18636081827172263,-0.34427642096084,-0.5129504323313124,-0.6274889873125589,-0.6670122198428885,-0.6617057491540422,-0.6358669767241723,-0.6052857538168739,-0.5763433676649562,-0.55193373849695,-0.5285663777241745,-0.4976477272830283,-0.4489289124346271,-0.3672542256758237,-0.23501529065197035,-0.04012711272790897,0.20587170976416927,0.45495510082946067,0.6407741175866132,0.741277817611813,0.7734525076925542,0.7442027472477291,0.6424548831395335,0.4710210770335398,0.2791225481058257,0.1286672424694344,0.04133011571349941,0.007378105349968019,0.005333846956069438,0.01452547747319512,0.014439788705840626,-0.0064203043777232875,-0.04348309284427576,-0.08133245900792664,-0.10871866117576065,-0.12260264801416672,-0.12532232708939317,-0.12294352360788936,-0.12843546837908318,-0.14678487192518053,-0.1727672272415778,-0.19809427901729268,-0.21041708448773314,-0.20390001890857382,-0.16523819011920804,-0.07711658485089366,0.06218400748351086,0.22413808399910212,0.37272926731415623,0.490861286501788,0.5724969760413748,0.6233106809118181,0.6492746582403548,0.6584122779210747,0.6569384490425878,0.6527275605534025,0.6491010156834527,0.6466852374521183,0.6399039656675884,0.6225677371757374,0.5903345959641524,0.5411564657746789,0.47490004240555544,0.40967652293185114,0.3637875873990957,0.34060126549467357,0.3324540089298145,0.3370261291107876,0.3501625675584767,0.3737883270843626,0.4095719147161269,0.4607710564455153,0.5211301087756176,0.5824528883189338,0.6371712139892478,0.6817199491000955,0.7077936424621891,0.6991796465112884,0.6443475116440772,0.5398199331061316,0.4027573607145715,0.25312165908295853,0.08898114063001542,-0.12761667861098142,-0.4131641578391258,-0.6611547431176906,-0.7948060091794482,-0.8551109270591062,-0.8802049289655897,-0.8870150286561193,-0.8852674071787484,-0.8843502819020345,-0.8879005360223616,-0.8913743148901797,-0.8862561486076345,-0.8620639781092364,-0.8085570508756114,-0.7217976261636001,-0.6193898637818199,-0.5395745447709165,-0.5140958507266823,-0.5335786549867575,-0.48610131845847543,-0.31576049924334365,-0.15030095412693492,-0.006462833918143588,0.1499624361098716,0.3102726311904638,0.4189921476057851,0.47729240591551414,0.5161428193068863,0.5513734331759961,0.586011235335101,0.6157403075432099,0.6349450534268588,0.6346730708608218,0.6125828634021415,0.5773124275000271,0.5430369121176055,0.5212065085016687,0.5222012465866016,0.5447083356665943,0.5764160139107884,0.6039358784759564,0.6158039576166023,0.6097457022329416,0.5900477985351896,0.5681041190964515,0.5440208075780425,0.5148134992948777,0.48064681403278214,0.44747500609361623,0.41311661120894616,0.3739882120215867,0.337754738200219,0.3184134093795253,0.31672855076360285,0.31941355527495635,0.32932655111470727,0.3536086596109117,0.3847506216701313,0.4184246952120039,0.440665267916862,0.4423157695871932,0.4199595391283686,0.3822174682692431,0.32689970835207954,0.25734026185756087,0.18959767857890877,0.1408069880245152,0.12366992106954523,0.13135642535599995,0.14483380031111676,0.1338471505920076,0.08921285689778123,0.014797986052437108,-0.06936058974775534,-0.14954087417787393,-0.21337263317473862,-0.2639493583501459,-0.3018594325583104,-0.3261027528389031,-0.33593134495679255,-0.34003909574138097,-0.3468979734846806,-0.35993950937267466,-0.37590604019331414,-0.3943748344106666,-0.4216569153386008,-0.4581758431128856,-0.483343000040852,-0.44860903760390136,-0.3491550975608868,-0.2414051237156274,-0.1545508742399628,-0.09372017133961999,-0.05358216331223764,-0.03544772704712643,-0.03849509530068337,-0.05945938864035709,-0.08727416612862539,-0.11240172939712577,-0.1343160947874227,-0.1626477220461113,-0.19297997785719073,-0.20688569677183458,-0.17856181953788242,-0.09523888430385113,0.02358743376589108,0.14265249651817036,0.24158902556539474,0.3130913834401134,0.365787689477004,0.40582542775967073,0.4260174784574706,0.4082694827392056,0.3390182223770733,0.22833775202554307,0.10608034259739563,0.013573598753869029,-0.025985274741384515,-0.0031781467932477845,0.07572863184273293,0.18909968860273113,0.31401584623958545,0.42800903960022085,0.4954221091442115,0.50594048242164,0.4934902028484038,0.4875687450621464,0.49183122425170056,0.4819113063479249,0.42690793232105356,0.33288243298485043,0.2299298396410082,0.1456652786411482,0.08629457713694327,0.04333721968929095,0.001344472234118637,-0.058662950043350655,-0.15569714591985775,-0.2961275901799771,-0.4458429028437871,-0.5608011524926866,-0.6390172370427721,-0.6976320362900236,-0.746221178771843,-0.7816739717667582,-0.7940315791498269,-0.781799707231896,-0.7472396286130489,-0.6784390406982325,-0.5639053885287109,-0.4293816301946936,-0.31222798051338924,-0.2175551699214577,-0.12705424518229452,-0.02192462023714073,0.09952333238232211,0.20960073466626047,0.29408586230441386,0.3612830074839049,0.41539546967582774,0.4543277219163988,0.47550426336818746,0.4748217901057084,0.4579184445916909,0.4350053551906419,0.3911517741206689,0.29202924236426603,0.20655167946949854,0.19428410388449902,0.2483955938310222,0.327454189965259,0.37886109395823897,0.39055390908891946,0.3494711089157886,0.22037381709022313,0.09100282678210822,0.017930917107656343,-0.02296594312101383,-0.05401031903024014,-0.08767097341878317,-0.1342728583530503,-0.20077068330465528,-0.2824114910984179,-0.37753545650830733,-0.4862756928459974,-0.5975663479739495,-0.6910780973434635,-0.7489495361173578,-0.765458004163754,-0.7429299250125361,-0.6860880264888723,-0.5916676945410573,-0.434276014984546,-0.16210636001567516,0.1972217427480697,0.45888082835468536,0.5761330199767505,0.6148378342063502,0.6208992128732531,0.6138272774839553,0.6013642822416437,0.5874718744722108,0.57258208526644,0.5536969523346342,0.5306545733154482,0.5049199463551176,0.4799252359344098,0.45621916159264486,0.43500123706632354,0.41437229108830353,0.3923047365886839,0.36701022250552107,0.33153170250996455,0.28045149430457966,0.21282270564678052,0.12644290167869454,0.03102945003275479,-0.060531474837608595,-0.1259650311624384,-0.13862422038860717,-0.0805357659275771,0.05830802571381114,0.2604038840054997,0.4643584085797464,0.6125064761655783,0.6998780595280392,0.7366350144179074,0.7294967879067082,0.6857689305829868,0.6173456830967409,0.5427005228375958,0.47677111163728497,0.41993832913112117,0.3571707448904264,0.26421723523612695,0.11438113690225138,-0.0824529366991561,-0.20527125959752418,-0.23087368916854972,-0.21385712511112054,-0.1835001376147011,-0.15783742923901056,-0.15006736477089005,-0.1632158451555273,-0.20340408405565347,-0.2834664765429244,-0.41139219965445,-0.5478300333238543,-0.5829648328671546,-0.5449523124515158,-0.5054125801856602,-0.4740265261158207,-0.45257425465945444,-0.45015346009833856,-0.34928695556013134,-0.15142394719007377,-0.07715886274155885,-0.05971597068984134,-0.0655421260525339,-0.08660867122434192,-0.1301313490152588,-0.22103749558544536,-0.3726466877251711,-0.5175764528501269,-0.5949730080886951,-0.6106405866501428,-0.5793778801765228,-0.5000458849281179,-0.3526025427951705,-0.10730907250612119,0.21439430731389805,0.5060951913659925,0.6824807883821005,0.7438329606389382,0.7012468600619485,0.5275014660130305,0.1951219539826602,-0.21361450050224007,-0.5158930283605248,-0.6638011757065085,-0.7019003037711576,-0.6729948620483772,-0.6193939667989049,-0.5858550846407838,-0.5730823197712552,-0.5592873889730152,-0.5407273275981921,-0.5080721210210191,-0.44033936609745494,-0.3280055276269483,-0.18234792224533097,-0.02717907214023622,0.11058509485083684,0.21801560667641942,0.2898549299120514,0.32371016267188546,0.3352232783507306,0.35037734870293885,0.3843153020421578,0.43552746455608254,0.48440404199648385,0.5183540802659627,0.534852214144019,0.5357569240411282,0.5262381167771268,0.5048770883504903,0.4740320335377126,0.43287581557186433,0.3825717269386659,0.3271596537217756,0.26970351791931624,0.21045318135037278,0.15762138587488872,0.12131845773174135,0.09904516901993735,0.06383941961309794,-0.007840260891331078,-0.11765779350973146,-0.2315984623564885,-0.30408061726565544,-0.33480018956710234,-0.3432008520180483,-0.3399570879720932,-0.33711670296400714,-0.34828814823501797,-0.37498490316199995,-0.4147886826149871,-0.4572811325291444,-0.4816034476657954,-0.47601848961664983,-0.43899756516768274,-0.3718350973789331,-0.28697306827551183,-0.1990434963103072,-0.11359556871316347,-0.013769980581813664,0.1078356128738692,0.2355668807605513,0.3297635068195678,0.3608025664844625,0.333372132283501,0.27314864412521095,0.20424704077299538,0.13822972089683,0.080792499704729,0.021817161006712164,-0.05546612258435299,-0.11601854359194823,-0.14680542035767924,-0.19840042663169263,-0.3314751521763854,-0.6241665091081393,-0.6563185123020808,-0.5048546490155876,-0.4550239475906254,-0.4664963173964456,-0.5035369482484774,-0.5383004407295752,-0.5480258594026092,-0.5235648703669781,-0.4629461800178325,-0.3733575633333159,-0.2680348637693764,-0.15461438838985503,-0.035351617773910285,0.09399749606093794,0.23168139467976734,0.3606698875602784,0.4590227441470046,0.522724904989384,0.5570669269785722,0.5747796702440967,0.5904950351607713,0.6092040406666114,0.62704619981074,0.6390596729480452,0.6453068876579121,0.6521792971628677,0.6618442710928972,0.6676697232802137,0.6528918875047085,0.5931297819899685,0.4928073098350448,0.3907443408013964,0.3239714623847204,0.29706311723409573,0.298695856977012,0.3164854602964905,0.3342930297415865,0.3429509352082489,0.34806858366248455,0.3478873488407946,0.336414091862244,0.3200227980982709,0.3021095185095432,0.27553318427806783,0.24367058942572428,0.21339524824120462,0.17892072069148782,0.13595363407951455,0.09151902493230639,0.04510289616564703,-0.01574807517203434,-0.10492499419213687,-0.2160042681460361,-0.3207319486935215,-0.3875790796440695,-0.4109903951134625,-0.41162257548562,-0.3987821983842729,-0.3676975057415774,-0.32076216101762567,-0.28284787939130074,-0.26997370874826626,-0.2670406681218622,-0.24750597945408384,-0.20502603104348002,-0.1583628753058347,-0.14277714740478284,-0.16444852625615133,-0.20374135160546114,-0.24782034149404777,-0.3010593664683964,-0.3599065508337056,-0.3812327505281257,-0.3306071866274094,-0.26519885085148553,-0.21988044231832526,-0.1847958249571114,-0.12673513090220187,-0.03364002967814809,0.0671408763424368,0.1525916636723966,0.19244726158765163,0.10074931198489587,-0.05240470618113507,-0.13281999073474354,-0.1691959853218933,-0.1849111123416443,-0.18823549711558563,-0.18096615141922634,-0.15885206482466696,-0.11776265957558885,-0.06061020477193058,0.0026502769265232067,0.05251849246273715,0.070934920322257,0.06932187960983745,0.08127600298168405,0.13922945845136334,0.24800615444286744,0.377402590671159,0.48596327103332576,0.5408487578622536,0.5435383081404974,0.5288876199891646,0.518332144645323,0.5141869368301215,0.5090638336938865,0.49342117022321064,0.46951064857380576,0.44266335602488294,0.4185938303693281,0.39925134699351406,0.37793321754553744,0.3459092738670487,0.2936624430106672,0.21941718469469756,0.11874359942354389,-0.02798322688172572,-0.1910277473515059,-0.2523997607431013,-0.24929371415639173,-0.25137175460208877,-0.29564786057560577,-0.4098194594677653,-0.5650122851059897,-0.6778893049035133,-0.731117292961912,-0.7611731015866744,-0.7832177925293528,-0.8027213795032287,-0.8214603923832184,-0.8365405331905822,-0.8400692545175217,-0.8265362711416476,-0.7946409029668744,-0.7467353305757489,-0.6866904830402362,-0.616222101866607,-0.5362700476779908,-0.44809312553466996,-0.3514636302073239,-0.2378005756968914,-0.09742379956043025,0.060292927424494804,0.1953657207172991,0.2893829937255562,0.3483083692230433,0.3758181039475875,0.37103654181356593,0.3405878191139308,0.293771642204745,0.2471122222411644,0.21487009097043952,0.2009380288777766,0.20026135384798394,0.21098549347825377,0.246428791001008,0.32354831933974226,0.41432073812061504,0.4348553586233068,0.44609849143472396,0.5171090097796568,0.6389257687976495,0.5495733240359878,0.3162885532313799,0.16293901268022418,0.06588969593349252,0.00546555121216091,-0.022750820687556822,-0.03601264625544444,-0.0487844016819173,-0.05780118843489717,-0.05526764234958713,-0.040214453372452184,-0.015186411317701,0.01574163437876004,0.06670908512702896,0.15542417233784447,0.2870119398935338,0.4301214283849038,0.5257464030596226,0.5623394106806693,0.5627648344892024,0.549585547463634,0.5375328751855348,0.5305199157843694,0.5293356526151382,0.5397365905821788,0.5645255578097055,0.599642645545737,0.6356373008450525,0.6612454785102024,0.6647329627327189,0.6426914106384699,0.6006090256664833,0.5442333140579663,0.4713717505949548,0.379417726297665,0.261157418235039,0.10155471804940377,-0.09050206339554155,-0.268862140241704,-0.3984282276320622,-0.499251699843985,-0.5938924905190854,-0.6890009025921061,-0.7674193395370094,-0.8201972939465543,-0.8496663799872398,-0.8564434215527933,-0.8440319402772929,-0.8168919620635768,-0.7785154198691389,-0.7287654760639153,-0.6680087025754611,-0.6018944238783392,-0.5412627475289762,-0.49206725874710616,-0.44649366687451636,-0.39061743062276544,-0.32612959352291576,-0.2646001133005401,-0.21998693563694874,-0.20036566166166073,-0.19807119918394564,-0.1892116575116366,-0.14260814216563789,-0.03900931684358598,0.1194168376780556,0.30634220853070987,0.46620869079025384,0.5398157039790812,0.5267122181600318,0.4760034738043144,0.4326567966786493,0.41572335304103186,0.43224574829291196,0.47272708491782367,0.4973902256911357,0.43399513181145377,0.168112602210462,-0.2881666464131663,-0.6046739839967072,-0.7404980660791006,-0.7826752882078122,-0.7354219313052724,-0.5444664638479843,-0.2901767719885748,-0.1515654771425398,-0.1359394524925504,-0.18372374950629283,-0.25362291300649875,-0.3306238356553118,-0.40209731850636604,-0.4434714602798353,-0.40869470437483607,-0.24964569856458046,-0.029180338938124235,0.13917677455678182,0.21431821266904177,0.19929378679406123,0.11037599885444682,-0.01969015441194282,-0.1708571659146954,-0.33626811174618393,-0.4961894218357747,-0.5844703480853819,-0.5851023152068184,-0.5473752797061884,-0.4933860122381683,-0.41683897606201387,-0.30105555541760415,-0.1457904600425306,0.019655760905804065,0.1630335496411972,0.28644976733851885,0.40661362530284073,0.49811133567794946,0.36217764698558547,0.2046970046533818,0.15217777992962048,0.14485281608117628,0.15876217748881602,0.18715223466129907,0.22753333196144884,0.2786109239719541,0.3370245185953327,0.3926171888982546,0.4321375153392652,0.4467512909847584,0.4408970619771909,0.4289257669850337,0.4199287152527529,0.4185292087313147,0.43005554062073387,0.45367408773064855,0.4805922272173056,0.4954450027683464,0.4910487963353836,0.4697147094863744,0.4340626711244212,0.3849223848726091,0.33642492953848524,0.30407965157250794,0.290262935168718,0.28745484066767324,0.30569264957900255,0.36528160405903437,0.47035233392587683,0.5888380307647478,0.6440313340972956,0.6253469452406807,0.5800446463743966,0.5340799826283573,0.48937541041977317,0.44763768283386435,0.41441005079744797,0.35301567444596715,0.18125967448090502,-0.06811490168162423,-0.237203127897575,-0.3368072611038991,-0.411809131166667,-0.4705872680370217,-0.49873715914309297,-0.4977949809645712,-0.5068148728583511,-0.5628072545282389,-0.6499932020576598,-0.6603608620480159,-0.5835520800257512,-0.5053341220032418,-0.4438566996313356,-0.3779484921611698,-0.2889605163813345,-0.16942902135770438,-0.03999201032409429,0.05654619887564297,0.09262957319260504,0.0759055663391882,0.03064910150619495,-0.01443447118139315,-0.037522810338332185,-0.01583244316173379,0.060977333133523014,0.18415339004886344,0.31823570393333916,0.42527900759543735,0.4899107727196232,0.5106778004155689,0.4949097285171159,0.4550727384812591,0.405067437929459,0.36088859861157774,0.32430302018990526,0.29511762797847196,0.27157439351453716,0.24044112936278306,0.18572622192286903,0.09496872968480735,-0.02472610351646508,-0.14485058074506663,-0.24202467832261465,-0.30759205868545475,-0.3538895754825196,-0.400623883315267,-0.46007992098897965,-0.5388779023500847,-0.6231290169720702,-0.6827676564037795,-0.709313166130469,-0.7205292970086568,-0.7144491523212404,-0.6880204077364807,-0.6496110789981826,-0.6059093090887359,-0.5564357690077796,-0.49602977042882984,-0.42981759144489445,-0.38286527051931113,-0.3705911582794525,-0.37855778029443254,-0.3830812077232319,-0.3632432987881866,-0.3208589489911111,-0.26026796669077623,-0.1849725366313506,-0.10473875741489931,-0.03419711480830674,0.017574750065687067,0.04982955843981578,0.06428635554532997,0.05387754931077454,0.011752220045771648,-0.05368667855271401,-0.11917105310458016,-0.15942067083169884,-0.17017343440581995,-0.1320658779245486,-0.06291632837620711,-0.00489258742143304,0.03525808060863611,0.06921344229674929,0.10150708027075189,0.13249612540782787,0.16218532552492196,0.189954625137995,0.20128937027897012,0.18143926789507542,0.14107135115523353,0.10717217574335447,0.10936787889493332,0.16429448319879153,0.25598702674775997,0.34928548505819534,0.4108545980269244,0.42636918022329956,0.4005110749988497,0.3442974202272192,0.2757310773202588,0.21292873969486523,0.17036817675490792,0.15860401273539126,0.1764836217028522,0.20982722013470753,0.25748368828214363,0.3225196418970169,0.3995884580545883,0.48462315216089835,0.5722588889430162,0.643978152417279,0.687345629292104,0.7037308447301972,0.6964378895317087,0.6506204034094862,0.4908843374794337,0.07206060493346843,-0.35502244736699373,-0.5614825891633165,-0.6551855390801075,-0.6548707198698148,-0.5230666043314848,-0.3459381317485706,-0.2201054364450065,-0.15340023972841468,-0.12778432357524866,-0.12492872990283359,-0.1302725203134101,-0.13209724598269007,-0.1262023118439979,-0.12858476388279758,-0.14826280485042265,-0.1846401038525496,-0.22235542239162,-0.23955084741557292,-0.223776035050326,-0.17758874975748648,-0.12579794880572784,-0.07993049689087209,-0.04148669505332446,-0.003525428476068353,0.034611514113349916,0.07128274636067679,0.09834210552081772,0.10830246660796806,0.09040275766657166,0.06403367086801251,0.051768228373382304,0.06837654096843307,0.10678448795967783,0.15003116547398798,0.18258061671362924,0.1946385292679512,0.196226273761181,0.20516460157540636,0.2058841104110543,0.1758611365827685,0.14183015632477453,0.12905529124104137,0.1352178743928847,0.15518471958695623,0.17275508599971953,0.15620196764739705,0.10484673224904058,0.0459454303923825,-0.0027391609343351037,-0.041742783311910385,-0.07517496548326016,-0.11306036279005119,-0.16134444612671103,-0.1655311433073903,-0.09160070214246833,-0.03931822535182788,-0.0036451089646353262,0.01696009071662714,0.0120377938873127,-0.0033532107606115986,-0.014703415288304348,-0.012879408141449028,-0.00238605401628818,0.008925604358839568,0.010353650734795047,0.0008921120500545652,-0.022264351397686465,-0.05511590962543314,-0.08450262078247128,-0.08791565955129131,-0.044344092224895694,0.06357443355738558,0.21083257456780716,0.3531830024563715,0.46733283716260565,0.5554564639323225,0.6270275177425063,0.6858274467775124,0.7324578484821606,0.7668984171404386,0.7853439264850985,0.779499407614046,0.7290154562790676,0.6043389409033313,0.3908494203597707,0.1524669676015547,-0.028298893836237196,-0.14804691132905198,-0.23885220930369558,-0.3368539787374825,-0.4599766908457372,-0.5906728764944881,-0.6973055023967225,-0.7652166839977217,-0.8002813232618377,-0.8078732855486918,-0.782006343481123,-0.7201323453427104,-0.6314153992556091,-0.5446397171678411,-0.4834910715723396,-0.4569096162035537,-0.46787895480212727,-0.502516422570047,-0.5416147162665902,-0.5733813090725004,-0.5863425084417557,-0.5673633617919651,-0.5089984278217405,-0.41142680903968176,-0.2831714079814751,-0.1502714931110935,-0.042993204643118406,0.030384002957048767,0.0839505752575346,0.13219633154378538,0.17097441249627843,0.1910910461436625,0.18530259480651726,0.15765889175836376,0.12463777473161476,0.10716930975852786,0.11745182554650366,0.14536641895075114,0.17536723585850716,0.19789414869090846,0.22895646596310282,0.30474080833169304,0.4216925736158204,0.4792611570248205,0.45825009388824955,0.40680637623191357,0.3504468652270112,0.29686276559024294,0.24866212426988432,0.20927358460947842,0.18125837363176805,0.16748077110863754,0.1641698895031988,0.16737773712421533,0.17349246322087788,0.17873001964988522,0.1797006940991706,0.1787033439356417,0.18271371216580315,0.19820283726827698,0.22603344266142844,0.26614685590327775,0.307104019721455,0.32583288231031454,0.3118799801208139,0.2914132706938121,0.2721574728837093,0.24913564662909635,0.22460298926821828,0.19837813210317812,0.1630018055108522,0.12069372925623635,0.08082786140546568,0.047255739987145606,0.008737712205763859,-0.045617545786196666,-0.11788233314678949,-0.1978319399156538,-0.281121684335235,-0.3703720176779376,-0.47785496884466855,-0.5959294696828732,-0.669022148954134,-0.6726336044479343,-0.6667062931256805,-0.6865683820155571,-0.705682821319152,-0.6903958882563155,-0.6624217143722562,-0.6503177875281022,-0.6609656327863466,-0.6905046313814115,-0.7337493096135154,-0.7811329304654714,-0.8226149530606368,-0.8506758788196084,-0.8608731626569192,-0.8481227791266787,-0.7999213657203921,-0.7025394840989926,-0.5383027298001217,-0.2970497815907127,-0.023020682030583405,0.22902072450236347,0.4666684794451587,0.6514111169431358,0.7320922532186829,0.7502917061430789,0.7592691141785519,0.7765496189143755,0.7946432415101286,0.7936137202182021,0.7613179853348713,0.7111171817096075,0.669223750298285,0.6533067939446706,0.6484544847053014,0.5836344562291776,0.4635006723482942,0.4191114957026687,0.5042682153837331,0.5225707069332036,0.39236507586498337,0.31398384539982993,0.27398284929007505,0.25170544526970845,0.23230589460523177,0.21878983361292478,0.2420292227576201,0.33268050386310344,0.4833552307898982,0.647719310235364,0.7687455645812505,0.8265691340027214,0.8356446952736593,0.8008193786985109,0.7055049838679625,0.5344959383791846,0.33094572727909755,0.18498044721397885,0.14230832941984348,0.1925657760787439,0.2886371660826957,0.3785059277618658,0.43711451415766917,0.46749791948487796,0.47973266211859195,0.4752584532977919,0.4514824019465279,0.4098166160680659,0.36122455041589435,0.31399469132770824,0.2678815407667748,0.22038934066053215,0.1634139691991668,0.09073083791638242,0.015419102527537639,-0.034744064557363424,-0.0464700195199244,-0.04042144515840883,-0.04384423198887042,-0.07804461282767353,-0.15952986099202632,-0.30065349141224085,-0.4761907302301449,-0.5870219113936945,-0.5962421233254912,-0.5448034838111279,-0.4864834907267846,-0.4472739775760009,-0.42804391123023944,-0.4072883587853472,-0.37031692665386573,-0.31857242823891946,-0.26790101704492986,-0.226544591479513,-0.20007394905079204,-0.18516639929930517,-0.18222055285001645,-0.1922247936465598,-0.21426637640961316,-0.24646938931125562,-0.2832679610968327,-0.31487873681235556,-0.3352455664510092,-0.34105958209829934,-0.3327568610130313,-0.31715291958822517,-0.3027507123306146,-0.2938979697079284,-0.2895773886961908,-0.28805302655683296,-0.28329267694839955,-0.2655355674589863,-0.23406865174777064,-0.19376834556695363,-0.15610220656952514,-0.13247836638772306,-0.12971493635623615,-0.1426796098678832,-0.15666203915254018,-0.1634572465536025,-0.16152141026397562,-0.1490501280792238,-0.13035828711708577,-0.10872020719352989,-0.08915014637402734,-0.06707972800773657,-0.032897505706210514,0.014811245925806528,0.06451701475042716,0.10057018097593112,0.11381773806501908,0.10993593994412539,0.10183877113432685,0.08591545468800861,0.060137836876555543,0.03661185040708365,0.026193041982616322,0.03803841421657287,0.07302720269138029,0.11243010235923724,0.13550012766006844,0.1397222703971157,0.13505624233246707,0.12428961814279174,0.10446384830579944,0.05847241863752279,-0.009458534037190842,-0.06588561476607961,-0.08487350371084235,-0.06260478772402944,-0.006448502597092214,0.08575484299688968,0.21213876381200497,0.3505959153544526,0.46970457285112915,0.5595347896437838,0.6222173473836403,0.6603713243888296,0.6754550258153005,0.6701882398507066,0.6378189867496521,0.5601906817421467,0.40235190336197557,0.1422148526087282,-0.1603635427621835,-0.38831904775680104,-0.5183978551934102,-0.5820614734081642,-0.6011061344375187,-0.5858577763274125,-0.5451869262969168,-0.48300861719330523,-0.4075261824353429,-0.3264980836909844,-0.24726963143416966,-0.17607959365807954,-0.12381621907973017,-0.10264372340453577,-0.11598265136898694,-0.1526250698634282,-0.19000312053833082,-0.21258586411432723,-0.21331750102951372,-0.19069879810687182,-0.15458854393589255,-0.11217133487386978,-0.06613028063156914,-0.014868602086734684,0.0409680015784728,0.10105344805607992,0.16622608483823165,0.23296685787137433,0.2848652695288657,0.2539305656931967,0.1256991214050563,0.022313980306601706,-0.02901446255182993,-0.04172966080640819,-0.02458749897832337,0.011403647031944122,0.05484077688609399,0.09563976253213034,0.13086751179799402,0.1607150837856143,0.18854191941198176,0.2174651070214539,0.25342205786521715,0.3015035997970025,0.3517035135797182,0.38448080835346005,0.3977379065076226,0.40722575677403056,0.422437227449301,0.4513446857168467,0.49882876908489404,0.555178838438663,0.5839667434648539,0.554059900926282,0.4788034523472376,0.3945154578763157,0.31399438176845845,0.23763715078423792,0.1603068204025483,0.08209021296756365,0.012121032645426306,-0.03457475795411168,-0.054087995581944985,-0.04286711042086134,-0.002331466017027246,0.05040434491540606,0.0852979124590308,0.08183786119905795,0.04428901681527072,-0.01586675652334973,-0.07621140328730584,-0.12341631590554798,-0.15008638531947924,-0.14430263729668238,-0.10747341707078259,-0.06228062449528746,-0.039164704823177035,-0.06004585397780399,-0.1330703617886687,-0.2527792434762576,-0.3978067342157887,-0.5456233846074542,-0.6763492681987122,-0.763689597023958,-0.7923539752419718,-0.7698257560823717,-0.7108034755667606,-0.6258731547837726,-0.5240248026374698,-0.41105934857705867,-0.29236682259174407,-0.17638669810414978,-0.06431233993873502,0.03457786445319762,0.11738853017223412,0.18464644387158255,0.23874668778511188,0.2899987962967167,0.3642953519320224,0.4674216580399412,0.5701819706869594,0.6377179216998811,0.6483856939178023,0.5915039190089452,0.44842726894618007,0.2691115481704948,0.15160136568074606,0.09326358879498442,0.062376055861707115,0.034613211563668304,-0.008594565729918202,-0.0875127487992208,-0.24519880008127506,-0.3508018602762916,-0.2751402544656757,-0.20209966482469346,-0.10689211013924324,0.05479064927751714,0.24071453078349858,0.41897719415054213,0.5857678559246504,0.687822169448459,0.7051206331633486,0.6613797792896653,0.5917349563672809,0.5433863486570176,0.5619102179516552,0.6593889874630202,0.6711369098132868,0.5257705096762969,0.4382964270044937,0.43012595313495416,0.4781765312744283,0.5576153798549343,0.6323519724079883,0.6696807592257666,0.6612393978760938,0.6174622535630406,0.5490682098352994,0.4436307472534849,0.2643732267943405,0.02847785850815674,-0.10394391410874324,-0.14696532318903094,-0.1733026595309006,-0.2125429893842612,-0.2796359946415431,-0.3944264524622419,-0.5654087088785044,-0.7440901007212514,-0.8374992420774212,-0.84941813880585,-0.8336616519423445,-0.8188023324311354,-0.808887985518059,-0.799074873444751,-0.7898101462596978,-0.7934008600248604,-0.8148672073312627,-0.8427602849500576,-0.864411693015233,-0.8751065661770686,-0.8745110746837492,-0.863957956216848,-0.8444571182146619,-0.8129050519921747,-0.7612523194016841,-0.671557315408511,-0.4999289693916252,-0.20456372415331195,0.14276171242465302,0.4132882184781324,0.5747644010403097,0.6526649692682066,0.6777148526981315,0.6652249371923964,0.6116862103060199,0.5173512823932225,0.41242228268712017,0.3424383770959855,0.3129057931297949,0.31691954593067245,0.3407727436704035,0.37399206788351214,0.40301266516030143,0.41187934728347225,0.39762571589647555,0.36641062844786887,0.3224613129631714,0.26748521324611735,0.20836999154344057,0.1531913994425018,0.10517165751770205,0.07443961894027164,0.07757361141128238,0.12238888497994858,0.20324254020558047,0.30712874264375645,0.4064948173778091,0.4739049972818287,0.5119960233923537,0.5461611132387009,0.5843146850612977,0.6177060670627276,0.636549234065299,0.6446567479005879,0.643682372769766,0.6318579432560171,0.6003127185744477,0.539223589778287,0.4512922210118355,0.3651052896246682,0.30489344994242484,0.2875642545532653,0.31370178815197114,0.37049326810428074,0.4316240660735921,0.45785417303343057,0.42577146654231474,0.32530367103550023,0.1732784511603724,0.03370087070061495,-0.05883286642026589,-0.11722283490420038,-0.1587304757629725,-0.19242080096147995,-0.21467997004307635,-0.20352210889588346,-0.14810557921066267,-0.07803245195766188,-0.026376557975055653,0.00247616673590364,0.01630057241052102,0.025826386490353372,0.03486828498502375,0.04482878197079919,0.05179900482804895,0.050992038807368995,0.034734852546121006,-0.0073664746644353735,-0.09183784974712746,-0.25120747789898684,-0.459572796323018,-0.5859092653559563,-0.6059990302943772,-0.5928337071371821,-0.584082834379793,-0.5934656432310625,-0.6247629953460994,-0.6670156032058079,-0.7108483184736927,-0.7516479010229602,-0.7856569764878725,-0.8116365295977715,-0.8278278805060628,-0.8289199105821897,-0.8058923080534439,-0.7462659712856535,-0.6287093772215354,-0.4253973792578919,-0.14135573602660445,0.14483608814155366,0.36061195496082976,0.4871631066245822,0.5380452814769436,0.5596283740940838,0.5884262045376033,0.6282350606337743,0.6643397086063306,0.6742163854635719,0.6229098999771542,0.4655696160959312,0.23916749917258018,0.0755272037782026,0.03783093503964932,0.10787786223709533,0.22415554312329122,0.33241610714837516,0.4144075553530448,0.4810662072297634,0.539944646941176,0.5984996319618155,0.6549590366514056,0.7010542639889776,0.718944094909259,0.7038874502379494,0.6641105772017601,0.6108590841582109,0.5579083084880097,0.5214266037123972,0.5062534750573102,0.508987888001768,0.5216372821486639,0.5305730810947693,0.5173722200313648,0.46824050764641534,0.3854423936425873,0.296253534403149,0.22093778964609545,0.15403333564865643,0.0906799824795926,0.04332874158619152,0.014712975621066642,-0.0019987998377425935,-0.022821021486340083,-0.06614866313482573,-0.14338200542740911,-0.24933928928403104,-0.37151739396653094,-0.4988038875316085,-0.6112477987755293,-0.6871454449844838,-0.7135277415830417,-0.6978235351417175,-0.6518035490361898,-0.5899437649043205,-0.5244232279655018,-0.447096042620969,-0.3518627998968913,-0.2540927433371153,-0.16768590961401436,-0.10035353574707415,-0.056597318995469784,-0.030739782322710754,-0.006103445591440148,0.03028033928350603,0.07166975171200932,0.10550345107754283,0.13139925788785692,0.15464374433655453,0.17934712444938616,0.1998663367940474,0.2149998253385126,0.21538992515708685,0.1955440156020729,0.1622312877351409,0.12999002168381163,0.09898726251656365,0.060483372234921104,0.01757424131245817,-0.011104276960448148,-0.024333670024448226,-0.03806777415906762,-0.056429856292615634,-0.07753703646827773,-0.10038788461722142,-0.11636395545889776,-0.12048709093853287,-0.1094131745099857,-0.0809688318232406,-0.028972599870742587,0.042486526833694034,0.11778372256171998,0.17371215764126657,0.19150941648453979,0.15961854622460522,0.08646005969877288,0.015991542739611782,-0.02540917793310196,-0.034786521913659746,-0.017041725733897915,0.025955115053145395,0.10368087484229456,0.21819013529310105,0.3563140071340095,0.5032302741194573,0.6393659960740523,0.7526285493541223,0.8346009109019308,0.8827224790463827,0.9026907256332768,0.9020155291559333,0.8823056397032679,0.8408246059242294,0.7757163856875151,0.6936190606089833,0.6141429208176842,0.5493364328533689,0.48911101104840815,0.41865610957553206,0.3207103132481835,0.16516678830038586,-0.059411631096778,-0.2774468562389244,-0.44746886170139716,-0.5992992889669596,-0.7389390630788676,-0.8339161457333976,-0.8779357392642536,-0.8911978559491237,-0.8884297990857436,-0.8872844589366751,-0.8890077688723391,-0.8130313549769493,-0.6077789263520981,-0.4212945831885575,-0.3141626795596666,-0.2685236564710455,-0.27253020204364853,-0.3205084549539725,-0.3951670455717427,-0.46878302297547564,-0.517444008175438,-0.5267712480357961,-0.4935129515995713,-0.4325512059986244,-0.35935161454418507,-0.2841951646895282,-0.22627793661891546,-0.21217117351625725,-0.23834876589475745,-0.2796368735840427,-0.3259969139990879,-0.37627689637950656,-0.4288301564998412,-0.4744249951611169,-0.4763516204022734,-0.4083352420376071,-0.31397728345359727,-0.2363624310561982,-0.17993075754895896,-0.12903552733852575,-0.0856593674764998,-0.06254264592480932,-0.05324091069145025,-0.05279104763555228,-0.06832380741645774,-0.10280581545973001,-0.1490974874911838,-0.193868330419688,-0.23560910420352432,-0.2820708519466789,-0.31433069064029523,-0.3114540892457895,-0.2622559289257562,-0.15671265852636077,0.016414358457402002,0.23660101825310256,0.4355737540473366,0.5732543390792763,0.6660449548537133,0.7431125494962524,0.8116041332965047,0.8607817033048213,0.8871846659883241,0.8944769490588335,0.8864399527955097,0.8616378880642096,0.8185790037658839,0.7584921321262789,0.6935116334880771,0.6359306274546389,0.5879208515844021,0.5456959795786315,0.4977059954448809,0.4265689727663766,0.31979137364126264,0.1827522442498467,0.044162653272644986,-0.07820916882549914,-0.17358228950465648,-0.22134312675238502,-0.21080119410792483,-0.18030534998671138,-0.1552295635563495,-0.14851588494966203,-0.16634157243944134,-0.20556098437833525,-0.2518750758953388,-0.2823236426049448,-0.26285219014964256,-0.1821104088292456,-0.06278533084127133,0.063605710460783,0.1878611858581218,0.3211370498635117,0.4694922362772538,0.6105520999108527,0.7169122908582545,0.7807992624982741,0.8128335336623034,0.8278663087398818,0.8386700947445136,0.8471806061501944,0.8413263057583316,0.7920702694829883,0.6396925283881841,0.27226620945728525,-0.1968296258755075,-0.4513632195518496,-0.5254308697164973,-0.5218719407947687,-0.49115390122859065,-0.46711945682224204,-0.4671325568080579,-0.4879574057706083,-0.5087984162889978,-0.518541369258147,-0.5040091841689837,-0.4600224740828556,-0.38804245092987805,-0.30409288901193,-0.2269634613589779,-0.16900714947861264,-0.12951774802785646,-0.10385322283688317,-0.08812951753280887,-0.0850651556782101,-0.09306447449001722,-0.10365610563961095,-0.10781748701515874,-0.1047189061189065,-0.09494406856993498,-0.06935919133143653,-0.016519445606269986,0.0632536796296153,0.15491831198066397,0.24370709257527928,0.30801912517729113,0.3181175863212818,0.275199533773635,0.21379148030632109,0.1602870110894944,0.12257697991750814,0.09600524558211551,0.07220259563792102,0.0416149059664639,-0.0018465014849295695,-0.0603595074418085,-0.13584586419007597,-0.21800849565487074,-0.29551858241661816,-0.366996817024966,-0.4322512576672655,-0.46130043548800903,-0.3916383369146134,-0.26607735476243577,-0.1640252976193935,-0.1034062745532129,-0.07965869140179081,-0.080610922147902,-0.09065161490313832,-0.09755615399960232,-0.09535545271342928,-0.09076024518644359,-0.08810000900370969,-0.09584593796124478,-0.1117924973657779,-0.12372515449799087,-0.12706564503815926,-0.12292307079852934,-0.1065872628622591,-0.07368105928610726,-0.028740002656311995,0.01396512125314095,0.05860032485993762,0.1394468494412507,0.2500601460511694,0.35222193596423634,0.453496906245705,0.5477914770776485,0.6152297723837165,0.6469532874558497,0.6409585532064306,0.5882900333365305,0.4731024534308239,0.2981185247498098,0.11411928301533641,-0.02098709685610606,-0.09448122526287697,-0.11691944645437463,-0.10863518897387471,-0.09565741691746293,-0.09192989624161825,-0.09730673139461497,-0.11535473153408551,-0.1475294676201439,-0.1834407586245636,-0.20424540399405952,-0.20875088497526914,-0.20521531457091882,-0.1998942078858726,-0.19496817636436878,-0.18756544713048212,-0.16785891105123213,-0.13285289455460297,-0.09302638004836253,-0.06242734204480073,-0.052726801219546884,-0.07367222169865408,-0.12199266347919094,-0.15701707404338275,-0.1532176689868021,-0.10129346123824184,-0.011109929062732338,0.08208914829424774,0.14358228109542157,0.17100775198846632,0.17229316014230897,0.15523464945518228,0.1347580605946193,0.1294624369688729,0.1496915924090904,0.19435236961328617,0.2594781777638727,0.3287756398988657,0.38456605885745715,0.4167633994387025,0.4333034880631962,0.4423504764808656,0.4445508581734634,0.4333138675769649,0.40790017270833484,0.3766551802524593,0.34473202181395945,0.31410412670295157,0.2839063785674188,0.24823323447116194,0.21053513810022584,0.17254898006526656,0.1350571712050065,0.09173327313714338,0.033604842274662323,-0.05257780879188597,-0.15899657116311122,-0.24319567358693525,-0.26846049203423755,-0.2357943631613451,-0.17251057585265994,-0.1157225127400543,-0.08577253629236492,-0.09287797841645987,-0.1276484716688456,-0.16809727036377275,-0.19405599894585804,-0.19594733904410028,-0.1679937811814878,-0.10876642209020723,-0.023644742443669257,0.06647854880671289,0.1344592699424276,0.1736780114014894,0.19622164187235192,0.21567181306729633,0.24757591401398543,0.2905694626533005,0.3410209718362874,0.39060910497216983,0.4268418354096818,0.44806122348930805,0.4400561381954828,0.35270292650667195,0.21953463449772842,0.11565941231441255,0.04092313215185077,-0.031749234351659036,-0.11401207648639955,-0.1922285564314982,-0.27904969782707445,-0.38689096054431443,-0.5034451767319298,-0.6019514254974923,-0.6767646577426432,-0.7354175223457271,-0.7817320523406781,-0.8148747750995923,-0.8304143435800614,-0.8201969525955718,-0.7712670165230614,-0.66904072202951,-0.5191001621155594,-0.35252596312368856,-0.20149976380231105,-0.0801829835282618,0.014488459759783353,0.09573689959050025,0.17692261778897345,0.2640595963034237,0.35740566604245855,0.45281696436647895,0.5417501344463751,0.6212504690139524,0.6911503244065756,0.7498129743922567,0.7773816085252989,0.769821657147661,0.7540858141112694,0.7518838297720237,0.7620532002889224,0.7634416002310415,0.7051390888954991,0.5562415274003087,0.38473467234141384,0.26512383237147336,0.20414435081372717,0.1879196075409818,0.20359390233118882,0.2447100577592624,0.3093896536606073,0.39218113156545786,0.4781463799012983,0.5459080631215619,0.5409881970009386,0.4275530387905484,0.3117428618989582,0.2527285577036026,0.24314909728441517,0.269756351314348,0.32598526481808815,0.4053073584498872,0.4857110964812302,0.544794695841642,0.572763073198949,0.5493131165788625,0.4333606019143434,0.20007944134792693,-0.09096100715259216,-0.33622823530862833,-0.4950866199686583,-0.5753793710833178,-0.5994841605987214,-0.5967967083460838,-0.6070548565918418,-0.6659195642799943,-0.741691862003605,-0.700233974217462,-0.6464774189491518,-0.680386733512537,-0.7770657202288135,-0.8717560119195622,-0.9077254964869991,-0.8782423774348149,-0.8262505726313709,-0.7767666391467553,-0.7306649503648551,-0.6825928745126454,-0.6282922782444511,-0.5701834208220649,-0.510524634177411,-0.45351498030795,-0.3969498729795683,-0.352323101477247,-0.31456969212418484,-0.2807105687522048,-0.25144173463335495,-0.22878252970021157,-0.2079998677628685,-0.18632860847561003,-0.15791390936112426,-0.11218553596230374,-0.03473443266805721,0.07520272763838375,0.21347373596684252,0.35191201992035925,0.47151940077522986,0.5723868244590617,0.6561998224725779,0.7194328459475611,0.7596027414996559,0.7738688753327018,0.7718440843988965,0.7658238711419446,0.7569654645252878,0.7345099512339344,0.6989368326087431,0.6549171510139417,0.604726920678325,0.5635891905843469,0.5268600217676349,0.3403939981361688,0.11138412458169775,-0.013364998797305147,-0.09433241743611434,-0.16697190302032913,-0.23689790379373712,-0.29194397361196184,-0.3196179318439383,-0.3152928258592075,-0.2754756842832909,-0.20300168919927217,-0.1288286687530485,-0.08063804897674841,-0.0572652256590948,-0.058172288221625644,-0.07883928874784381,-0.09562567718503757,-0.0860757750716686,-0.04792741287998018,0.006220382596351397,0.06373244412862596,0.11878076573580704,0.17022460463032724,0.2124528552472133,0.23899681680136797,0.26018392010910557,0.2914648052449605,0.2878581911591442,0.22723003255560803,0.17700751289950317,0.15679746123373028,0.16059190783637112,0.18073315178072002,0.2070594852257157,0.2310656586057183,0.24981246169800836,0.270139474641024,0.30528952368994733,0.3735776680323327,0.4767234387144961,0.5861059282055064,0.6422934957905655,0.5131143297180878,-0.07375691991431953,-0.5234634116595567,-0.6451747224407338,-0.6492977428617003,-0.5903750607693661,-0.47676311818026673,-0.3254163461369455,-0.17692887759450204,-0.07851549116571924,-0.04906517156365959,-0.08263160262421002,-0.16202339556616485,-0.2775927183912449,-0.4284636047071602,-0.5984136813105265,-0.738623455007965,-0.8232648862980991,-0.8682125762663826,-0.8925001502436165,-0.9016850631214125,-0.8953433177482171,-0.8729775768059315,-0.8356042474647438,-0.7904508115857025,-0.7430108814906844,-0.6914330451222047,-0.6094786689008123,-0.43131754837264136,-0.057039497093119985,0.4150561007939362,0.7000007697951086,0.8189013495473495,0.868214199355527,0.8852215146265914,0.8779538195906319,0.8472752354052124,0.7943106629550215,0.7315585545304354,0.679968160356389,0.6492118906097574,0.6355449265858238,0.6292617780722701,0.6124987217013018,0.581086569559323,0.5402704353747543,0.48109029646327334,0.37400354696094457,0.27650587062310694,0.22755733238455678,0.21126392430246968,0.21226309112653363,0.2237902377430379,0.2429088809437862,0.2664579340383948,0.29652738768648795,0.3300236133358775,0.3517129160007034,0.35072350872714303,0.3267125893414723,0.2871142401339613,0.23312232281905776,0.1704895672913397,0.10796513782834859,0.054981524262848844,0.010882491635127904,-0.038535826310888366,-0.1079413009795018,-0.20267397981324078,-0.29210948270741777,-0.2758778417365637,-0.17602305120792422,-0.07077034749328177,0.026978069051863597,0.11224429158325365,0.17617927759452812,0.20474656250248927,0.1767545649244516,0.045043079943062045,-0.09126985687188349,-0.15993045761095015,-0.2013305211688722,-0.22095330106324712,-0.20371043563347097,-0.18634621559664827,-0.2007951224550575,-0.24310598413080128,-0.27997496493085117,-0.29341791155487906,-0.28761441798907056,-0.2761271470258443,-0.28023894539784666,-0.3094803670991893,-0.3538732335050996,-0.39060342604950016,-0.4032095991514205,-0.39124066858273243,-0.3699405223157365,-0.35311067104265714,-0.34300885956842525,-0.3327267498942901,-0.3144052489468894,-0.2837210218861959,-0.23561897887730418,-0.1729304215947121,-0.09965879591443108,-0.016423940638350575,0.07897591346331367,0.18884092222094961,0.3139744472702639,0.45103160374052365,0.5780467628807047,0.6295591082289932,0.6032694351625038,0.5804055457002687,0.5800852463738583,0.5440362655687762,0.436114147471401,0.3421085038046717,0.29788194975553806,0.29283895855000236,0.3052882164151742,0.31284487374401704,0.3062796642448758,0.29676556104690516,0.3045784771114984,0.3331159819046906,0.37193915699764873,0.40349789746500647,0.41223500212922287,0.3954056150587269,0.3597184000380579,0.31364271076276834,0.27001161398162804,0.23386797433094303,0.2088656644809507,0.19799799390756903,0.19757165958006806,0.20574232293331707,0.22483226245868487,0.25218985500120344,0.27554467781901504,0.28473010622268835,0.27696399898563007,0.25018299951364525,0.18993589188622917,0.07539407688485673,-0.0915022867796483,-0.17413905301271382,-0.1688366710687736,-0.16138945572201308,-0.16574251581737048,-0.1864961668066979,-0.2286187879691222,-0.299899731239066,-0.4048727140473891,-0.4931800908791666,-0.4901256623372046,-0.4465880808356236,-0.4099285657729326,-0.3857100695203273,-0.3749162210158059,-0.37480526968769073,-0.37909033523019553,-0.38644684765829557,-0.4013875814084011,-0.4250385401490434,-0.4545508852546392,-0.48751180898034757,-0.5123427847745133,-0.5160095137798629,-0.495417999973887,-0.45523078606127354,-0.39652310615135705,-0.3204199910174742,-0.2261490300448849,-0.10997396297062194,0.01920801750058229,0.1404512225957202,0.2229918694571834,0.2534998849499351,0.2420984801077042,0.22439836416123435,0.23110859737731915,0.27958774257596497,0.3503515547275927,0.38972944860339226,0.3661421319520427,0.3063954454597683,0.24588904846248635,0.20432970213587415,0.1971439172589813,0.22729431562356936,0.29544651562370533,0.3931727781533549,0.48107612393101273,0.5292471498753151,0.5367506865610172,0.5091635175847793,0.45396620837548307,0.38654448474048336,0.3248663956331094,0.2840833664825712,0.2620846882523442,0.25014415808303253,0.24286060324637476,0.2345381197836792,0.2236465847243263,0.212905681378169,0.2073064637821799,0.2079897646606484,0.21417070549715136,0.21941391369896074,0.21512067768593887,0.19608493470359842,0.1700069869113074,0.1475807284743656,0.12920505167609173,0.10065296366270594,0.06028182267806131,0.026760509154541694,0.02477990536677451,0.043174275544679744,0.06096941908066882,0.07288249062166743,0.08837325214066791,0.11410285749722252,0.1520174932425785,0.2012328120126583,0.24910454513725452,0.27984387784333414,0.28390698242812384,0.263317275889748,0.21528652183105343,0.13105454923147083,0.008358863264471194,-0.15559263043199426,-0.3564498001907301,-0.5625137748862573,-0.7107312117153615,-0.7884145289403358,-0.829885706567996,-0.8579392889676389,-0.8754797803945074,-0.8788852863540275,-0.869509627812941,-0.8524372570088307,-0.8248132417243833,-0.7743080669636447,-0.692292520979032,-0.5698995938786652,-0.3219819627189067,0.27738290957520373,0.7143458033665069,0.7933370542718066,0.786725315226365,0.7260415068544915,0.612494028592607,0.48935011038477,0.40758982817236383,0.3817304947209742,0.3924916562172451,0.4099611478879835,0.4082170995013459,0.3847004661117328,0.35540058929543167,0.33489020206219183,0.3308424059851567,0.3268735360322792,0.3132189777776042,0.2930609610859771,0.27863449319709327,0.2733203346158017,0.27332544098905204,0.2765360426931972,0.2835367106375461,0.2983206975628962,0.3203259407398028,0.3519886833376243,0.391612778114999,0.4335842467472724,0.4757604792106773,0.5121488845104593,0.540483369079886,0.5576404382028415,0.5538687985281734,0.5296399013738093,0.4968858248555041,0.461920881444136,0.42905857039550693,0.40388467305389497,0.3854272825907787,0.36541972919656024,0.3457022759595705,0.33773281947463996,0.34394900174165227,0.35397515171536803,0.3575785323091012,0.353277533673553,0.34931354433617506,0.3507297465039522,0.3543281447256749,0.3469643417483786,0.3036407400004307,0.17354688211597574,-0.15598651259036,-0.5088611586770581,-0.5994493914295613,-0.5966282859776804,-0.5605846165315947,-0.4990239809948526,-0.42565928547668064,-0.3567712713795063,-0.2905380404300094,-0.21106106813288356,-0.10250155473739805,0.029423263810413488,0.14699207258228245,0.20809156452112282,0.19431439868016692,0.10876906059358438,-0.02191290563552123,-0.14876764747354462,-0.23905273858053472,-0.28967103901514035,-0.31717715393756873,-0.3374559530586056,-0.3653544327424523,-0.4064655156401431,-0.45922594523617444,-0.5133794952115561,-0.561110362739696,-0.6033887586653752,-0.6462423505609249,-0.6967556641715452,-0.7464282283056154,-0.7823472294996511,-0.8029956949559636,-0.8165833459643052,-0.8260664667421711,-0.8027449787023023,-0.7136258909360569,-0.5756216383463846,-0.4289159049106848,-0.2878498888002159,-0.14240151424708913,0.009066273161713014,0.15825062866500975,0.28441932033204775,0.37650065265577026,0.4360369875178669,0.4716182776915424,0.48211065663052116,0.4717652804100432,0.4469243398753049,0.41868520630126466,0.4026043120540687,0.39331714993922273,0.3692617613891763,0.3339829322699769,0.3032593138578054,0.2843030825167466,0.27655084928120033,0.27765393010681744,0.28836748291651015,0.31571066952345017,0.3541000524089218,0.3807924460885912,0.3798685379906528,0.33529620592678494,0.2048506464790592,-0.01005382599216717,-0.17555957254489116,-0.2440779646940357,-0.2582555849547679,-0.2231688077865271,-0.1378978280623233,-0.048443461038495415,0.006348900384685658,0.03606327523971156,0.05608326150642042,0.07541575404465141,0.09483279813991075,0.10014279430953069,0.0793785241513025,0.02261225103189865,-0.07368741884184873,-0.21270770173181933,-0.35633707698930417,-0.4725347786558072,-0.534572104632574,-0.512774783317245,-0.4448895744536407,-0.3647175392652746,-0.29139309482724823,-0.22810549305048713,-0.16884931106183126,-0.10407784920061089,-0.03507146803130291,0.02342342204340284,0.05954041695073606,0.07091134258272556,0.058865386874996234,0.03002109030042475,-0.0036914296713832892,-0.030598431262081,-0.047652010768919346,-0.04926645546255627,-0.028234187055877758,0.006431710807806555,0.040225475352916346,0.0693347776775822,0.0934472898111089,0.1115715424258885,0.12450081754300434,0.13707382730380274,0.15201626293521456,0.1686514986548844,0.1835439082061835,0.19356888011983453,0.19528018123194293,0.18312697578384132,0.15185095060558246,0.10145255368016362,0.04643953683675708,0.0021223523012263708,-0.028454559023798426,-0.04701220911974567,-0.046839887403045545,-0.02353749980991003,0.001707737011505661,0.028266774799020424,0.07001846331168811,0.12211743019831754,0.1756980086861903,0.21231350986690056,0.22794956980350586,0.23444531400315574,0.2420355583874041,0.25004483595084964,0.24130426614212652,0.18266629539137358,0.05304685220824892,-0.1269781438950698,-0.29362952503357936,-0.4027403397189884,-0.4703279593123952,-0.5175201937493088,-0.48011895309545477,-0.3178686000063002,-0.167826474406949,-0.06466072576892623,0.0143793173784546,0.08286099949048344,0.1483363421557319,0.21649664627957024,0.28698273335978514,0.3558712454241297,0.41285546326094663,0.4495948915368699,0.4667933462822805,0.46317902025293656,0.42358538208595786,0.3293372793842823,0.16790454202497443,-0.026203829918860718,-0.16642178117483533,-0.19880060131576083,-0.14307022557937668,-0.06339604722575268,-0.003461778265953384,0.026370295399217345,0.026719360511647444,0.001281903293165253,-0.07048855905267348,-0.21279200947748497,-0.2955286813242462,-0.3220059666909424,-0.35345403665805886,-0.39821708122561283,-0.4482840690383276,-0.49123265425723495,-0.5058604102915982,-0.4759565967007126,-0.413261674867151,-0.33828325522446895,-0.2616883872582581,-0.19148520351802534,-0.13529924227957668,-0.09733647025912953,-0.0738734684818014,-0.04717803967283449,-0.0059521778279961746,0.05316421740093706,0.11859005245705462,0.1815614427484417,0.22126240982547915,0.2262891016331539,0.22411031628385145,0.23357552750253738,0.25422717603544126,0.2711859357689676,0.27899831481299925,0.2890385610457924,0.3141112018854374,0.36542773793648786,0.45092372990919183,0.5692578194777281,0.6998965731817759,0.8034899937141202,0.8630471255587905,0.8941083126008995,0.9097057356813524,0.9128251997141228,0.9021242781946543,0.8767181033663721,0.8412924104306819,0.804195523016479,0.7615788027993868,0.6843267032595497,0.5035895826251293,0.1387164772102857,-0.28357364254164935,-0.5412982527546749,-0.654997333542836,-0.6825026473281195,-0.6581700242276233,-0.6104060780534826,-0.5637506667641162,-0.5297622599512758,-0.5111831397423633,-0.5027272718300302,-0.4982518056425182,-0.4932011100005902,-0.4821444164600359,-0.4637729437542954,-0.4342775001981534,-0.3955707816136275,-0.3523620689416682,-0.3085833618095023,-0.26862937287580546,-0.2333329142370304,-0.20275695199609248,-0.1755263743742232,-0.15482994568591596,-0.1481368516651895,-0.15736024256336084,-0.17742265661662332,-0.19863699888402914,-0.21737702435068135,-0.24831371516022677,-0.31584847369130975,-0.4066654041416041,-0.4477262445721039,-0.4288210511174548,-0.40522858758935404,-0.4273695874719025,-0.5152475882587038,-0.42972735970737064,-0.2470932641206412,-0.15953503339852548,-0.12428245719212916,-0.12561505876778406,-0.17511392772840895,-0.24455387849588228,-0.23919274616800543,-0.23361644635451043,-0.24454369091857003,-0.24646477214309212,-0.21492443096905647,-0.1646872830736444,-0.12323079207694888,-0.09472722667367332,-0.07402672201586137,-0.056892040139526166,-0.04145960387528231,-0.023692625442982125,-0.00036668865250896987,0.0378859254462969,0.10219165079291076,0.17611991472299612,0.23259779476133047,0.24565735288921958,0.21684059235414868,0.1790546305918807,0.15694750911074487,0.15033279474825775,0.15737249183718124,0.17655022839116544,0.21308472187906632,0.27199390375852417,0.35399928236454625,0.4511047768063855,0.5446733801899157,0.6096188620607782,0.6341168752702813,0.622422940487368,0.5822996569715442,0.5330654987911598,0.486464670670852,0.4350741075701187,0.36101475836153146,0.2594954591458199,0.1523930751799347,0.06764914423813423,0.023914087289666413,0.035100695723009986,0.0919579006875495,0.1643765978584678,0.21428720563816817,0.2275006736444546,0.21596991714465058,0.19665068338071726,0.1772363525306614,0.15219397343641233,0.11807574086879961,0.0736500081247129,0.02739238781240941,-0.0176848789052661,-0.07582490784724553,-0.1580327501585687,-0.23613092007803219,-0.27646312885014035,-0.2873882306305057,-0.2892887808310989,-0.29276697970464294,-0.2976000408014288,-0.2961371450700238,-0.27342393155928446,-0.22372073295377037,-0.16599267744898477,-0.11815448886351224,-0.08523489511100821,-0.06473794754188243,-0.05030917215564482,-0.03667474673297914,-0.024424562080987134,-0.013671496656239002,-0.002321162562375865,0.014098400349857714,0.042342270282073366,0.08279016895378608,0.12787612308509608,0.17376757542471852,0.2173398106659619,0.2527548236260179,0.2645817494043571,0.2561869196211514,0.25135848820555556,0.2593896361950199,0.2730806382074813,0.27687742498488876,0.26410384802917886,0.23634936919085786,0.2013678102777026,0.16678508076717846,0.1378526394466854,0.11180098448164494,0.08553943851058063,0.06386836144751215,0.053579568727092186,0.06495738331886833,0.11115357764399199,0.1976979715070205,0.3019842412194413,0.3962709553299953,0.47297698791066445,0.5311118545515239,0.5621114758213317,0.5485852556034306,0.46044837632863417,0.2505787638427567,-0.09599138232423232,-0.43364092088023665,-0.6306642538752679,-0.7207560683629489,-0.7526574050413448,-0.7501300794404236,-0.7262100189029236,-0.6875077179125214,-0.6496218025998242,-0.6271986199058416,-0.6219879923288962,-0.6287160205823985,-0.6401044222786298,-0.6477104523520241,-0.6373371342646812,-0.5933065712001399,-0.4975929217424358,-0.3417884978450342,-0.15781491212738422,0.009745613108522528,0.13904591597623148,0.2264373873821161,0.2828985425054926,0.329400997453921,0.38570861014687013,0.4580452347222723,0.5329646242039542,0.5898790428751663,0.6171945829772396,0.6140236788287976,0.5872336754321286,0.5427827608195243,0.48931622666663915,0.42980058116984693,0.34593803284793595,0.19807129826032113,-0.05774630708729936,-0.389396977869834,-0.6497143190441963,-0.7832217070232125,-0.8416507679077556,-0.8621828785310184,-0.8505676424957223,-0.7890696228638552,-0.6301058809782971,-0.32540402350403075,-0.008215397254103635,0.14629993632022403,0.15594393028839285,0.08387474025634321,-0.00011215476935971779,-0.0334980989386432,-0.0006619672717462126,0.07808008384472709,0.16731232941121083,0.24614491019364265,0.30676028627867397,0.35231846375381654,0.3893997283404576,0.42385216730451103,0.460633288991084,0.5009722825500044,0.5279577085248595,0.5111811425993245,0.4475895474382965,0.36594947595746274,0.28234965903124976,0.20206949132793578,0.12667863398537293,0.06643025465188167,0.026143859561843737,0.005516406028739528,0.004268822537740592,0.02085517078380742,0.05045791925087303,0.09396254693639444,0.1528102709862891,0.19259403098617958,0.16928043379274746,0.14790707561154612,0.15771014444110498,0.20994333489452457,0.334412425025285,0.41417501705219517,0.3045474910026766,0.23881010214527007,0.21710760144777969,0.2256286710822622,0.2569897000370201,0.29754635729042445,0.32343316724780263,0.3022542779019399,0.22663334862772153,0.15107386100616654,0.10553894227406814,0.08431565870501324,0.07756712302199088,0.0798780809970401,0.08693116707066399,0.09866696105988852,0.11052912908997725,0.11443043120877261,0.10665235761340784,0.08506617777638897,0.05211622382964931,0.010135674299488527,-0.033121048112481156,-0.06741348570710194,-0.08123361490989969,-0.079350296007639,-0.06977413135762936,-0.06704202208186247,-0.08759329302181562,-0.1342239746967945,-0.19612291911021135,-0.26195783864910027,-0.32708336673661603,-0.3828037870561974,-0.4270660749263759,-0.4629709673094417,-0.4795415402491724,-0.471135664820515,-0.44229417403115806,-0.41030840577995403,-0.3870656047984594,-0.38003369763554606,-0.38422150977985314,-0.39273252080426135,-0.40282400587156264,-0.41250701936953077,-0.391375937010511,-0.26676646557995787,-0.12592704222120346,-0.05381045159595269,-0.020835946250986757,-0.0006093956566989268,0.021420698656288536,0.04952968003059018,0.07843960427861382,0.08637558283625574,0.059607580315622875,0.02324394854403238,0.010065768589990906,0.02632909172802729,0.07845079757315379,0.19678395793089518,0.3895471731922018,0.4134416007476496,0.40858394529921294,0.49427118258100355,0.5349777979991854,0.2829231732862947,0.13020218096314234,0.04222662759130721,-0.020384583513661386,-0.0635568634911817,-0.08482305979019185,-0.07387330500004195,-0.02466146643033746,0.0465031826450842,0.11097504079791164,0.15932219059973923,0.2090171043910231,0.27613489636600064,0.3719313078392681,0.47508895065578965,0.5380040370483434,0.5481826677486067,0.5236195574121438,0.4791197580140648,0.4228729813399685,0.37371564222951964,0.3399775758118478,0.317562197039209,0.30486673082165905,0.2877575672536563,0.2555693446946138,0.21329039586560478,0.17426449567543567,0.1579969160088881,0.17332997224565552,0.19073556221547888,0.2095875948180355,0.23890084973250056,0.2835107358732643,0.35125157414218294,0.4677210441379574,0.6622656206403822,0.8314508463749238,0.8292874412393164,0.7924669260063907,0.6634135528003094,0.10097026657145454,-0.4110939019431531,-0.6147370772939794,-0.7005896214276516,-0.7398225390732666,-0.7570574487381734,-0.7581487914284984,-0.7444415778228971,-0.7109156969791756,-0.6564466761666062,-0.5984712513914862,-0.5489533979322121,-0.5039469616201271,-0.4642173933966003,-0.44168926591849433,-0.4491818737705155,-0.47836976596581937,-0.5110744650856321,-0.5315469024058486,-0.5333212024318293,-0.5170142022725476,-0.49694979434693687,-0.4765402661847475,-0.44672569512325194,-0.4027519967412632,-0.34582676411756014,-0.28759794046220244,-0.2390086707100329,-0.20847866944957752,-0.19388956856207323,-0.1941698151889877,-0.20348714240287752,-0.21158721566861374,-0.2156706445798989,-0.21523109876902005,-0.2118265248027808,-0.1993808051231637,-0.17615151618704689,-0.13988463769892845,-0.09848224483561169,-0.06638341251110418,-0.0624568848821074,-0.1033059908548786,-0.17612958600265832,-0.2153919878629845,-0.15983230217972735,-0.01805754964860499,0.17128403285237118,0.3562035344199906,0.5101421828203588,0.6161570715870747,0.6812444316204571,0.7187639412864574,0.7371582347388053,0.7438832962345073,0.7412873591495192,0.7281011612325545,0.7101303977914769,0.6910186606698545,0.6719945841288187,0.6484199216334453,0.61689473197479,0.5719621331751207,0.5180960720049844,0.4685057800679265,0.42938828105262544,0.40292913680865927,0.384578395801214,0.36717362046442065,0.34129425250137047,0.3030711735244155,0.2586168795545087,0.20513900889777378,0.13932063031485353,0.06322377157739634,-0.02730534741495505,-0.13514929781714713,-0.2384959215533618,-0.30149240253382087,-0.3047026694908712,-0.26491350667368796,-0.20719012788205532,-0.14756141883326818,-0.08671418533144273,-0.014604689914810632,0.07823596041967348,0.20525210694451143,0.367772680012959,0.5334527325508956,0.6538642765478767,0.7203300513658101,0.7488678967559009,0.7538953779032413,0.7345200530238857,0.674666347947966,0.5549645935450666,0.3922777133025884,0.2510660203227614,0.16074777474187313,0.10178079546888012,0.05210175913380184,0.00010136739440240424,-0.05423508650528822,-0.10957863676205437,-0.1660054790796563,-0.22791194657264635,-0.30295873253539723,-0.3922036860386962,-0.48034194036795136,-0.5395781329381512,-0.5390994692445276,-0.48647150257575944,-0.41955025996326056,-0.36733698401462783,-0.341335531745212,-0.34346847200994446,-0.36802908852210475,-0.39876155616801534,-0.4192012172858816,-0.41453836477142036,-0.3804255480382118,-0.31703910464310164,-0.22178357348513242,-0.09552105004540411,0.03788576497505564,0.14814070928480877,0.23464409485392673,0.3024122801057333,0.34103336064106565,0.34197259063931446,0.3064321966517709,0.25433768115311856,0.20695641502002285,0.17363231613919822,0.14791037560859197,0.12249829039864944,0.09311984658228295,0.05969030812673731,0.029106414880483548,0.0015573852423408797,-0.022467145827551546,-0.03900982115458275,-0.048029760626989264,-0.047730218573843394,-0.03383745681821718,-0.002893466614268241,0.03730994873664582,0.06303021436530853,0.04540067777218683,-0.02126400631557569,-0.11333221548236065,-0.19265657332941835,-0.24183787970532136,-0.2715528823402863,-0.3074432805503995,-0.3669194837714044,-0.4486661633801208,-0.5276065057311449,-0.5800804890179616,-0.5986298838618656,-0.5903795505632393,-0.5658954368059752,-0.5368590039197692,-0.5083695737258227,-0.4830421428276387,-0.46002609500905234,-0.44220445157680954,-0.4328778376271582,-0.4249292380585744,-0.40409516307007676,-0.35484302132205325,-0.27233503913799584,-0.1645984767903321,-0.054364900393533706,0.03501031186638049,0.0978997865723664,0.14461137754001302,0.18828418734290683,0.241425374481399,0.3029499565242928,0.3664160401095696,0.41564843002999635,0.4363271855328925,0.4279393832908899,0.425324997376874,0.44723389711974265,0.4388650900642919,0.377481446567453,0.34516881991699,0.34501913544405505,0.33570923938558295,0.2943647325019228,0.2495979845261734,0.22517197725875443,0.2222643294016951,0.2276434002844035,0.23049083955422187,0.22346098571414824,0.20657487597601792,0.1885589734488498,0.17773154445410236,0.17620900318194915,0.1759254292249831,0.1726251925818016,0.17042474695402535,0.17231230176616047,0.1783248855636907,0.18781042477243326,0.1899976141401404,0.1775882422376374,0.1615676291481438,0.15886876743780454,0.18417578208366914,0.24974442367827118,0.3419921812262277,0.3604311374787918,0.3059038883376854,0.26164946511508425,0.23398636243737128,0.20876910154392372,0.17184388911751017,0.1261592759891822,0.0951990242069148,0.09053034197485259,0.11010191832018916,0.1515420170298774,0.2038109098184289,0.2588387826222666,0.30840600188120737,0.3455176935325646,0.36032594381384797,0.32757781492973104,0.24743893427479996,0.16968656014693803,0.1189836903579169,0.08263833365730192,0.036630987426936754,-0.020774779479745015,-0.07368700383474411,-0.10805530887609482,-0.12381265254135972,-0.12622803693713255,-0.1149973997738241,-0.09276864827047826,-0.06550555260185022,-0.0405078872616718,-0.0295510268104277,-0.03893669868585413,-0.06786057668820565,-0.11177791044880107,-0.16171187546840668,-0.18592062431769188,-0.16521429973903634,-0.14608006573510918,-0.14735176502561131,-0.15437290827286082,-0.15284389841269755,-0.14113407508446557,-0.1240752978874251,-0.10789198843253106,-0.09741343761237646,-0.08886993044207074,-0.07698040539015308,-0.06701509119610452,-0.06952407338073457,-0.08223085025967318,-0.09774057320893768,-0.11030833896527228,-0.1197304884513859,-0.1281840713395545,-0.13558231365408965,-0.14319774764461493,-0.15573390333037557,-0.1713693219567972,-0.15896873132248643,-0.10781634738026169,-0.05677027573940615,-0.02539462973403569,-0.012952914301729164,-0.01839469024360885,-0.04122514513921463,-0.0783016999492754,-0.11457887033528895,-0.12146967356282574,-0.09441082453055141,-0.04846214413609156,0.0007154520540277739,0.06336215700192423,0.17148664865573873,0.30705339097372486,0.4134718546261468,0.4743896782058867,0.496010355478048,0.4749093842232716,0.406826102356269,0.3195093268965748,0.2636225698575873,0.2522752790339539,0.2724353075359688,0.2928066226272117,0.2971377710671546,0.2872011464123799,0.26351265634381443,0.22781686442602736,0.18391231824381088,0.1491954942205026,0.1343561705112619,0.1327259103528909,0.1392412864719852,0.15960558121350996,0.19878626630576793,0.2641244099306603,0.3515917526277717,0.45145959118412704,0.5477280008357831,0.6221452012458886,0.669909712657505,0.6896196828042698,0.6870147897578218,0.6738441079550713,0.6406164643315128,0.5457541730561689,0.2639974349704437,-0.32953699691640514,-0.7531596673973977,-0.8894595458144274,-0.9330364079337169,-0.9478324156154638,-0.9505045000863266,-0.9468534587506607,-0.9378776889678203,-0.9232930266321135,-0.902986856554415,-0.8761874547148655,-0.839510222193307,-0.7855254285768147,-0.6997119511591362,-0.5657593491260299,-0.3845724490933612,-0.19420966257623826,-0.0337640268846181,0.09868907840206448,0.21097073019692006,0.2902798979438969,0.30276300705161324,0.25262041328196394,0.1887456308596709,0.14376860992171234,0.11951835277614363,0.11477068078978486,0.13027802414281126,0.1909340262580828,0.34196795218739207,0.3767596780182072,0.3233243165225338,0.3356333606484946,0.39820604589602,0.42945723605416425,0.33781935964121046,0.26118472191618664,0.22791902686978727,0.2150863804968063,0.2024047630338338,0.1855937294647152,0.17415314712844046,0.18323557690825593,0.2209129799536038,0.2902804701875916,0.39746806255214134,0.5396679533197846,0.6773183841329781,0.7597898643578119,0.7902100032261957,0.8008991559500214,0.8074036879351253,0.8120440714258095,0.8141032436070623,0.8139704172919506,0.8118017565499737,0.8078139607716388,0.798689765386077,0.7703573129600201,0.678299536373741,0.46767946006653754,0.2322527811828197,0.084766281172995,0.019873323343477686,0.015285860090061582,0.06097569538059877,0.14401831399862114,0.22281140555988488,0.2437961943565243,0.16759665459149198,-0.0329129021261554,-0.3583432480849816,-0.6561559462219685,-0.8113442732790659,-0.8649340085674119,-0.8740035645976474,-0.8702381456420846,-0.868453925716073,-0.8698291413660819,-0.869149819461817,-0.855755140598507,-0.8210668587864398,-0.7616596424207676,-0.6903693595722313,-0.623501902687184,-0.5657571919503634,-0.5073776527825709,-0.44154127818866074,-0.37054917339482135,-0.2938825675408591,-0.2064185047082488,-0.11053775297210983,-0.028361484337805134,0.00668863945145486,-0.028666108696375422,-0.13644163279909802,-0.28942966210602233,-0.4359800545405665,-0.5583158398343232,-0.657291667992221,-0.7308014178875328,-0.776683277251834,-0.7946858608632568,-0.7882827006377,-0.7671016161659141,-0.747140763335303,-0.7388850274892479,-0.7421760109450402,-0.7480709968774526,-0.7396433496492968,-0.6914709749903543,-0.5718837778953298,-0.3881215122816948,-0.19959612186474196,-0.03364147664434072,0.12259715331680553,0.28034391100554806,0.4341843611242416,0.575445756248945,0.6865453809054181,0.7651050897624848,0.8127121852405841,0.8338459873259446,0.8303030175711147,0.8057978672206055,0.7667618018739791,0.7267846985344802,0.6957608543387659,0.6800583275184623,0.69501634771911,0.710116641712881,0.6360004199320233,0.5301410385534399,0.48744709857561047,0.5112821986097585,0.5746896714895543,0.6300529179230738,0.6455729080822615,0.637950082945982,0.6354440775372578,0.648408554152027,0.5853420477663378,0.4136593464263578,0.3026686870027229,0.2627292845832119,0.2589995639613194,0.27212044923380674,0.2914738024169371,0.3086499529582573,0.3137953646591424,0.2953782885052266,0.251729288700425,0.19592108529465627,0.1454525015337872,0.11029957460259017,0.08134423616664303,0.052055863758554075,0.01990827902383136,-0.018088432400992067,-0.06471307193434651,-0.11582742136971891,-0.17366195957170596,-0.23291414056085577,-0.28847909843386255,-0.3149705650342139,-0.29881212729968115,-0.26584845338808555,-0.236351627717722,-0.21767186824413529,-0.20748288873953935,-0.20134188337038486,-0.20139038890104824,-0.21087873548319247,-0.2332240281201756,-0.2676166731721702,-0.3099872713814268,-0.3530649610127921,-0.3892326924349889,-0.42075109123250953,-0.44783220108654,-0.4603534356949994,-0.43320133080891904,-0.36056783006069393,-0.2788886263858089,-0.21999115018694512,-0.18577544295512766,-0.17336553430212118,-0.17898160034645144,-0.19427549240824638,-0.20740147331087552,-0.20655719387806376,-0.18451728743400117,-0.14829006321876526,-0.1016098492243693,-0.054554498740306774,-0.02552675450419647,-0.02430938321681446,-0.04365837656354381,-0.06864869539457565,-0.09507480454284618,-0.12594815640515278,-0.16850541133015867,-0.10450564241534518,0.06934066015110511,0.15329218527546062,0.2247224460178696,0.2865812974320418,0.32447150761173815,0.3357526760011568,0.33922006446193975,0.35828012766678685,0.40654472950059184,0.45483652653660633,0.45088095994742944,0.40421735915648194,0.3718953541906155,0.3739240134484218,0.3857386107860728,0.36883810908991765,0.28968739213652006,0.1318381395550225,-0.0755350707085568,-0.26432371924021547,-0.3949248923970529,-0.4645505691643468,-0.4844626030634439,-0.46149919892788566,-0.4056788406852911,-0.3321367411518093,-0.26131008742080614,-0.20666201203293993,-0.1686010558672164,-0.1441669947920043,-0.13657643960971966,-0.1500599710403517,-0.17410969310808386,-0.19823911365637553,-0.24155630489196325,-0.31296304914747536,-0.412662390763167,-0.5074590976635212,-0.5396044199436981,-0.5091763649136152,-0.4505396939554163,-0.37785580412582015,-0.29129672628252734,-0.21047438415952843,-0.1271316011711072,-0.010574936248011561,0.1436157052288637,0.31153232689718646,0.4491699946069811,0.5353706306306888,0.57394972245225,0.5721165495509665,0.5269587830162821,0.43466487618352556,0.2947776345739418,0.12001889477485192,-0.05361753089582819,-0.1879386670181874,-0.27442688957488276,-0.3281434712920427,-0.367825039789717,-0.40894137268985303,-0.4515107257302366,-0.4965039165151788,-0.543348131302374,-0.5829954685169336,-0.6104692586270135,-0.6175165454545091,-0.5927969927684739,-0.522256106484668,-0.3981111173963347,-0.22839658579907576,-0.03489530536358677,0.16862762671401488,0.35570481338576226,0.4981886360001911,0.6022816266401236,0.6780710958285401,0.7182059695578765,0.7118532354945587,0.6717360932705885,0.6464572747861965,0.6576245778967167,0.6993834515821354,0.7532272629109013,0.7994032822195516,0.8266773391674662,0.8312781503341071,0.8141279527700023,0.779105678562589,0.7342605796302887,0.6869080026064833,0.6271178092265006,0.5499323874609144,0.4722035925545726,0.4078468246026882,0.3617254581256612,0.33171359487167423,0.3073352648337934,0.2814484408701434,0.24838244823811081,0.21393572037055672,0.1976158681365267,0.22138514200314827,0.28937617282158895,0.380335112961093,0.46592007275452174,0.5397558903035591,0.6055122445242298,0.663791575562553,0.71444660365239,0.7431342307209279,0.7267265562057116,0.6291885709715375,0.3746128011224474,-0.06388634380026459,-0.44784475161454207,-0.6429568988672075,-0.7220117427754309,-0.7401920735081383,-0.7184927650818078,-0.6758063672346271,-0.6396514288847883,-0.6297966205148405,-0.6400510199713314,-0.6536891810515592,-0.6633363264489265,-0.6685353534525388,-0.6719579887357491,-0.675221467429284,-0.6823609400387755,-0.6941014753292233,-0.7070625547760486,-0.7121718073640224,-0.7036213103379523,-0.6871436523773595,-0.6680183648722323,-0.6411359202602596,-0.6006552969057208,-0.5423197567318634,-0.46585157723457415,-0.38149048957297094,-0.310691360315863,-0.2640485056825055,-0.22860457535201534,-0.1873515651330182,-0.12135969770434271,-0.021070471115753237,0.08207761709092128,0.1108175100810449,0.05422764944900449,-0.025986083813054745,-0.07073726821126722,-0.07273572396328756,-0.03627306276586768,0.03453561740696384,0.12317749954372718,0.19964511669187,0.24742196322992602,0.2820039146507107,0.32108556723632853,0.378486492599443,0.4570055132167266,0.5431327810638997,0.6014725417946828,0.586121725094391,0.47189391160568234,0.30297243288342623,0.15610467203096115,0.06372151303824694,0.019934816798895073,-0.0021961123873790967,-0.04158026528446221,-0.1073859876139581,-0.18812259953626698,-0.27262533781228715,-0.34871132862347837,-0.38823271499571127,-0.38316472621334835,-0.3458339639703099,-0.2953795001011775,-0.24372677619614347,-0.1732657899424851,-0.060286611251368305,0.04017704401973527,0.09162351480855671,0.10847590572076639,0.1061800454140367,0.09030321227540619,0.06947920192402732,0.05199208000351365,0.05027884825230511,0.06564401850321548,0.09449475415807608,0.13461685504062748,0.18405155612674817,0.23930572006814252,0.2939894665719284,0.3406974433860617,0.3681679815431856,0.3758796255842769,0.3668728177288333,0.34977716612593834,0.3321122860962752,0.31787840771536624,0.2994455694297656,0.2654262317754622,0.23260074108542422,0.2100389879811744,0.1949518824407401,0.18086531463880695,0.16319369704777498,0.1424281574487896,0.12132904349757222,0.10165890301724702,0.08177188241864314,0.06314839428183347,0.0489229558231899,0.042449463958597417,0.04194757737763385,0.04789809127618976,0.05284392009736923,0.04922477300570623,0.03909560004424172,0.029114325214336784,0.02216324949619717,0.020872955000122678,0.02350292583178357,0.025932620678290358,0.023954530881198553,0.02234277309546059,0.026241215365008678,0.03060333561892194,0.033111200345126726,0.03752752614728143,0.044349348025023924,0.055068631233776845,0.07725366821480412,0.12190662655509552,0.19553678259917434,0.2855952779457505,0.37462361104118197,0.446045607908704,0.4923489173587935,0.5155083522364475,0.5186538628371198,0.5080396027458562,0.49086239661950154,0.46293316969622705,0.4218936708597614,0.37116797625555104,0.32437785155276455,0.2872885043547815,0.25768223324783873,0.2356356387938482,0.2225293644128267,0.21158153858876916,0.18871459879036964,0.15475690027054845,0.10077895905827318,0.024799280400436052,-0.06808357129109228,-0.16261437500480533,-0.25463326243061096,-0.3613493019981432,-0.48532439047189035,-0.6077631610300829,-0.6915095584302212,-0.7192498242101675,-0.672482896465089,-0.537861126819416,-0.3702558619091176,-0.23673380827320017,-0.1488170720252704,-0.09396294960187304,-0.062248926239194376,-0.05207044003350808,-0.061926711121142494,-0.08246834456868095,-0.08363394194540887,-0.057080634857654425,-0.016869087772430583,0.01448316648798097,0.009236485855936477,-0.034554575327482365,-0.0936738718099689,-0.15382185658357733,-0.21133059043759259,-0.2593919369555656,-0.2807262435580651,-0.2488251480363947,-0.1523543154571048,-0.04854454996515569,0.027092115563269906,0.07826263570640066,0.11446384129639173,0.13799046362366738,0.14963552438996794,0.14984938651948126,0.14504900186420658,0.14605042093602333,0.1581791583463554,0.17854583192935558,0.19318666829434727,0.18966317147672265,0.1622997393653262,0.11259194650013181,0.04644892698479587,-0.024868063886818646,-0.0960499172670583,-0.16674061442824356,-0.2411128700434478,-0.3267027303977919,-0.4149597069466469,-0.48642756109631763,-0.5305111761408186,-0.5545311927660684,-0.5665725997829364,-0.5717454830436441,-0.5714679119386578,-0.565967702994392,-0.5571127362054825,-0.5427499024308734,-0.5161466605830932,-0.4730545680636161,-0.41481209714156486,-0.3501243627734709,-0.28503214119273507,-0.21809659257561778,-0.14152153994532093,-0.04608485078389891,0.0752014971257786,0.21499732414754405,0.35125859702865175,0.4591455995104807,0.5364348241876168,0.5913677479990913,0.6278830370087742,0.6475159510347877,0.6552234105848962,0.658302109405231,0.6619652554964395,0.6676486110390766,0.6745226891831358,0.6765920568879196,0.6676492040045414,0.6378407372268369,0.5845827832355163,0.5192494701994366,0.4653471825063624,0.4430206435615424,0.4534495639127797,0.4814735549117759,0.5031354313815951,0.5025895025516731,0.48775893715277724,0.4695605764949629,0.44946480106606257,0.42535237778563245,0.38856075471149065,0.3368707263320407,0.2748369342471532,0.20652636995321041,0.13685007065626492,0.07674610353261724,0.0315509355488992,0.00441624542234771,-0.006289423180555767,-0.0058032310806030545,-0.014154284394722903,-0.04248663035524346,-0.095965980986061,-0.1514638970124846,-0.19461279882149046,-0.21954751966491648,-0.21979744268194684,-0.20118716904605619,-0.17179058336539754,-0.15009908795814492,-0.14685548631650178,-0.16340344859613704,-0.17996798985685503,-0.18462349064899888,-0.18486631793445524,-0.19316239771939003,-0.20784344092758483,-0.2139543337898604,-0.18801635396794453,-0.09443455628043035,0.11796975265571967,0.40718446647178624,0.6228014057564571,0.7355591544898503,0.784124145730311,0.7918341547100074,0.7641886340831439,0.6998640401933547,0.5940989896838348,0.4606136888500241,0.33071176801148644,0.236157958914208,0.1852103390026327,0.16624724444696373,0.15544157374110787,0.138345298726967,0.10969535232493315,0.07843165610470267,0.04911115868433961,0.030638514411621673,0.02470948131636658,0.02178359991895669,0.015021200995776501,-0.0026743699559518505,-0.03305756233818961,-0.07622936668505442,-0.12322496902643137,-0.1598025886289013,-0.1812278046151634,-0.18438848766547777,-0.17876939100869108,-0.17324532978012824,-0.17516316205864957,-0.189300832310192,-0.21818429888308,-0.25548101835268594,-0.3025497650080362,-0.36344416640738275,-0.4407182284256282,-0.5199830357148989,-0.5799717356568003,-0.6135419919773865,-0.6226112916507989,-0.6185593318271135,-0.608204354814838,-0.5892202182822114,-0.558261701787128,-0.5136592188670605,-0.46637762624492657,-0.43139412246621883,-0.4173940088241671,-0.42105581950237303,-0.43328989873476437,-0.4435568731358977,-0.44591654578843537,-0.4327236654818373,-0.4052110822823322,-0.37170033588327994,-0.3511964745277247,-0.35111373207981345,-0.36889346643264215,-0.38800159283525437,-0.38418486966391296,-0.3466954808547609,-0.28178170767363064,-0.20497481259356315,-0.14673350274634891,-0.12115907579218164,-0.1241775850071628,-0.14017408678164636,-0.15295287958277945,-0.15406347068698018,-0.14751321790224847,-0.13397559209013862,-0.11531585927870859,-0.09308762126153981,-0.07387163504707828,-0.062411034717849284,-0.04410914117621386,-0.0038380424020356364,0.0680616991152325,0.13075366787086948,0.15197039200372278,0.1575120628963736,0.16915078320174956,0.2011946656753909,0.2649538813414652
