0.5381798090120066,0.4475286938012894,0.30186415159648333,0.10365445741081641,-0.08744705817041895,-0.1811918655317016,-0.13396518728426937,0.04502926318802701,0.27054000654370763,0.41369958775976673,0.4303480779890038,0.3389742403642275,0.16170219676809225,-0.0168712802689664,-0.1286081694767082,-0.16349855772536895,-0.1208317417743247,0.014035969403472914,0.1725739435232707,0.22647494414902533,0.2311270855609818,0.23682613715721104,0.25435781948933567,0.28354880152646383,0.31190046169108604,0.3198784511315543,0.29916172213345804,0.25429003425703106,0.22118553202662825,0.2542893869201434,0.3655287484913732,0.48775011032795784,0.5309612208644223,0.48988735744827444,0.411875076201211,0.3346661400251602,0.26599950690252516,0.19974242910221784,0.12402073165470691,-0.004315489860186634,-0.23911489360281288,-0.47159320017775647,-0.598565278222416,-0.6995370994374414,-0.7922226122756574,-0.8675361941591188,-0.9165139210771769,-0.9399495542037651,-0.9439035347922191,-0.9306727969206957,-0.8869835949451351,-0.748284966227762,-0.33263604358735244,0.21215903995473495,0.45143305466688505,0.4948845382485464,0.4484053924975072,0.35770201650932504,0.24903419749596958,0.15422428379663822,0.08276817404915336,0.021114283351971182,-0.04380416402957404,-0.11763282411227043,-0.2136535412151915,-0.38022905434190957,-0.7119728379063441,-0.8950606430176579,-0.6627743961458189,-0.5040180826321011,-0.4188227917436653,-0.3710701639748943,-0.350980243780459,-0.35436808808407533,-0.3461470083835712,-0.2509378183801666,-0.1226272680259473,0.011645831251622852,0.15324675786031325,0.2811610505264726,0.38617532443668234,0.478709821097356,0.5524464465109428,0.5982410141947826,0.6135450177273899,0.6086502514183944,0.6000150310857412,0.597515790086709,0.5961742116629282,0.5899979606867989,0.5941594385508501,0.6432779655055825,0.7303990705419648,0.7281350892719571,0.6672901684965097,0.6784658976887087,0.7772743704784801,0.8109501652474371,0.5710521572483442,0.37231381220669424,0.2915486547016674,0.32122348809794915,0.34221505213878867,0.1112960046757724,0.05607105832459268,0.04374507534962579,0.05509066802090435,0.10296999421120452,0.23188215583038913,0.3941400888927111,0.37221573386638884,0.27605420300764394,0.15201456836764016,0.0073071617154972564,-0.10775247580876489,-0.16522044544914907,-0.1704611674754365,-0.14188792201188752,-0.0935876602914169,-0.03440301605305619,0.020392417997533777,0.05610482360843616,0.06889042957877195,0.046998198375032656,-0.01789401674323076,-0.1197737697945565,-0.22973202086694458,-0.31471353440110816,-0.35296032557181756,-0.33827597582310764,-0.27565584034596585,-0.19243968489154714,-0.13495405790450055,-0.12837139465040834,-0.16290235954259238,-0.21195418824347895,-0.2460039608559847,-0.24565560772048792,-0.19452511172566891,-0.06673586795880224,0.15079390241283444,0.36983976814116765,0.49792923796321115,0.5019996512287224,0.3614952509501621,0.1694207401320669,0.05423672909362698,0.0017175512473549504,-0.021288383417439084,-0.031646644547613366,-0.026257264553562677,0.018231456929621394,0.13290498966150907,0.1660896416847406,0.18241250095881953,0.21272491336776642,0.25130416590638893,0.2512369238811373,0.16841201652444945,0.09266357231308016,0.03434465328531205,-0.020550828002435,-0.07111786785509729,-0.10782780164155761,-0.13166758855700889,-0.15226223794575808,-0.1427876667630426,0.010393456784614645,0.08617055420879623,0.1236708826549098,0.15638010464486776,0.198171820798727,0.2667257261274137,0.3986646802454741,0.621799611969754,0.7199989765109381,0.6233580504449144,0.5458186703838095,0.4986279394382311,0.46518624289202354,0.46339734236548646,0.5657789406935924,0.40119303928303696,0.10477711117237143,0.03540080418408635,0.013425602706835685,-0.0012947438020834172,-0.02912833697434981,-0.0891244074714209,-0.2031244075401215,-0.3760152369697356,-0.5695396473917712,-0.7216651383107245,-0.812169128647104,-0.8607996674880574,-0.8858481769337972,-0.8986665101762117,-0.9025184547967912,-0.8957861269914917,-0.8752495643618838,-0.8379571790744523,-0.7849134232178324,-0.7177535042239245,-0.6393259084999073,-0.5612719146851952,-0.504518127192176,-0.47549334780849967,-0.4649745969288092,-0.4436623406905781,-0.3962315633463413,-0.3516856563004871,-0.3356880086693042,-0.3460689603948769,-0.36362173355034055,-0.3689074973337972,-0.3576708314596703,-0.3338687538169621,-0.29665233119352374,-0.23671432321304958,-0.147956871249234,-0.029831976537894794,0.1000009697676811,0.221656193837392,0.3359036076984846,0.459666174682468,0.5859221743457936,0.6500876494586711,0.617570088358624,0.5295309488603767,0.44822482442939465,0.40331920751271705,0.40806912153412217,0.4648781006515266,0.568498863820485,0.6762212840558044,0.7262648229160455,0.7057101038796205,0.6225181139020105,0.45866518956545843,0.24287299812698498,0.09368769717028104,0.0874171699669097,0.19958046475529048,0.3788180343029037,0.5520187079403154,0.6757119219830918,0.7479746515990339,0.7868528995528224,0.8077906893647626,0.8189080823035312,0.8177409142107478,0.7906553922534603,0.7147064040741904,0.5519626192266794,0.28081789402857,-0.012185927231168351,-0.22264318247133205,-0.34684416537564855,-0.4389716089958182,-0.5353000590559117,-0.6509895044524306,-0.7509691033712623,-0.8043093359549162,-0.7881000944337199,-0.657424299204732,-0.38947901100377463,-0.13380525265053242,-0.009328924701297847,-0.03275808084945435,-0.20485164129417618,-0.44444313982727107,-0.6284406852512192,-0.7059251457545923,-0.7030669358895401,-0.6493230164482554,-0.5720400657778082,-0.49002045164802055,-0.42086730399978584,-0.3808037060673476,-0.3700324306442791,-0.38024873753594207,-0.4001407967477079,-0.4129545390769962,-0.4174770190212116,-0.42187429936544846,-0.42220094399790464,-0.41499917785818463,-0.3917843207984775,-0.337469094345112,-0.2621703984777201,-0.18558935514470448,-0.12217359850110546,-0.07663013979546954,-0.04835640128225563,-0.04081746580986507,-0.05482083808580597,-0.07959973909307408,-0.12134639092211288,-0.24155399632796754,-0.47899670127493255,-0.6917238239794646,-0.7741757083969508,-0.7018890010388947,-0.11740556313770445,0.7366717966102838,0.8949717431089759,0.9163479296188801,0.9049834554411935,0.8654489492499926,0.7875292629752751,0.6712084570574508,0.551548078885051,0.4748433542692882,0.45666357634140203,0.4511024308410524,0.4226371677284438,0.37113034729132177,0.3135199722582272,0.2678384138471036,0.24532229489260718,0.2398827343691961,0.22323082573715144,0.1696689405342385,0.14235733099135164,0.15453973950267405,0.19775396708770934,0.26276779182902527,0.3448895618442405,0.43523482195445157,0.5265010123737381,0.612521489327565,0.6852952431546514,0.7416946147183228,0.7913055551084299,0.8405682770951164,0.8400983277353627,0.6724116566879296,0.39136646135244024,0.13438100313989312,-0.07579429688084038,-0.24239775019028667,-0.40372757090227956,-0.6454223209872307,-0.9312804229229649,-0.7092216722459184,-0.4709495114948349,-0.33912415993516487,-0.2424350625558018,-0.13458637002647744,0.03264609671826417,0.273645093766675,0.5022823409650418,0.6148112989883848,0.5801262964317712,0.36213207454288804,-0.04310921464435311,-0.4309153603184794,-0.651565913530837,-0.7491457602306875,-0.7758786921898099,-0.753483292673217,-0.6948188142613247,-0.6335142869827088,-0.6150308612048135,-0.6535655416731376,-0.718237082354534,-0.7757766004495116,-0.809429310930956,-0.8176846357149047,-0.8004506134839157,-0.7555165486680143,-0.6805328399500009,-0.5733959882644903,-0.44803964737705304,-0.34756830187203197,-0.29709483629651046,-0.29401141230165984,-0.3410698485438991,-0.4563490554624767,-0.41043710862490884,-0.15175181890884504,-0.037674493823017005,0.021044938830067726,0.07834806539168587,0.18180277583741522,0.3743979384460801,0.4914436273469585,0.4376311589002496,0.38146597931814813,0.33372498964192016,0.29953307788320793,0.2931372311055496,0.33462335157232825,0.42690199989099964,0.54662324697683,0.6614627483083743,0.7545577566765259,0.8210357617224584,0.864677998993916,0.8910272736999121,0.9019314909445797,0.8978051241218026,0.8743470447488714,0.8270654036312672,0.754283117859015,0.6611988209723274,0.5658791464335857,0.49655971471266835,0.46507256126806823,0.4535040007284556,0.4362746012396573,0.40536775346741577,0.36164312925582615,0.30850363720607743,0.2577431049033503,0.24047350473169982,0.28013967990372785,0.36676834129621233,0.4844814428206146,0.6373212837633595,0.8224038289844398,0.9142153983720995,0.7390855305888293,0.479541005132897,0.26533969393817447,0.08876406990670221,-0.07158061452856652,-0.22731140553146656,-0.390440147734197,-0.6057540700996903,-0.7004559905082736,-0.5086408992945631,-0.42609942140585,-0.4238386803308927,-0.44216792613531986,-0.4355703294693952,-0.3979716603954112,-0.35675375521010555,-0.33473888598898466,-0.3489128162786484,-0.4325784193218522,-0.5647076693201314,-0.452660684414182,-0.3364486887578999,-0.3143536215222104,-0.3608730858174666,-0.49423125528677647,-0.75226791049702,-0.8000191003290114,-0.6085164573051851,-0.5349264513229951,-0.5592607319907545,-0.5926176659051894,-0.47318815781443757,-0.17363962492963303,0.021351884335404425,0.11852399058331216,0.18823381901942615,0.2609900067464154,0.3574748648738632,0.4950812600324472,0.6814237512463633,0.8795413263060525,0.9886037705444293,0.9822377756329955,0.9281159925491324,0.8588384566351789,0.7701082753946573,0.6493664855581835,0.4949082469701701,0.31296547950932446,0.10924283117560996,-0.11780797670594688,-0.350487645635704,-0.5472915565165885,-0.6839527312131545,-0.767668374729514,-0.8138644073784063,-0.8350257999647706,-0.8346201130657324,-0.8074748856540925,-0.7378584137505357,-0.5969404771399646,-0.3507304328660614,-0.024869396590276906,0.2653137084156382,0.4595111945395626,0.568017291361836,0.6132474256045005,0.6086201547300365,0.5649238465743965,0.5046700872433105,0.46067690152167845,0.4642679822500594,0.5328735871835225,0.6611101744130622,0.7864882137705163,0.8261800574119297,0.8064133076929229,0.7913157271488737,0.8093091846419418,0.8537811756455033,0.8877749317433705,0.8674079228942906,0.780485008058546,0.6323603233734466,0.45627260888991844,0.3042194516305603,0.20292199103158123,0.04001477135947856,0.00803217172941253,0.039683233964500624,0.07510152685528564,0.10864499450599913,0.13504356651816124,0.1320498235879639,0.07708126879214774,-0.020011495978131975,-0.12265349260769826,-0.1909429498924068,-0.19984999774516074,-0.13401262712648612,-0.019122931858421184,0.06740729611995731,0.0589572913602336,-0.03951088769504998,-0.17946442734189155,-0.29985533910930645,-0.376069187326572,-0.41376444635614257,-0.40833786095419317,-0.37556664480356977,-0.3593982440640846,-0.3690268799941562,-0.392385861685982,-0.3928753136310626,-0.24088566499734998,0.09832611625799638,0.3737862907847148,0.5583208552780686,0.6958085785678944,0.7862259760871961,0.8229552990898091,0.793385357885148,0.66396228979831,0.4882191401657343,0.39371948474957225,0.35893247205764717,0.32994333121589337,0.3096696548863202,0.32429952080712426,0.37342889266483664,0.42644821763228025,0.45658731140860714,0.45695459605993977,0.42582324600385524,0.3654145376981703,0.2640666956301709,0.1337839830777892,0.00350856597557409,-0.11659692376421427,-0.22954583481634336,-0.3372332922152991,-0.4406456236071122,-0.5279592051084797,-0.5839236235979537,-0.6074872395112564,-0.6084351469972628,-0.600974615931622,-0.5931559823481903,-0.5847255421053192,-0.5736117674231733,-0.5637517755428012,-0.5740090214105948,-0.620471659855204,-0.6960386946271837,-0.751103219992037,-0.7587063016012057,-0.7617140799056376,-0.7489640312348294,-0.4974690756931417,0.060113389324010905,0.39363033029742434,0.5751333351265714,0.700008710026684,0.7816820731406048,0.8156387341371688,0.8023031143463369,0.7447257808904393,0.6565517888354815,0.57206215739938,0.5165197738794738,0.4854998751899434,0.44936611591818876,0.37117730014757927,0.23236263868233772,0.04477155914191995,-0.1298338451691575,-0.23506370718338196,-0.28091454869662597,-0.2892904192419048,-0.27338086165939296,-0.24289006980392008,-0.2208478130456389,-0.2425592331386315,-0.3243506588511533,-0.4490294048875005,-0.5815704194608663,-0.6882939643604721,-0.7540132467641034,-0.7786225843206402,-0.7670140703039866,-0.7230786149373122,-0.6443828239095587,-0.5350328947559553,-0.4210118943862778,-0.32372985758971823,-0.22441815056410516,-0.012262022316068613,0.2850279921828443,0.4077825622591538,0.49985779847071865,0.6074231541356024,0.7324457921024735,0.8521753261013596,0.9354581960816156,0.9757780693050612,0.9867690863973854,0.9830943019670355,0.9715145166784271,0.9494743702433508,0.9022335017910469,0.7882732288736497,0.5207944846335751,0.12392060656882005,-0.1737194460145214,-0.3194762273288299,-0.401052074264695,-0.47473456091798977,-0.5551538565002132,-0.632165953635516,-0.6877991010901604,-0.7132185967153216,-0.6996980679197018,-0.6394206092879173,-0.5358061456586464,-0.4164574017155744,-0.32044265211086853,-0.26794013830098484,-0.24740294680767788,-0.24833229472781965,-0.23572182775757,-0.2359276735410567,-0.3054490860604659,-0.30980945123848735,-0.023759116860093073,0.04923071785999255,0.08447356767241826,0.1091023097745674,0.13264935823406393,0.16334408852738866,0.21416917733184992,0.32327504186544487,0.5633551804680264,0.7177536226950858,0.6625835557349338,0.6153827861369423,0.5592838374077771,0.4719959993281963,0.3295870377876878,0.1442077722127775,-0.0044632939203719125,-0.07354130860901238,-0.0868002187571447,-0.07879900644487337,-0.06484908171364467,-0.048544877045975085,-0.03118610873200496,-0.013764747777441506,0.008940304736278545,0.04024322238175572,0.07741260252953645,0.10676690567981335,0.11818836822845642,0.09828524575093789,0.04728730589126799,-0.02419273737927167,-0.08666427861787818,-0.11654906883217159,-0.10568335043127,-0.05638466923171063,0.012186343993586585,0.06792602619704866,0.08252170024297431,0.06886320131580796,0.05559565891078685,0.05913533904413451,0.08959612134744188,0.13490281235989382,0.16560652130248307,0.14788002981838844,0.07460841333043271,-0.019595073319850713,-0.09159720558345431,-0.11025186336209285,-0.056604661902767875,0.06787879509200206,0.23995465617454406,0.4144138998371287,0.5422912983159688,0.6207042965817376,0.6514663797744132,0.640218502711419,0.6092632873397302,0.5727584402637155,0.531479264714768,0.4786102286464445,0.41037325121192597,0.3477299915500742,0.3036627830294442,0.28612892212006563,0.29865157050936647,0.3298376996021556,0.37005967498162623,0.4185362041146234,0.47291414021847655,0.5109757110831349,0.5048257812087027,0.4389137447899851,0.3477167299617223,0.28712166593266836,0.2943830784561698,0.3863107620274898,0.2483209595681169,0.07531170595170421,-0.03512588341395626,-0.13721866986706077,-0.24556146082452754,-0.36028488159948574,-0.4743190576328589,-0.5693280491172023,-0.6271228291520166,-0.6454487146913765,-0.6391549117644283,-0.6243342286609146,-0.6059715073316122,-0.5795169604962407,-0.532052640356889,-0.4500452979338527,-0.338379534066674,-0.23215167115777804,-0.16799870694350455,-0.15733401716848794,-0.1908471648966505,-0.25090412657451094,-0.3165228829993279,-0.36858869325855403,-0.39550428421804845,-0.3885935426016322,-0.3538782803887711,-0.30523719908301167,-0.2512090545902874,-0.20359947021051455,-0.1716364311964759,-0.1521883177414047,-0.14111415121453938,-0.13175291392980787,-0.12532223877198423,-0.11882076357572545,-0.11135318291343028,-0.09545816203812398,-0.057586600135926674,0.030819830132610398,0.16254797460605622,0.2574595059491109,0.330377476550417,0.42085282026665466,0.5394051419214463,0.6141953018768538,0.45052248082012564,0.14595436024347908,-0.09208116713599637,-0.25195393615447836,-0.33338175761698513,-0.31270344725280214,-0.20163330522165462,-0.06491694891475747,0.0343979944514293,0.08954338907517827,0.12326037214865355,0.1527031047248496,0.18388232485538825,0.22300222388659885,0.27602594945684383,0.34640852328224847,0.4153503173315488,0.44226328392621694,0.41219678257479236,0.33953232225697594,0.2455985478042969,0.15979513938586523,0.1080818773273115,0.09860234097350042,0.11554834429884041,0.14832404640577634,0.19205813648904038,0.23502897968790978,0.2645009000610788,0.265420911508797,0.24387275424946395,0.22049234362882034,0.20908651556896263,0.20269795089287587,0.19448164454456685,0.17900636595791586,0.16591434128441024,0.1556389890402881,0.1410245256333383,0.1378059191265875,0.1794968413164668,0.28486124173066685,0.40232213523359434,0.45726773702274837,0.4444949582727364,0.3975368698774334,0.33944038418712097,0.2677839460088352,0.15691672488653366,-0.032655342801792525,-0.2644610548479217,-0.4353005063856057,-0.5133829049566989,-0.49429188450819855,-0.37688915348617646,-0.21761869162709185,-0.09748078170561039,-0.036975680187617925,-0.017714314248507584,-0.02541572720881579,-0.052176601642084264,-0.10014690694963191,-0.20053623512137325,-0.29702980537428136,-0.09585502125122704,-0.023234756791141682,0.009660192641856432,0.02575843361900848,0.028444984371577248,0.017505013307617723,-0.0056247235257152585,-0.02231280770259249,-0.00575538422788426,0.037040337276769836,0.04361368818268869,-0.09175190424090761,-0.43180250560909644,-0.7356320769987295,-0.8502460173338466,-0.8803565650684586,-0.8795439195918855,-0.8489132479184457,-0.7527293991125902,-0.5054326697337767,-0.050663851056775254,0.3944367137863943,0.6604373704001124,0.7856862075444203,0.8246068103245944,0.8048885189334439,0.7283042504783762,0.599267526270366,0.4400705448662278,0.2891235936283583,0.16986379599286403,0.0720951838459538,-0.03424716443375171,-0.17229065562017837,-0.3415350822748819,-0.47160744787973835,-0.4495895133059174,-0.33035813953378035,-0.17950977871525003,-0.00541542547814609,0.1619512821028817,0.2546548990044366,0.23202026304154535,0.12176983367503728,-0.018260130300914553,-0.13239225501135865,-0.1286858611120834,-0.006535191380176442,0.174543510425475,0.3711414296664094,0.5208650836906051,0.5914482385592528,0.610530663472942,0.5733259762916119,0.4101268618540861,0.23779614534876908,0.1329066009517666,0.06396713756832077,0.014817571878738287,-0.015896859715736483,-0.016806487734274293,0.027572483202063864,0.1401220677135544,0.3809040944891492,0.7387071784589854,0.6016468989756076,0.3802630350255824,0.23604904387793246,0.1295775909979645,0.03340560157252629,-0.10005789817129954,-0.2359661079467094,-0.13228948872746188,-0.0685670950653903,-0.028328513155833217,-0.001916215545855582,0.011384252164609254,0.008166879061577368,-0.022309631350983725,-0.10993921392062406,-0.2979243800940004,-0.5069379802461139,-0.5753617441070712,-0.5757957776361041,-0.5582396555085645,-0.5336968377652216,-0.5227862747926333,-0.54536322326644,-0.6000348962976215,-0.667473727358471,-0.7185976114421023,-0.7306024407957518,-0.6785895200322207,-0.5461403967228182,-0.36932732037917915,-0.22731772071784503,-0.16106286593956495,-0.16960880573578502,-0.2399115660800045,-0.350852813915922,-0.4690770362101239,-0.5258566922874691,-0.3372424168540969,0.2530114342841477,0.7055663357357158,0.8778563032202578,0.857856320484268,0.6802821306498827,0.4676195989740013,0.30762350443514697,0.20230488683159034,0.1371760934945036,0.10083982298699315,0.08860999510497175,0.11142905588683565,0.2574878631198275,0.4282774379120299,0.2620331249033995,0.23816987940717302,0.25641446477760454,0.2985348242588144,0.3592099094157811,0.4343892894944792,0.5198751679505232,0.6109578155020731,0.6986102037142062,0.7684504731908883,0.8087006982644545,0.8200409934598412,0.8060858912298978,0.7543448822200248,0.6019317332954423,0.13257686977303437,-0.5741019210303361,-0.8595856054251688,-0.9375729196894306,-0.9611143352139859,-0.9657936998405079,-0.9605002546479815,-0.9479611966190319,-0.9266236164119382,-0.8861776093266439,-0.8016667125179586,-0.6171888622716559,-0.24668221493382986,0.2072915860506084,0.49182814121866103,0.6181732382255981,0.6689927343826227,0.6837857716152075,0.6692088759798878,0.617425576030761,0.5032590007474327,0.3037190515036907,0.06075913057559572,-0.14405252983076006,-0.2797389278853148,-0.35748653335434377,-0.39948075096639324,-0.4221679848674665,-0.40748699613888967,-0.2861003965366903,-0.12878636661821852,-0.031114178389028788,0.01877112367219947,0.04521231177574768,0.05879074434077928,0.07062718341725163,0.10111779858516408,0.16320845038579507,0.2670951859726595,0.3961435899692445,0.4913522271225051,0.5092303067773392,0.43812773230308955,0.2195569097116113,-0.13107761283999989,-0.4062172849510212,-0.5618344652799959,-0.6418427068162768,-0.6697329715282889,-0.6455722925763987,-0.5661053554121601,-0.44689395650130215,-0.3129674360049521,-0.1943912633856071,-0.10494865166327016,-0.038498141733570995,0.025475115785237857,0.10627688919354278,0.1990561779510546,0.27563635484315463,0.3169479912981414,0.32154502436177157,0.29471716464835374,0.2593577811745269,0.2384533932368053,0.24272057850531462,0.27237788369649035,0.320087523669628,0.34895777070359774,0.22565183113458634,0.09067358933476233,0.01857398400370991,-0.023205026681655076,-0.04470723113608325,0.0005021755610338104,0.056344243625616644,0.08678218018653518,0.12092618935720947,0.1686485371831369,0.23909141666931755,0.3219828391979517,0.3446546437758197,0.237158171071559,0.04147636498675521,-0.15766899045619723,-0.3154768087629223,-0.4346995894395932,-0.520357134010375,-0.5583296155518876,-0.5283169773530338,-0.47399468133644157,-0.5096210004633114,-0.5765628396278226,-0.5380866298487247,-0.3325645199797129,-0.020536954639673397,0.26211102296598704,0.4533933604404022,0.5564397154937021,0.5649056027334818,0.4868097242319396,0.33904892287681765,0.14402298823719664,-0.0553062729794409,-0.19984148070233138,-0.24409964302766402,-0.17955860713666796,-0.04882668853558697,0.07009332947832352,0.11187236025000548,0.030026476990425044,-0.18362395709257434,-0.4345353801895476,-0.6198191215801114,-0.7347588356183417,-0.802505245218856,-0.8199458371807539,-0.7739092767528741,-0.6935503669352201,-0.6276639154492437,-0.5777385635817708,-0.5262898287112956,-0.48339906996974985,-0.4514401616170004,-0.43316814770321294,-0.44586519753136955,-0.5538057034567341,-0.8460230485326534,-0.0771037368084753,0.034677623141410166,0.061660683710643836,0.07733334761384845,0.11963180053889895,0.23116251356782774,0.436094295120217,0.6657308991979827,0.789809633223142,0.7961811109873033,0.721875279139602,0.5775422280126123,0.3910318513763509,0.2377829115064363,0.16561036886104133,0.15840864885347067,0.16981291087415823,0.14891770329006185,0.06752771792420958,-0.07653727255452127,-0.27109106608428774,-0.46309677120995846,-0.5841597654979032,-0.6224001729832993,-0.5947240929768058,-0.515113018020647,-0.40050001683001824,-0.26689821336671954,-0.12137832792212336,0.025269221241400984,0.1562253870596825,0.23970096657303372,0.2617395199261187,0.23734235525883457,0.18362211586341778,0.1229472296181403,0.08479358620535736,0.11663347943531666,0.3037591033962069,0.6262377067054425,0.810150622908434,0.877569536322092,0.9243901001733066,0.9604009122137395,0.9783741495800365,0.9808480875613568,0.9742805612871364,0.9627985765338131,0.945552011814528,0.9123349613203205,0.8320764469810095,0.6391581179877096,0.3154028252328583,0.045721920360045354,-0.04950816447633645,-0.00894817880610982,0.10237733906979818,0.22121412264267157,0.30319755276944915,0.3356307366520544,0.3177141011626325,0.281878761686619,0.2737758800348936,0.3050464508229286,0.3280888728422893,0.26934684990635077,0.08588647488369838,-0.1848245849613678,-0.42848564659703814,-0.5854952596858205,-0.6671795909959872,-0.7035576270319912,-0.7130893599596972,-0.7058720396627599,-0.6732849977611267,-0.6100081892656505,-0.514301535322037,-0.4073053850178974,-0.3085269552332412,-0.2138740981472759,-0.09541493637105894,0.03989571283043478,0.1303450035058297,0.15511440549541977,0.14780506618805792,0.12243993068064847,0.08115390729391572,0.03913843358419217,-0.005657579356715465,-0.05252369346777766,-0.09895831851264777,-0.14153031058596252,-0.17891000465874582,-0.21852946994737674,-0.2796137154757969,-0.43412379488385916,-0.35048519812373186,-0.08555969195155318,-0.002004389017385058,0.041702731361633036,0.07668215223398187,0.11171798560261118,0.15136777365535758,0.1931542268021942,0.2238563198166464,0.23307771115799922,0.22373439411073281,0.20491659639054877,0.19169038353822598,0.21356054994553655,0.27728354630049734,0.3127997796630045,0.34034593048486944,0.3898720985424852,0.47432432911124284,0.6157333486498577,0.8179995570610069,0.6945107775806814,0.4201839121753787,0.31489358322296546,0.19034023223568605,0.18218573042714584,0.18553772818899766,0.17305859713136285,0.12238166710248563,0.000140597371508716,-0.2426301054148654,-0.5837656998530737,-0.8315058782591513,-0.9110133021401139,-0.9053611524413364,-0.8653164083445628,-0.8017728965512186,-0.715015201118719,-0.6216662056714175,-0.5517159543968874,-0.5258442208949626,-0.5542465769082577,-0.652886744661706,-0.784818880217505,-0.7542373070172635,-0.7009355397258582,-0.7433688223186513,-0.7519316142983034,-0.7087774297821393,-0.6760636146916359,-0.6554247406580254,-0.6127615038364781,-0.5157809126078251,-0.4202167684661057,-0.43187258383902855,-0.5681811259494576,-0.7326446443171646,-0.8268017431250142,-0.8500232962403286,-0.8299765028474779,-0.756918556964396,-0.5458124766345028,-0.011128898020509361,0.5388705779332197,0.7582165859580441,0.8275716783355483,0.8429072219734571,0.831855848610649,0.7989680828479685,0.7389205795436002,0.6507661320763634,0.550369546451177,0.4687880597404607,0.44149726547365387,0.5112942694383743,0.6774724125642494,0.6803507586973528,0.6123644173468957,0.5894357239957116,0.5878698979352901,0.5893420596323993,0.5884927051895269,0.5830532616580418,0.571659836467489,0.5529741058779106,0.5221678750730325,0.4762196883392227,0.41554126832305655,0.3472912100296058,0.28127562184700156,0.2194422420662728,0.1613224870695732,0.08766437902174683,-0.027964344760023196,-0.18507828133819662,-0.29391571567960034,-0.3109419987508755,-0.2208942648284751,-0.046578540000434605,0.07468425995233736,0.13612884459990582,0.18242332810421638,0.2525516248757567,0.36446744595679526,0.5067761640024466,0.6406741129123885,0.7123393868390158,0.7211337443720568,0.6739397845025794,0.5356532909423419,0.23241366526707208,-0.14097901301933707,-0.3989488135774677,-0.539475727885844,-0.6144406469264593,-0.6571481862414863,-0.6832762203089805,-0.7010073245556776,-0.7001328197326678,-0.6663503383018373,-0.5923985621668456,-0.5145341041017435,-0.49195266281231137,-0.5317113275645045,-0.5528867790065892,-0.49747994601295364,-0.43652429925920944,-0.4037793837049433,-0.4060320149328031,-0.44863847407007557,-0.48337246577181203,-0.39855002830124686,-0.26628804999029465,-0.16847326793959158,-0.10146385694045969,-0.0685701441434902,-0.07604323199214402,-0.11159466963328661,-0.14492539605503146,-0.15317553928445574,-0.09805184726219786,0.060884816530138795,0.3245686877682396,0.6096959414494614,0.8035959524993319,0.8926518636152293,0.9239190707311888,0.9308167136136465,0.9226392704940944,0.9004387138835706,0.8708432408758726,0.8396746049649989,0.7998656553751612,0.7464512098380027,0.6710786676689695,0.5589841715682481,0.42055985195660567,0.28432169907411997,0.1709467417011307,0.08494771202420598,0.01744583342803904,-0.04068279131557943,-0.10443086950715506,-0.16893803401991322,-0.22301584858579743,-0.2704475859835077,-0.30836840413688726,-0.3313294748687538,-0.3389638303762322,-0.3345757497316553,-0.3216179260714188,-0.294290376589216,-0.2454749180689338,-0.16445440076179849,-0.07018226358481171,0.005569434252388503,0.041337412876561244,0.036783284295888896,0.010062088873754737,-0.019092852933519422,-0.01958459062801244,0.04784218129319144,0.19042319462186552,0.34907271796234407,0.44889312276651727,0.47788055528208995,0.46907749710398106,0.4410038773554518,0.3942495020434733,0.342625087154363,0.2849842849892115,0.21266035409125114,0.12673813233955203,0.051431200627501124,0.000836364930251777,-0.02884963787082964,-0.051950233947755,-0.07873131058088553,-0.1133398535982014,-0.15805775636212654,-0.21996198990026677,-0.30339743039989064,-0.4060607136407896,-0.52288385458897,-0.627016812926266,-0.6942236009483628,-0.7173469505449411,-0.6961123819830138,-0.6255335176279269,-0.49629425918152215,-0.30948989063260635,-0.10543688749423889,0.05460078876944273,0.15874511694683963,0.2389207495740328,0.311329937729355,0.3828613825882527,0.45934364799102545,0.5551642512937209,0.6646916282108865,0.7272405902672961,0.6850689321686235,0.6196389755297733,0.5792996890136035,0.5312161695756722,0.3935191429359471,-0.024643447110150835,-0.5971508026137546,-0.7941711054211618,-0.8133193489586645,-0.7659085005447634,-0.6618692997880972,-0.49046300527995024,-0.25388029621353086,-0.0016618113776230878,0.19875590728583958,0.3179276268631943,0.36289339375679214,0.35056796525914025,0.29293591680937386,0.20625883762133007,0.11090795089926672,0.0311367930229298,-0.012450504452882961,-0.02930299889077515,-0.03754537104327674,-0.04633898523391464,-0.06545752390131039,-0.10794266186439802,-0.20719557886123327,-0.37091132082876344,-0.1445935750720748,-0.03630708776637204,0.02178771385133502,0.06476279085483079,0.10382740538488078,0.14547978069745682,0.18966987003508526,0.22326533484893574,0.20882383105859106,0.0851702596308909,-0.2151984361623652,-0.613641039068689,-0.8340448684948871,-0.8891691475970211,-0.9049149016721645,-0.9171388704529368,-0.9212413551261855,-0.8901184457692033,-0.7538769844692954,-0.37660113834146003,0.1805123401860515,0.5515158274802753,0.7282475466262821,0.8090496882191628,0.8389745717564221,0.8331835267221425,0.7940909366247351,0.7082057028250927,0.5438862157550912,0.27282675928767475,-0.05691623884462287,-0.3095380219546572,-0.45192516308801434,-0.5221668282948067,-0.5556471544316256,-0.5693123163136632,-0.5636281307493438,-0.5332558858790066,-0.46760175441788626,-0.34499539210542884,-0.14041906750118066,0.1197280632550739,0.3314743242658656,0.43307326568207316,0.41627722740633627,0.26678201938064927,-0.011317698377086901,-0.3081709220437711,-0.5089552124541387,-0.6031366362535667,-0.567987162648291,-0.22660509251430236,0.28537629415301113,0.5349806891814195,0.5951378395890464,0.5712136782019847,0.5493405403519036,0.5633220905364107,0.6020700795522419,0.6381136517164986,0.6619769636505176,0.6699023947299028,0.6601652898862546,0.6376483171244125,0.6053135093102175,0.5517210522895909,0.4694469826930962,0.36909087033906457,0.28149362752391993,0.23166066188441878,0.2371878007131149,0.25033153828017657,0.1671821310755542,0.12972918263042815,0.12405334841453498,0.13436062549266786,0.15769956785150377,0.19462017449914554,0.2428514780940672,0.2974350931353968,0.3405511586361819,0.35969502899718053,0.36605352631856436,0.37760419789434324,0.407725545719644,0.44649236465784176,0.47795109275558206,0.5125619938005541,0.5614608274571956,0.6297566536389894,0.7051492765305193,0.7683000761002796,0.7951788595124035,0.772703291735938,0.6985870829627778,0.5808597585352254,0.39836991050448955,0.110735723059805,-0.24317009634675468,-0.5380085482952128,-0.7206973974074813,-0.8230638514151676,-0.8812408078553763,-0.9128617709925213,-0.9250129152671484,-0.9215140479307556,-0.9034719727567675,-0.8669406356199385,-0.8033280969196316,-0.6976452879350575,-0.5526853068398575,-0.40688381279884667,-0.308476949863135,-0.2611738900330136,-0.24521184838037627,-0.24496755504869266,-0.25955337608869655,-0.29744170087707,-0.37797893041996306,-0.5056808182833097,-0.45287153331075636,-0.2868704976507995,-0.1977157924880931,-0.14976559563183425,-0.11749057348425283,-0.09402416176194316,-0.07822854999717091,-0.05279655549328694,0.0060977842062577715,0.022265241374707843,0.026611278439793207,0.03294597702656818,0.04427519861110601,0.0686386203967715,0.13201373851837914,0.3518322545770109,0.7239822763262161,0.4547505028255207,0.39762634239894784,0.42187275158215315,0.49677012538725823,0.6210422700134444,0.7429171120796174,0.67047195530225,0.4893576813145935,0.3856827944693,0.37815818042979943,0.5092101127614174,0.6690166121084037,0.4465107294385639,0.3515376892653854,0.3488354030295367,0.4016993576313275,0.5015468003374528,0.610113329542559,0.6672969484953222,0.6795853821522242,0.677761488887964,0.6790573096895576,0.6930583120793454,0.7132962452995466,0.7288876855236656,0.72708789906379,0.6979829537996968,0.6340966336571653,0.5133730753980225,0.323051170696775,0.10303934239733484,-0.08028069197380232,-0.24618927518532052,-0.4214469787862914,-0.5865468076658861,-0.7060568656373901,-0.7718600531174384,-0.7945754844070951,-0.7854355820631553,-0.7553360313926507,-0.7138960599203348,-0.667758484895433,-0.6282485500057243,-0.6050240877321069,-0.603867668675329,-0.6300594513126333,-0.6851726503379747,-0.753980497617001,-0.8155257842850948,-0.8563050135003653,-0.8674445233316818,-0.8416488935852553,-0.7717773678562403,-0.6648953351215368,-0.554847009715283,-0.4819940402382676,-0.4648401509061221,-0.47975662553497134,-0.4909995953990026,-0.47421418160323675,-0.40383706126234636,-0.25285478765986774,-0.022351055451044027,0.22255439983891792,0.4173113814500489,0.5601016435359917,0.6735452824354156,0.7624046242461184,0.8302541651734957,0.8795815254032033,0.9119995626553135,0.9259320988593349,0.9208189067863802,0.8824917423483907,0.7562776666778973,0.41822467149471926,-0.017198484940901707,-0.23133898020695107,-0.27067190840955824,-0.23943842214738617,-0.17741966803683304,-0.048135546400946014,0.3272749867178422,0.6004183906538806,0.633377692967261,0.6777316379047366,0.7425115005272344,0.8096644012901802,0.8291290727029706,0.7752746900389152,0.6896663866583138,0.60503976702569,0.5225078137896371,0.43273347644287646,0.3291955938291678,0.21179162901065454,0.09443292076745062,-0.004664258999994546,-0.0947348582854812,-0.20534602966064164,-0.36044486724303765,-0.5391899880027443,-0.678915948150572,-0.7524636368264748,-0.7683338306495586,-0.7282975493456108,-0.6361850111769476,-0.5141378974239598,-0.40693527765596915,-0.36561136674180594,-0.40116056074648454,-0.4837312163466223,-0.5524316384890713,-0.5167558969934446,-0.3412765970527524,-0.009184519186043554,0.1675823717428207,0.1518364450722869,0.08797884600005197,0.017069803323782815,-0.048647472018527364,-0.10323762807739692,-0.12226076297995404,-0.07667305543701909,0.026076003210583745,0.14742789113256707,0.25883490105891355,0.34717981618245836,0.4236180372551697,0.50134456031706,0.5754596245326747,0.6167775405148781,0.5604205277175981,0.30600689379352164,-0.16057379877609487,-0.5765789547164482,-0.7989983845849966,-0.8958273840241493,-0.9345467511568895,-0.9475867742076136,-0.9472717516367859,-0.9358282739944822,-0.9085625662647038,-0.8593455883935774,-0.7919557873155623,-0.7196503651800218,-0.6426777547976932,-0.4968535258746971,-0.1016434133008048,0.3238725808611125,0.4670180088570994,0.35372526854749614,0.1692856864601814,0.06698358583642086,0.030507466219308048,0.02779201448008242,0.036108321948151306,0.04850780497810518,0.07908751828186422,0.1858592670825647,0.8211249216657057,0.47175657624543127,0.3509210085522964,0.3447086340080964,0.38594438909548673,0.47436103859634304,0.6151817617595429,0.7692268991122341,0.8389122568402725,0.8208038248046625,0.7825725462490494,0.7487720891493359,0.7204423576243915,0.6982010254246017,0.6758700034057114,0.6457711422825405,0.6048978807670061,0.5617449344198339,0.5181645067411325,0.46881515192658446,0.40102818318443745,0.3084035866202427,0.18959597107385195,0.07057846147015072,0.01213073320761422,0.044976388785383625,0.13004837988009144,0.24308427859940343,0.3632934394861054,0.4686593073426895,0.5459355087728468,0.6214712126447174,0.7159132035263741,0.7505986567493894,0.6494776136796583,0.5575722628631404,0.5408171288811107,0.5741320609019338,0.4803133779384057,0.09641472214165717,-0.2301191462110055,-0.3924215604072133,-0.3991501991087336,-0.36663435781843595,-0.34032938065710294,-0.3263764729480082,-0.31421463970067876,-0.29074690119418606,-0.2483064283136808,-0.1906144579724262,-0.14187007548334277,-0.12757975203156463,-0.15157378220165782,-0.1929060762227436,-0.22062407689811944,-0.21716842134289122,-0.17381703657569944,-0.09961038707835225,-0.024597472118327173,0.026088580244886785,0.03910492626009224,0.011514579540432635,-0.03409760968127249,-0.060485081363469397,-0.042723109067723926,0.014185295827966833,0.0824229297744766,0.1299043815606248,0.14251732537474787,0.12727691370520228,0.10890550726074669,0.11647306610124886,0.18813748526067423,0.34159069308813966,0.5226286826586958,0.6540153782784471,0.6904185466734382,0.5810288415505555,0.35296597024641846,0.15295769263559203,0.026224278378471085,-0.04359841633529787,-0.07344293264768234,-0.07438884141156499,-0.0498549240636282,-0.002829096232495298,0.06053943624483201,0.1157671830485468,0.14536353255865522,0.14126833739406452,0.12477728514230017,0.1068739510728593,0.08529930522342871,0.06398744507685658,0.050275510744075665,0.05053258792342226,0.06853077259184957,0.10847268886150704,0.17000506254823625,0.2249499945414644,0.1652961234885971,0.07007772768580943,0.031013364607904135,0.019361181580083226,0.017500887794116984,0.018207121611859268,0.0162030606699092,0.007215674431223295,-0.013490284301185276,-0.048791620615320996,-0.08954448452743025,-0.11205716976348952,-0.09728380979897598,-0.045060296091247204,0.02645600749041348,0.10314437421072992,0.17545421039356165,0.2140404535592857,0.154731774013761,-0.05877025383570849,-0.29549783632195664,-0.44987596352378606,-0.5378753945670643,-0.5915862817525842,-0.6228004586988166,-0.6237436534837437,-0.577267370073198,-0.49619563073651074,-0.4171245189446072,-0.36820097293177717,-0.361778871262404,-0.417044908970779,-0.5963619826317816,-0.504464730216829,-0.19140687899106998,-0.07874515479037612,-0.03236242323162609,-0.012519950814542933,-0.0073929541926205985,-0.013326785688109596,-0.029245832548854708,-0.052015353351666245,-0.07371005799500512,-0.08220548529140062,-0.05942550213837342,0.005913945913942183,0.11432525627359252,0.24796741564390534,0.3639055389716556,0.42101807061429175,0.4163550623836315,0.3653451839802135,0.28164497790202675,0.19615230594637134,0.13263415532393194,0.09635963101538239,0.07609789872820244,0.05458238974209674,0.03623567912064465,0.03159330081082398,0.043133687639398156,0.07265712550346425,0.1140174198109151,0.14987089573197385,0.16774817409535156,0.1616654028183308,0.13173150566660577,0.08686434222298645,0.04109174000990244,0.001408580803310579,-0.030632606263118378,-0.048287158936763795,-0.033290995027922925,0.03646348674443915,0.17971269057612171,0.38266840783408335,0.5871298301313018,0.7393383385296239,0.8321162356249899,0.8801120510600463,0.8992172315685132,0.902034186412927,0.8933119691291286,0.873015825370345,0.8392852852658991,0.7957624869936797,0.7522786393770947,0.716783080963882,0.6799337379523801,0.6184578332665155,0.4959245933379083,0.26673029858102765,-0.05061445776607815,-0.31702343281705064,-0.4477677106658704,-0.48743266277757347,-0.5034531724501877,-0.5313090658920631,-0.5751686431734563,-0.6192496457526215,-0.6391238362989679,-0.6184290489482247,-0.5575467979381731,-0.4779054139709732,-0.409394779082143,-0.3794175107824503,-0.4058514349547,-0.49109937303912066,-0.5761783249720877,-0.6071087395817646,-0.5828339024241554,-0.4915637767457863,-0.36593193471127333,-0.2768514754122937,-0.24930518123150391,-0.28418319363122346,-0.3681461253392269,-0.4673961767375135,-0.5365954091147739,-0.5458410937153949,-0.4668462224127455,-0.26093966394509227,0.05871915852472489,0.34433734245769376,0.49328753445930196,0.5364763685723496,0.5232849632699578,0.4911363255536487,0.45790618293014,0.4402234251772125,0.438278061831434,0.4318286365728666,0.3750857354805653,0.04202433902223186,-0.6991193867323664,-0.8572492549757197,-0.9261965451741115,-0.9666529217732583,-0.9729395760888049,-0.9524405558634353,-0.9007383727508225,-0.7997634580387041,-0.6541822066768704,-0.513902652830615,-0.4266612794989689,-0.403654542270078,-0.43138463900225027,-0.47865358980221095,-0.5204534533039767,-0.547448450864577,-0.557554277913861,-0.5636292263076067,-0.5694102170933485,-0.5648994534037567,-0.5339915146374243,-0.4482480489625065,-0.2817777200986186,-0.03528855595558511,0.2455951954131327,0.4831050071754499,0.6320330929264962,0.7058804807545473,0.7353306096276025,0.7406622867980969,0.7360060006206973,0.7311222787990791,0.7366912411369657,0.757308128338175,0.7853719642872442,0.8091927976253342,0.8315119404874698,0.8688540961539454,0.9180154987564434,0.9345176457591454,0.9102035682157331,0.87953434872856,0.8574892286208158,0.8469723153584611,0.8504373380307225,0.8677111143716527,0.8907700764059974,0.901334055438797,0.8821147791248529,0.8238287853067424,0.7227546511599469,0.5761696296581609,0.35994982263661796,0.09721570920177047,-0.10494294339564428,-0.2074437671368574,-0.24404007052968477,-0.2506894499018684,-0.25438260759918974,-0.2600226534108929,-0.2249778824255516,-0.15912585259988737,-0.11349519140761093,-0.08909849241298128,-0.07552812988085306,-0.06056460485259951,-0.03579239997027678,-0.005012496736678362,0.030412567046680536,0.06365916491050964,0.10477444740341729,0.16604115066213848,0.2531882808661085,0.3512120016117151,0.44457419535776804,0.5241219361290484,0.590428560783848,0.6365688149900701,0.643694632063758,0.597498777902592,0.5117949929865059,0.4132249584508798,0.32196034228733283,0.24439238718962744,0.1784035586685652,0.12130753190160122,0.05854055101012033,-0.021297440145715316,-0.13499171957724204,-0.3106558111666649,-0.1957724615392229,0.0074685026312233446,0.1546062620170281,0.270761413467906,0.34476605486700956,0.34899903977448105,0.24098708764463478,0.0082435753340174,-0.24842744041293888,-0.4376208697050461,-0.5707319904305348,-0.677856160188512,-0.7606727927328808,-0.802613034449053,-0.7947719856510941,-0.7340886824129712,-0.6110310909445721,-0.43789845241606873,-0.246230034614625,-0.0702456556528234,0.04262526927735439,0.06315547441115173,-0.011985116325845193,-0.1658781673527567,-0.34536618042767,-0.5016165654023473,-0.6046984162244455,-0.6556153315963387,-0.6818918267726493,-0.6935497782728147,-0.6489251812333241,-0.4884050646595359,-0.2870068838636082,-0.14353550322449513,-0.061368121800121286,-0.029357352643250526,-0.040847679371713644,-0.08124391934020743,-0.12923357347957584,-0.16364394579475294,-0.17950247670979427,-0.18537059159574765,-0.17867207604680083,-0.17238728554595992,-0.1789926551670853,-0.18996166807524775,-0.19699146379538204,-0.19319899518516315,-0.16781877961232533,-0.12638780662000365,-0.07880675639029622,-0.041940507073911185,-0.02946431217283385,-0.05287602829501283,-0.1005446948728721,-0.1525680699154466,-0.19802616366791728,-0.23166730025367635,-0.25325165360780294,-0.2604300926216961,-0.26007503686227335,-0.26197392481291903,-0.28262515594923193,-0.3257075518341187,-0.35776577104630036,-0.34081965490685195,-0.26566735517425166,-0.14316316671038679,0.03300120896394829,0.28249142642359026,0.4717979221778557,0.46487510985553665,0.395192851025923,0.3366883582422471,0.28012609400016425,0.2162408798886779,0.14962979508106833,0.09488668661734652,0.06630716296586259,0.07339370764632802,0.10872637690760048,0.1658844071858321,0.2511999610080464,0.387195241254281,0.6052643207593243,0.8184413148806776,0.8344606925980737,0.7596607255050181,0.6885427906019379,0.6223349417358864,0.5405174397750226,0.41374880903303696,0.22674786328839855,0.04323249310517127,-0.03770474095559473,-8.832494170787322e-05,0.10251761435882657,0.1966526501282211,0.24121923813011634,0.2271785477073731,0.1388093783510996,-0.09706174571050405,-0.3619703895688639,-0.3472381434411586,-0.3036385947684458,-0.2713470434386954,-0.25008791559445986,-0.24471641415807782,-0.2761367121268205,-0.4037696189630366,-0.8577013985421656,-0.30046028423405996,-0.1456030514588641,-0.10005759108283595,-0.08361167715761467,-0.07552897030302705,-0.06813426541212662,-0.05717742447751592,-0.038675500724004254,-0.012854363698616735,0.006488804700316096,0.0021601257438926256,-0.033104956397522645,-0.11055396617544219,-0.21689830117480352,-0.3441686012311248,-0.4961396590782019,-0.6065859870778832,-0.6006147468432381,-0.5492737286569586,-0.5045926258288206,-0.44431872501790554,-0.31748226571430543,-0.17659262649617516,-0.06690630869461897,0.05143176559290588,0.2056047217602304,0.36569735997236447,0.4985855610913121,0.6063416758178791,0.6867750687356822,0.7100848343587635,0.6450238560350382,0.5024752402367774,0.31655513410236114,0.1369766637593208,0.00612473386041648,-0.07837401716415969,-0.14042631002881217,-0.23462921912553567,-0.4952395927257366,-0.2928209807369604,-0.2201823695664021,-0.23058726256447923,-0.2705955185450755,-0.3233548986727978,-0.3763791169929278,-0.418633209649532,-0.4412468818194747,-0.4026124818635055,-0.24474897266890772,-0.05164943850040092,0.16058355105149283,0.3817545868033171,0.5555189587390928,0.6471197503019913,0.6616541141485611,0.6092227364039557,0.46843060191527314,0.20652063508484103,-0.13392142932668155,-0.4183541792265107,-0.5971571821661906,-0.6978239251226862,-0.7366747763971745,-0.7105090995326515,-0.5873482959876234,-0.3534064617963375,-0.15648517133353962,-0.07402931684164733,-0.05710239464079211,-0.06994219415317801,-0.10862098914288769,-0.04367434357107236,0.009880354666335765,0.05179210611798271,0.12667643894689393,0.31879874033877986,0.7597195885778029,0.8171706579096425,0.7644135390581143,0.8164616949864437,0.9095668854573882,0.9564169457413143,0.92737588132291,0.8694825467748867,0.8058363626347104,0.7274471391581002,0.6231778546230881,0.5103101431776194,0.4231244518560038,0.37962533552966393,0.383783419715483,0.42326316447900203,0.45183636787016535,0.4276578602400609,0.4099747322510875,0.4103888605339603,0.3885591623197912,0.3299640318285613,0.2703336017883025,0.23200503628814426,0.22195621678648605,0.23833903488570632,0.2629381398227437,0.2800692439798794,0.28265929820790314,0.27946086913848545,0.27351524966093715,0.26635448976992904,0.26686963163171,0.2972008333788346,0.3716944962726338,0.4962908898403495,0.6336596860747454,0.702128129190424,0.6475807088507295,0.4641992426577686,0.16274560199063712,-0.1853367723088602,-0.4561367676955786,-0.6093836673190238,-0.6713969283993512,-0.6559732960546828,-0.5249550440057673,-0.20571614913236388,0.040572976621308994,0.05987611563652053,0.0058629092834312614,-0.025455353078977717,-0.022994122786711632,0.014690506019447424,0.07862839725192472,0.16456161130919741,0.2508371826284182,0.30963962831304953,0.3259742776026067,0.31042099960636976,0.2793638705280976,0.2569687853169902,0.2513998340082796,0.2465734120169728,0.21577024090966493,0.15105606865462523,0.06328825905972622,-0.03361759046074547,-0.13660713668889993,-0.2400448282560563,-0.33164727833188223,-0.3998618370106425,-0.44327105671508904,-0.4797627847829288,-0.5710009937346574,-0.7573605518115835,-0.19002996848725692,-0.002909694289679201,0.05952636622564268,0.0873860689388303,0.09893128492423452,0.10070384819430661,0.0950180495518761,0.08143858578945809,0.05571224720816974,0.008943297761020567,-0.06848078178415094,-0.17707695517145058,-0.30420967538116617,-0.43436692397994175,-0.5267714101652662,-0.5477914010616609,-0.49205366408497525,-0.3826140760176177,-0.25149631613032025,-0.12475690491182072,-0.021523809073401904,0.051624301423675925,0.06354550144270042,0.002606842539177445,-0.09318573968234975,-0.18615811662586457,-0.2610402218377392,-0.32183389453124917,-0.36922571422501543,-0.402918322374566,-0.41984045425884575,-0.4181215646240746,-0.40345669671255535,-0.3906714772778496,-0.3840782358715101,-0.37901507483265723,-0.3613249087536128,-0.325298128869474,-0.27123938557268934,-0.21668293353149903,-0.17471238646137702,-0.14463116761255979,-0.11750507760358592,-0.07490329156818037,-0.007957174277146237,0.0707508227988679,0.1479795643328006,0.20848428179228212,0.2372086662952967,0.22486986759585317,0.18551981899679176,0.13888599342994606,0.0953313342224117,0.043079895235744924,-0.0386005529980487,-0.142798685221616,-0.2171037998245665,-0.21367060450391276,-0.13097184558809608,-0.0045614742528721315,0.10735986868343335,0.17828813878924232,0.20824401956046878,0.2106647845504701,0.20087675505643832,0.18805860299641658,0.18623112293538302,0.19463006068377714,0.21053069072727199,0.23420796412056755,0.26419759768797335,0.2948942333802699,0.32913391938349973,0.37187991316491414,0.43003563072223405,0.4988324068219254,0.5589717985146705,0.5925079733165871,0.6061348349971707,0.6417096770814497,0.7399508622149655,0.8581167077439646,0.9342722144438862,0.9716360200550426,0.9871360275357511,0.993158842099991,0.9903577375126196,0.9653532220414568,0.8636097247926725,0.5766830574884096,0.08415767780733042,-0.4992774658371769,-0.6105902563110069,-0.30429051626352205,-0.1361675804954463,-0.05283198994323054,-0.012640724103492089,0.003575911310499454,0.001472983962752286,-0.029541352280156495,-0.11915654309569393,-0.29721057694625236,-0.5148773263525225,-0.687164997644047,-0.7964640968731415,-0.853182492637328,-0.8753032610789411,-0.8716334075062755,-0.8373568593511312,-0.7552011854511045,-0.5959741173235732,-0.35702820797364787,-0.1021135976929208,0.09734980654965017,0.20876342183109353,0.23333564059486764,0.19241611717618332,0.13063783538451376,0.08056897303581613,0.052455362891510635,0.05566561054517829,0.36651272720480804,0.13691994897835394,0.11960701089910597,0.12895613215788548,0.1433598357314791,0.15994221215046844,0.18111092721473096,0.2170530255994368,0.2882538659418451,0.4306122273521712,0.6473305962501078,0.7558546202992906,0.712336113685274,0.6599049351158008,0.635694536547531,0.6217254187026211,0.5933792288523687,0.5259579038507275,0.39173577127223286,0.1879770767112872,-0.03000742789622537,-0.1962394751738532,-0.2920434553738044,-0.3350274501963517,-0.34499751114004557,-0.33447924375849447,-0.27741484950580014,-0.08018129101569235,0.12633918914468148,0.23391332193936948,0.3138184840648338,0.3974126580944256,0.4858185227726707,0.5641347673763406,0.6057514306163005,0.6110089694827737,0.5997551615712354,0.5759360506989123,0.5284081382589798,0.42455881186796846,0.23310910535799356,-0.04306370843052846,-0.31993823765089596,-0.5118549310238404,-0.6393474395496903,-0.7593151602665401,-0.8701785479908551,-0.939013320446995,-0.9684307998131755,-0.9755340822672603,-0.9706304461516635,-0.9583216767988216,-0.9385159201457414,-0.9049919574692052,-0.8414277591550055,-0.7318878398470825,-0.5902569315564851,-0.4620005617386416,-0.366379763822099,-0.28125882552319204,-0.1992111511918098,-0.13714542898204235,-0.10296885168923714,-0.07994433906381497,-0.05229464537562612,0.006095878236773071,0.13430850567294686,0.2573101769826785,0.28638660631721574,0.29337728583546185,0.31547124119538344,0.38159311580960015,0.5117127292886834,0.42354312521929466,0.24683759708206743,0.14819002596545952,0.08175483609695677,0.031224306603597263,-0.007234712476799987,-0.025158206916794407,0.05125722640196859,0.07578776146826002,0.09468302349811537,0.1117221615469725,0.1291701498308844,0.14583110271023997,0.16017899148136217,0.1771440953099814,0.226283089015847,0.39775221712775916,0.22493204629813085,0.07388225105835525,0.006157550542588578,-0.03441034243809429,-0.051033685277434244,-0.03350738562885439,0.02329674639197205,0.1192942138221773,0.2343416265379511,0.33080929601091463,0.3813674845107332,0.3831018117086944,0.346490272507303,0.28250220547106847,0.21851792777688125,0.18395991306451637,0.19059655731475614,0.23316509886760117,0.2883795847838249,0.3288601361034724,0.34907045877993825,0.3639980127070854,0.3960675284905113,0.45840322184143145,0.5340251029533593,0.5980985446041548,0.6474350818206278,0.6922921830343735,0.7311363016183293,0.7559860841287087,0.7459681833037951,0.6526728027869898,0.39852105523454745,0.04243087997057982,-0.11340152115790705,-0.017902630779393344,0.1518667337917857,0.21263023695006047,0.07610453179638454,-0.29469625305056,-0.6665295836082792,-0.8294938331108849,-0.8787243677964269,-0.8867809889641333,-0.8780655963757638,-0.8621272860748205,-0.8423469276400608,-0.8165978937912595,-0.7787117777458611,-0.7306962942842901,-0.6742112564220516,-0.6082701629774937,-0.5355644271462654,-0.4787019295803197,-0.4456173743174957,-0.42713939821486185,-0.4118063994221528,-0.40630239473074065,-0.4242902139673777,-0.4658486154612762,-0.5063757644411848,-0.5320968617028996,-0.5531586786629485,-0.5744402217301293,-0.5632740473896092,-0.41824549851347553,-0.11437163467116367,0.14736762256139996,0.3218529596349892,0.43973365836906275,0.5103074116536612,0.5213845222371033,0.5057732427945467,0.5023452663297933,0.49122359667731874,0.46099886951815655,0.43047338028872256,0.4216118532561209,0.4707142651479972,0.6280754266037661,0.8307884600330961,0.8328158014960892,0.7760226117987311,0.7565771783904803,0.763864474187627,0.776460250691516,0.77432120548723,0.739907256371462,0.654757724935669,0.5130552812635998,0.3462123630645637,0.21132267884780187,0.14663367252993373,0.1432240059002833,0.1717813065084168,0.2114378219367114,0.2519134595124798,0.27982278603622257,0.28546769687283424,0.2794114579480906,0.27574725784320303,0.27719637721011603,0.27364900884562565,0.24671205449347738,0.19925857463084723,0.11692267947962309,-0.014193385305468034,-0.08512251302111894,-0.08525514332460903,-0.05896346513659104,-0.02018119072852321,0.023972285225152688,0.06901803861113089,0.1164706675762038,0.1757301065413869,0.2693822473429766,0.4053581527979988,0.5537252694560769,0.6764784661252197,0.7666659115120155,0.8308401995651238,0.8737085622821347,0.8989898595465361,0.8985460067948186,0.8286481448094284,0.6079702933441148,0.23591259950217103,-0.1575182458474447,-0.4517079979771289,-0.5605478345149262,-0.5496217479567382,-0.5239869986147506,-0.5153276542677717,-0.5201383578563223,-0.5246603688874406,-0.5176725702113794,-0.5009676286609893,-0.4808574695280387,-0.4506697346262211,-0.3997249806666536,-0.33451534205476513,-0.28198546645994,-0.26092405465742724,-0.2768166857345627,-0.3306029502402804,-0.42429835940906696,-0.5526959413830114,-0.6818269461614695,-0.7686463906141439,-0.8096693917729554,-0.8191029319640777,-0.8134165570365842,-0.7995329179360134,-0.7742267974645293,-0.727782759156023,-0.6517777587785549,-0.5489626126075745,-0.4383782789630385,-0.300737118326785,-0.16564793859439475,-0.09073904583800871,-0.07073976279965954,-0.07414270903051676,-0.0706214567116049,-0.04485449268769678,0.012031096977506464,0.10389976821908126,0.223740844353229,0.3609761447380922,0.48916136663977583,0.583861618851934,0.6353083147586776,0.6461659702236497,0.6285891323633074,0.6023520556308779,0.5796981653652744,0.5707112038342014,0.5692143932256601,0.5703467918192971,0.579799052864104,0.603578805064697,0.6368276849265817,0.6652619635723823,0.6769692374131201,0.6628811943474836,0.6047822213467207,0.46305440159289474,0.17131690517121181,-0.2596101048283727,-0.611237466599684,-0.7895284512230961,-0.8641207303585051,-0.8910277639528329,-0.8893627152806576,-0.8499928477857637,-0.738920968789578,-0.503495438245657,-0.2939741090862138,-0.376248920661167,-0.511909353452694,-0.5182607819729885,-0.4818678576833739,-0.4297857284479542,-0.37336316504558154,-0.3114101407227691,-0.24596380288878447,-0.17247870899280604,-0.10599617025986853,-0.08582389497335408,-0.14924142141215702,-0.26337133111286454,-0.353955449024526,-0.37139160821943096,-0.3013601802808621,-0.15132648650917788,0.03778391559072032,0.20655896521110786,0.32674171608387226,0.4055661881852224,0.45391138356024124,0.4786804502837052,0.4927461388469036,0.4979509450802919,0.47551986016119174,0.39477470601419606,0.2510286012793943,0.09256438946241506,-0.04405800623522699,-0.18349721445360728,-0.4886663883185934,-0.513229556097018,-0.1708629319670304,-0.06946879762009732,-0.014862303231443785,0.028082026176713713,0.07336481645245882,0.13395320431163268,0.22969269188079056,0.3989425065028943,0.6771029082412909,0.8679613993598149,0.7791536233013779,0.6374672869671988,0.502115150790052,0.3695234346455114,0.26162063391950524,0.20885332789475927,0.24093745092237073,0.34773967948945783,0.47738098507319665,0.5821185122855477,0.6418450352969525,0.6565875821233012,0.6336204380693079,0.5882663743357888,0.5389288986452191,0.5042292935311559,0.48798467184101896,0.47505594697440334,0.44446057610684675,0.38202175430812446,0.29016788331506765,0.1607753789343622,-0.011224170363557084,-0.21462302520399493,-0.40889542699514936,-0.5601727711359141,-0.6438139555926212,-0.6534564245824083,-0.5909336344021598,-0.47234467641618577,-0.3627445774495894,-0.31415930347741283,-0.3180435781932859,-0.36030019687543263,-0.44932874276139445,-0.6509686002081516,-0.8969815305489363,-0.5061782950469037,-0.29966570869518916,-0.2400872355421333,-0.23255553239478416,-0.23789848567259528,-0.23444307558303684,-0.21094541493543748,-0.16434724294398173,-0.09714347007648419,-0.028138791682570413,0.022391189566331758,0.04085700076092107,0.02125855390193257,-0.029481735996771313,-0.11138879533920013,-0.2234311720307805,-0.3405722980807545,-0.43183932147104215,-0.47084454300429707,-0.4279784196516536,-0.2879976938229118,-0.11570383805002007,0.01186023339853247,0.08751143290144153,0.10216351707427203,0.0375727792753365,-0.07468032696321668,-0.1536269234392207,-0.19008893064883775,-0.20908222923637312,-0.22014733972192516,-0.21520460990470477,-0.15917327743904583,-0.0035336116621944714,0.20427945994911692,0.31130663612118176,0.2992742309834904,0.2389645383297444,0.202411671125653,0.20356506379382314,0.23236657245132586,0.2661118304117129,0.28513759261424515,0.28032384185173315,0.24429721460430842,0.1906116366906556,0.14181504403868583,0.11102578542291684,0.10296354292022572,0.1115307831346245,0.1363713176817971,0.16174000807106156,0.17815919180217082,0.18476889286741258,0.19374186409207647,0.21492788920257305,0.23955996992008446,0.24998220529389215,0.2340706103646561,0.19880403322904674,0.15658595861019073,0.13018067253522297,0.12844570244387296,0.1436543060913218,0.15815309934133553,0.14580558534444135,0.09723692410641945,0.0217221218322303,-0.04885360108038868,-0.10336095989553375,-0.1524476189887633,-0.20228566581734236,-0.2625602180544934,-0.3382373931490128,-0.42847843296651766,-0.4969056929005898,-0.5161590220521013,-0.5046813553530488,-0.4899139407295525,-0.48468999412718666,-0.486235772522931,-0.4893965798741473,-0.48143592444190797,-0.32228767010681064,-0.07780371264852798,-0.007295432207477744,-0.0070340198296865355,-0.031248720794301348,-0.06621629737628067,-0.10901708019915245,-0.16862534234830656,-0.31126236429965215,-0.3330331179648792,-0.02941659138538565,0.04004103199966844,0.07750087906582413,0.11069546593684293,0.15279058636562332,0.2185983299724691,0.3312002852044182,0.5081924098115435,0.6858664720149795,0.7615619304356297,0.757747110954364,0.7086851761707909,0.6057776438702075,0.43159840043743725,0.19984898299252063,-0.02772470495081437,-0.18711662327286882,-0.266830095971546,-0.2934945274766533,-0.2977511820823583,-0.3035671627268096,-0.3288345678076417,-0.39502503460515337,-0.5128024260873522,-0.6616897871966502,-0.7820867169299982,-0.8443265723047761,-0.8604821930188729,-0.8366606217072949,-0.7764169940805394,-0.6926997818905923,-0.6050405677011649,-0.5277928258429082,-0.4629008126367151,-0.40648418865977026,-0.33916960022455694,-0.2527150006657974,-0.14822370977017146,-0.047862251288110357,0.03625114841442946,0.10588978747890135,0.17282943008992271,0.23935705725097595,0.3012711873292069,0.3528372314890649,0.387259883165657,0.40404364916969404,0.4093609944246222,0.40621503460990094,0.39853259407281755,0.39909178523686945,0.41577092425738227,0.44245712828406536,0.4688602335213022,0.4901772346902962,0.5233671908662919,0.5772157445746546,0.6426038223085041,0.7014703982266904,0.7516745093790984,0.8029850907432405,0.8607493919389669,0.9180664756293982,0.9537664023246135,0.9463564434960363,0.8906863170623107,0.7944439247886929,0.6628526994300388,0.47000777685047,0.1849978095214587,-0.12507844239127275,-0.34766773272049245,-0.4935840431223886,-0.5907878478267652,-0.6603769661437846,-0.7118104933398994,-0.7557426403776106,-0.7919666286278717,-0.8197336328760559,-0.8414841302180885,-0.859527476694851,-0.8758997844835127,-0.8912646617368543,-0.9042409231307268,-0.9117088441806988,-0.9104106741773211,-0.8953051957841828,-0.861902154930739,-0.8052614157754132,-0.7085504579051572,-0.5305048995094858,-0.22281507362722827,0.1525990118330626,0.44322170419888957,0.6321121307779054,0.7550631682583889,0.8328955499201249,0.875733737905048,0.8925071848499758,0.8833371694306206,0.8436262796938874,0.7784787098266678,0.7032202929578948,0.625651321955716,0.5502947571705261,0.4968118343122539,0.5520629611527512,0.7038240341956971,0.24821360693219902,0.21618945722888427,0.2528707912380553,0.307863311653612,0.3581282978312788,0.38011958581906596,0.31074251369206546,0.1264351542464107,-0.009503609750626153,-0.053496337934487916,-0.01167928771000403,0.08477316370920003,0.16247867885361553,0.21627014804288278,0.2575782326730028,0.293573598465837,0.28836114868630497,0.13509500004554165,0.006872726480627844,-0.049948499568933005,-0.0729494331464837,-0.025560032517147405,0.04635353201919463,0.07250681861946963,0.08094335471716567,0.08361229866885743,0.08537833986053185,0.08632923060316611,0.0855654212006404,0.09818027305356432,0.16149382900623596,0.30368326396405915,0.5000646525893676,0.6774595189813732,0.7933950383431913,0.8580158930207435,0.8915563491132102,0.9079522315876588,0.9192739934688933,0.9317237451298266,0.9273686912382731,0.8207052312346397,0.4999873464465411,0.11544591018421006,-0.14697206716939076,-0.2936022867792708,-0.369929711902271,-0.42243976224604407,-0.4788904983828952,-0.473034354064788,-0.3299719727399152,-0.20917126354306195,-0.16232920618232,-0.18021698663224264,-0.25101163460138387,-0.33067517787538203,-0.3630526912017864,-0.345358500409487,-0.30004649646885756,-0.2579354605795583,-0.23110747046905844,-0.22441382501819987,-0.2309078114812929,-0.24140923169959083,-0.2544663083978404,-0.2709154812354842,-0.2840117958240954,-0.28560140148948565,-0.2695148960611254,-0.2316724139699108,-0.18080653858159462,-0.12843527747921338,-0.0742889066746345,-0.01380087828154895,0.0576298447008069,0.12626426918302103,0.1725884898690989,0.18265343313415844,0.16276623312222782,0.13770343973329324,0.11916502287398414,0.10671290246417577,0.09407857914063135,0.071729125988694,0.03593708601967095,-0.011787885072366024,-0.06512622632111019,-0.09554591689838805,-0.01347123726795413,0.05030912365928959,0.08930597528190848,0.12258605854018388,0.15161509185731606,0.17101473237917,0.17689295220179974,0.16449196800338786,0.1370728502858905,0.10043841554612544,0.05569119720588674,-0.008557416749732033,-0.09369111158841362,-0.18914913407747982,-0.2750825440212857,-0.3461780299860004,-0.41521221233569405,-0.4976356011168996,-0.5920925761375859,-0.65120240531121,-0.6371278216706693,-0.5617894900247627,-0.45195581958642167,-0.33370604227086065,-0.24390969902435652,-0.2096514538273255,-0.2574450464513206,-0.4487215381364554,-0.8154880074559983,-0.8450720728937541,-0.7462301692465223,-0.7267526725694337,-0.7719125619720558,-0.4197293346930971,0.29414452717814316,0.4853359093819289,0.5862686419768462,0.6782082952022218,0.7663718676120808,0.831512964887079,0.8591914701833416,0.8589740586139023,0.8466012628815476,0.8270264039424994,0.794911019527119,0.7310209475732034,0.5986279098610464,0.3556516633395251,0.033919087818987864,-0.23777184688696718,-0.39426776730246665,-0.45645787404430094,-0.45982620464853613,-0.4378547502018672,-0.41854292217750655,-0.41884398546953727,-0.43192013984575994,-0.4487595628912847,-0.4604785200854244,-0.46266566354212385,-0.4472201857859011,-0.4131250655941713,-0.3586984245310012,-0.27144530409166395,-0.1558437375187411,-0.05678618869336639,-0.000529917538732733,0.015106673886155105,0.004935691195958423,-0.016178884664201212,-0.04460751804399789,-0.09697873170454957,-0.32844766015559246,-0.01953341926039169,0.021124971661766048,0.04194694239478638,0.057682173841718885,0.07050315292479548,0.08377377944254517,0.10088441451015719,0.1120681409816553,0.10248100175669538,0.1115896705597587,0.12917604056798124,0.13503815063126406,0.1263624235759242,0.10981891666485723,0.09218627542696632,0.0764807297849969,0.06479478021441754,0.06166896853636825,0.0640051446210519,0.058689162366847535,0.03782791883749399,0.0037002386531622,-0.030781627952223837,-0.046606683431650496,-0.03570352911160856,-0.003114577348066778,0.05120000635914145,0.13137431332385738,0.22486478829377432,0.3003658991200957,0.3371839947661304,0.3322281608023,0.3037132490013838,0.2602797256361208,0.2143761215946613,0.1713961844246877,0.12616617659456902,0.07861376039087589,0.04115973240551878,-0.012231639164870984,-0.10884023027024828,-0.2821073749397821,-0.5394519413102964,-0.6923952354277543,-0.558379168240557,-0.3822322976264626,-0.25545764863041287,-0.1697788575613383,-0.11488035421160281,-0.09021246559546656,-0.09978154630703258,-0.2019160006373084,-0.14439595218216775,-0.0628056970600042,-0.03905076542414906,-0.032568635455440274,-0.04054925604805188,-0.06311691107553767,-0.09700315923372994,-0.1260893778692249,-0.12187441005256018,-0.056009912395692696,0.06744550827633905,0.19779182585119606,0.2654115169605933,0.24531604647057806,0.16387383748021103,0.07833445850729251,0.031213557904911114,0.03554562220372073,0.08210544058894656,0.1465033351817453,0.1945233382257446,0.1905914849879822,0.14417148950537878,0.09270799503681493,0.06944541483608711,0.08946119758485112,0.1574386575626805,0.25129592665772726,0.34292287801081545,0.4089724415452093,0.43030975887136325,0.4017744297527803,0.32576193568150946,0.22775671771794812,0.13722972364708663,0.08699841627198353,0.10098225786466299,0.17955369740595145,0.2860855994619732,0.3747089845819879,0.43590160296485325,0.48003891412160016,0.5182545930035619,0.5512660941171064,0.5727478948380091,0.5769835841270791,0.567459189150421,0.5571880018057476,0.5547198392956127,0.5514011678971297,0.5369339744105334,0.5070593740079526,0.4587830858803965,0.38653181799732633,0.2891101305244434,0.1733676844090449,0.04129970386881886,-0.142032942888011,-0.42886427847173286,-0.33576037185245067,-0.20234246791166743,-0.1418199036140009,-0.12190523121917878,-0.14295625567419354,-0.22869173825877967,-0.40860837187385346,-0.6966670748124577,-0.9274662345366482,-0.7993591612724297,-0.583012178382567,-0.4630647979618931,-0.44042885013915434,-0.539808337866732,-0.31689952436995444,-0.054028158020125845,0.019664205684160975,0.05017057019906055,0.06424263631527914,0.07007779100310785,0.06994485580965475,0.06292971834843512,0.04438147934092202,0.024953677192203285,0.021081649931906903,0.037034007115086046,0.07416001506239303,0.12895834236408923,0.19456870244358268,0.2576821591928188,0.2887756650715468,0.2572669071965805,0.13420836247122941,-0.09382663639539908,-0.35631909179178006,-0.5495702187734264,-0.6505137389951356,-0.6841244758696932,-0.6698053570267526,-0.5972866333713011,-0.42606476968968665,-0.11994264739099819,0.17825003829713862,0.3284655805327137,0.3766210457065019,0.4011447560287362,0.464042722387041,0.5536627695011979,0.6398247805543039,0.6952559561602062,0.7259264293383462,0.7363642437022163,0.7300562193870619,0.7141156333066936,0.7065125422944862,0.7149580802275055,0.7365952621230242,0.7540464086896481,0.7627271794618795,0.7681253675217015,0.7700292105214721,0.764674886993483,0.7393972146294778,0.6675845082446947,0.48965021566946887,0.15849832519157858,-0.16467426685276873,-0.3370365434242365,-0.4101869937199228,-0.4386061285586266,-0.4617540852033807,-0.504861005514911,-0.571852942229988,-0.6464553433300171,-0.7050889608925788,-0.7312235125585717,-0.6992194805536114,-0.5610110009133862,-0.2620897651965116,0.038478075121967506,0.18347186934158868,0.20277742293792253,0.14475979329801403,0.06087196152568879,0.020739868605443336,0.014002250994698992,0.021754722625910945,0.016970136355073984,-0.017641324325461484,-0.08156617041494907,-0.15226484946966326,-0.20437709773989893,-0.22714618968430542,-0.22470062357534243,-0.21676157771479185,-0.2155509818509047,-0.21763673623541802,-0.21204709247840176,-0.19080061751885502,-0.15226427292566705,-0.10938748583639515,-0.08111577059487189,-0.06995345082546568,-0.07806152012271937,-0.10563869878826974,-0.13979475920958137,-0.16333331071651652,-0.15881242992098177,-0.12403899922289287,-0.0840593774217358,-0.058693019492125076,-0.05105567340642704,-0.057084737122619585,-0.07519411698240486,-0.10194868309059586,-0.13250094239970747,-0.16727772924534937,-0.2087200807124148,-0.2510891649838062,-0.2615909927258507,-0.1107156610758736,0.034835575102572555,0.09131910744444718,0.10996850340895278,0.11462074857156485,0.11623399125058466,0.12578763780330493,0.1515987612889943,0.20263400830036307,0.2790065002894913,0.36524637112977937,0.4439487235664277,0.505680990928044,0.5341487482381376,0.5251677454143077,0.47801096633238443,0.3945057470352267,0.2751634006592216,0.12368136662146528,-0.04072559791997383,-0.1893123182771504,-0.29928801484247813,-0.36761640404896695,-0.39793198980132183,-0.3865936684237221,-0.319276595630242,-0.16296289892115823,0.11411561111715644,0.4497804960405302,0.6842940122854285,0.7996741691720345,0.8471772366092382,0.856881947883738,0.8385104714202147,0.7937535632579958,0.7118496733217864,0.5849851120858234,0.42871774130857726,0.2855984277901173,0.2094306367545815,0.18351839834137273,0.14308767683235651,0.08679133725751409,0.0350681223571699,-0.006257203036528242,-0.04092845927421583,-0.06591099413962334,0.05785050121545711,0.08234729972585114,0.09610663071680903,0.10139526471505332,0.09134887239853959,0.03316857932977452,-0.20281400579554223,-0.6244321760157209,-0.7783786427514031,-0.8297657178186996,-0.837462677451655,-0.8157796710785481,-0.7766634114233584,-0.7199177992409364,-0.6373052111644483,-0.5332088251643852,-0.4370851905803711,-0.37014040948324944,-0.3302999467907519,-0.31298297826930643,-0.31255797086275916,-0.3163107908063445,-0.30864419205676574,-0.28692756273137326,-0.25601735239758683,-0.21909974371776475,-0.1650249807581832,-0.08334427135666403,0.008942920598918007,0.06693129770566374,0.07191322508313257,0.04579721359331631,0.017735723915084246,0.014554206276577632,0.033286550291976295,0.035018576102866024,0.011032007724131212,-0.018805584244480054,-0.039463809544274676,-0.03731317961305531,0.001937715372811084,0.09346562142381704,0.2664705875161311,0.508452082614394,0.6907780862679601,0.7557095277938827,0.7550449925942284,0.726178119495835,0.6823230853566773,0.6244596862569533,0.5569777022834027,0.47248323471603987,0.3790291887670831,0.28621031895457927,0.20302478284764666,0.13271481809053515,0.08144000954274366,0.044323509104238254,0.003541249973208432,-0.05675003561302294,-0.1481024444065739,-0.2541708599304345,-0.3419603628536865,-0.3804764181882131,-0.3686710037323177,-0.31283780811299855,-0.21494135264618536,-0.0788857686489173,0.07031301511595255,0.19420387357576627,0.2995603125333666,0.43310550833515415,0.4726017130288426,0.2872079921403359,0.21438394059239838,0.20854066127863166,0.22845614940705425,0.2511109340673982,0.2663795376440197,0.26827845291124763,0.2525534575412444,0.22264230076649338,0.19237647099255942,0.17401253135558356,0.16177997250306084,0.13478975006587168,0.0938290265053074,0.042953544986416736,-0.02179782625837527,-0.12094146694793273,-0.27998818696088384,-0.46910440342889437,-0.6076297614147821,-0.6630848614319327,-0.6547686642157824,-0.5972153968907451,-0.5034768316209953,-0.37636840972513863,-0.2161991588751177,-0.08952743229680636,-0.025170006796755767,-0.0001616878080608781,0.0029360092322945923,-0.00729995122999332,-0.021678174643914066,-0.03639075362742439,-0.050575000244282894,-0.03650170475650462,0.02216947018523024,0.0354136625046783,0.03846247659210339,0.04041449917715985,0.04937320243937013,0.06931462118422971,0.10136333844898349,0.1447463160052255,0.1987486601675498,0.270705626138453,0.38813134252411796,0.5753200984685639,0.7739501741825628,0.8649216518026267,0.8769928474870281,0.8648146600661849,0.8278937647196555,0.7544676566730122,0.6389575264017764,0.5058869478530891,0.4143553595205163,0.39614348177767683,0.4247135858620685,0.45511328243572496,0.4533568037690904,0.3957896355771731,0.28778206810505297,0.16996767996342924,0.07934365669041903,0.022529674463747977,-0.005613520897320658,0.00895294875605594,0.11209498759811647,0.1618565954101764,0.191648035309057,0.22865018346977395,0.2700812437867608,0.2996384182813389,0.2883972172448773,0.20785585058011274,0.05941401446302808,-0.11740651201594474,-0.2945806846414574,-0.47105968874117654,-0.6395058278680944,-0.78535011299251,-0.8921252063657155,-0.9483967226290656,-0.9660654362378954,-0.965110845628953,-0.963582509877276,-0.9670526067852907,-0.9723659944108244,-0.9754534761416109,-0.9745964635702363,-0.9678300234523778,-0.9532235131737725,-0.9224531902543163,-0.8647654640502839,-0.7704926853007984,-0.6471761668087558,-0.518675074640194,-0.39675212365230916,-0.28719540710066715,-0.1805190887485843,-0.05537851474359716,0.10191883233580867,0.27026471007471486,0.41787548851551287,0.5300353419507379,0.6079739807401968,0.6571957212245877,0.6862994191144468,0.6984924703934354,0.6909990878455542,0.6509127410206172,0.5403637593135854,0.3288203275309564,0.06731988883066947,-0.12798836552971266,-0.2316748660211207,-0.2788188490817317,-0.30949923079210406,-0.33979599066558214,-0.36544134637250786,-0.3676941077196214,-0.3404832932852598,-0.23927495028047224,0.037294576538044376,0.3866958733527484,0.4881749497226419,0.49604759465570625,0.5032253559572899,0.5258949116148921,0.5659125267216585,0.6245488673686904,0.6922510723134063,0.7514322188411151,0.7901930446573895,0.8055578320872678,0.7937673969140461,0.7437958245753508,0.6434458345131231,0.493281608249009,0.30020687700828685,0.0853670750729528,-0.10562305038192933,-0.22336168190630643,-0.24342998010416064,-0.18506476058523044,-0.09915202160544233,-0.03240468691755985,-0.0037567488305789683,-0.018265727004840592,-0.09430716149103345,-0.22116773498530903,-0.3483076368443402,-0.4287997638724606,-0.4610126612522549,-0.4589764568609045,-0.43441785443417674,-0.3984305357671264,-0.3551633346358365,-0.30924699017359286,-0.2809031037335567,-0.3008868736955185,-0.2787320648191666,-0.024368828180755073,0.34498658379159425,0.6530628639731717,0.8141676193331492,0.8739164678697968,0.8741782937275551,0.826139700902823,0.726631843355291,0.5703315058235476,0.36417762015681254,0.08699323773317304,-0.35171653720389506,-0.4027813566773323,-0.296539351475668,-0.2174465955443605,-0.1520675535203026,-0.08794780942848315,-0.02185915190321529,0.04468548912543761,0.10906462705871732,0.15863962749390148,0.16529277370280046,0.0738328194073806,-0.1449942969585292,-0.38378353304842433,-0.528173976369062,-0.5945606231101006,-0.6111430510410331,-0.5869126955139446,-0.5175298300916565,-0.4039081266672111,-0.26884517168651956,-0.15027018460510125,-0.06960885060703415,-0.0030444990754972634,0.13762441112609092,0.3325548756292574,0.37617528346606244,0.3962256196650209,0.41687853246346346,0.4295199066710079,0.4217865471695321,0.377368275925539,0.3104966914190255,0.2399688610853518,0.16029389361557908,0.028563392193375073,-0.20367366313228522,-0.3953677096533547,-0.4258891642361558,-0.3763952035569335,-0.30033835725306685,-0.20952274840285623,-0.07587405443657634,0.03698583017559187,0.050153079622044724,0.029970140662087093,0.0017804237818885836,-0.02926248771556275,-0.07887622154452283,-0.09728241330683024,-0.025354661709623,-0.006366831547284695,-0.005314171289683459,-0.017716844046192694,-0.04726591954321904,-0.10593489438855828,-0.21205424561069214,-0.3046002481062139,-0.32478731841056024,-0.3305966399658044,-0.3304554764379241,-0.3210637616573808,-0.2942235156488316,-0.24985134179093518,-0.21815898717369514,-0.19380506552851726,-0.12799693741839674,0.15840088533178298,0.4052921609597689,0.4512577695476575,0.48614173422974555,0.5256849305876098,0.5670504259726157,0.6183523106505667,0.6787412752704567,0.6444498894764707,0.423595705692345,0.22213187806558488,0.1334915783284136,0.11292739688641058,0.11869596334107682,0.12656996391105213,0.1339430562071307,0.15096985897046572,0.1808630432584107,0.2210190280121231,0.26186693142383577,0.2863577880424252,0.2866263500715308,0.2518804091291602,0.1824946854394513,0.08178816461846518,-0.03568623996854286,-0.1382591447834103,-0.20583561038325635,-0.24508347181175447,-0.2657527425749319,-0.2630923016895839,-0.22475711710955165,-0.15370508253098014,-0.064258686411718,0.025643586431994016,0.09723038022030073,0.13554559737083366,0.12726817293667228,0.06704660230465895,-0.028144914450501587,-0.11172378791011793,-0.144451552208907,-0.08945029386607045,0.07149885007092915,0.25737604596447766,0.34596793877036297,0.3108938403986992,0.1917942153944831,0.07130671894881764,0.010615729469694126,0.004565720813090865,0.022637784422104776,0.041499967315449596,0.048751235800541,0.04168477577164974,0.018252734336806423,-0.022045227279200972,-0.08846261402956922,-0.16665285870197194,-0.012360597355831025,0.05309312972146472,0.09099538406275472,0.11904456136927834,0.14162094568731518,0.1609171549245417,0.17965179217955868,0.19828381044217297,0.21018649344768742,0.2066738883565026,0.1801010328814866,0.1284661935233766,0.04485787050042071,-0.07973681677492749,-0.22809926892983873,-0.32402844756553656,-0.35525773668234095,-0.3378091033274746,-0.27358288225574007,-0.1964180754123222,-0.14094224935751531,-0.11274386193479331,-0.10394249420469011,-0.10829662269720129,-0.12544939758603982,-0.18515162615172556,-0.6667650188917684,-0.06510570493034021,-0.006382038933878205,0.016275727838829423,0.03007987179225217,0.03847068022188875,0.04070608526348026,0.028280750228722396,-0.09795380803154094,-0.20957407438522643,-0.20863231735478438,-0.23629042062738734,-0.31500707189739524,-0.5694595995717531,-0.4715043526950566,-0.23366700247014172,-0.1683459433680604,-0.15034731501531073,-0.1505279810760415,-0.14457094865138942,-0.056922322448914806,0.09789691267965447,0.22058278178342736,0.318395472080222,0.39889651774701035,0.45096865220448107,0.4650099491348809,0.4260878811474543,0.3130396778933202,0.12291935114337081,-0.10553013495732436,-0.29594452571490054,-0.4020311956583111,-0.4276798953120419,-0.3780211839472818,-0.24779277268743533,-0.061808013040139616,0.09935805250651916,0.17953894594711484,0.18596143034557902,0.15862382503147063,0.13720990114733952,0.1408016404224947,0.1687608069297091,0.20298213182425215,0.2210415329688913,0.2021649642943906,0.14568990957296732,0.07148379145519143,0.008217773656820616,-0.03838518102544407,-0.06913223447030988,-0.08296401294203147,-0.07375865208101463,-0.0512695895495338,-0.02982389709221005,-0.010213537357775531,0.014795545692134456,0.04410104169448977,0.06794262714881105,0.08286119755516545,0.09252487980806182,0.10403002570561408,0.12964111039061463,0.17661336063004424,0.2480289971981035,0.33615074467740186,0.44942894196500327,0.5909233105095438,0.7176573058366534,0.751315905430631,0.7265444578642244,0.7068891190352532,0.7001311190285391,0.6942435859331214,0.6752825843874731,0.6226349814812456,0.5058822001404385,0.30743559253994396,0.05749097569057768,-0.1669366583574859,-0.3205665303594466,-0.3971457971166588,-0.3953858274294107,-0.31599609539068113,-0.17245380097032362,-0.025807441209824703,0.04324428765858447,0.007353377299418748,-0.1147256658395629,-0.25868454755527864,-0.3694776659469031,-0.4386926272150176,-0.4877887261341076,-0.5101289492966463,-0.45319424482284526,-0.36308713106651674,-0.3068932006384762,-0.2821247852527527,-0.28600921401242835,-0.33051625225483844,-0.46216266363910813,-0.6504519588756588,-0.5102397958692192,-0.38520453867823046,-0.35127245148540276,-0.3602201924252246,-0.3890237148351805,-0.42960080899475533,-0.47877490233300296,-0.5296367397522177,-0.5625367126620114,-0.544645824435769,-0.45979469751264584,-0.3144437380641874,-0.11599266201778875,0.09458620595482956,0.2695778174324059,0.37536327563324456,0.40915100261234905,0.413078913812285,0.4092789902517657,0.41944647435593163,0.4468247322666408,0.4866737129395247,0.5387262498583283,0.5956779956177887,0.6472205710407338,0.6770385741969597,0.6712199484175391,0.6272237339452817,0.5407014300688535,0.4139706348701305,0.26981562434372053,0.1483768500617953,0.07914532984853512,0.0645688240543569,0.09554498933817002
