0.002944048020308396,-0.07131724173937712,-0.14799184817919311,-0.20200817458202305,-0.21923662332355764,-0.21631031536809073,-0.2231357089678349,-0.25465343253819644,-0.29400826643906514,-0.3044709017639253,-0.2867990179982837,-0.2591942283285887,-0.24661802166248803,-0.26038197867660934,-0.2969057775820517,-0.31741134529248266,-0.27891477246512125,-0.17272259200101475,-0.04331007845262673,0.06309107745721987,0.10993148372586915,0.08342164488296341,0.03087950204258678,-0.014603465840823641,-0.04892861165223967,-0.0637702749598917,-0.060552722332078375,-0.05996593676945051,-0.06609280878382189,-0.07194711050714252,-0.06675674358496979,-0.02829527981931486,0.03177322382042097,0.08644614493048697,0.13610146463468079,0.1963486401143688,0.2966918398731773,0.4721234283493363,0.6958568292689468,0.8658285057767567,0.938414912779798,0.8489363867892051,0.6301284649788663,0.45805043339437135,0.3676219477062882,0.3274636517478258,0.3183605505646905,0.33018364840218306,0.35741317761536506,0.38399455299863183,0.35546308213792693,0.24079595650036884,0.07363004293466126,-0.08700493355108471,-0.18992296581180054,-0.23339647488608153,-0.23412935865059364,-0.21034763947334895,-0.17944760924988026,-0.15198315498348236,-0.12008193717414398,0.015580506450869567,0.1005019994005978,0.12037509152240836,0.13552155955215708,0.15392285761073826,0.17717798101901203,0.20737588211499733,0.2518852526149611,0.30348897239814315,0.24273365241182304,0.12999170023437767,0.05878992654298137,0.010496508531788663,-0.02608089279630097,-0.059840064037713483,-0.1166766430725252,-0.11748653296021241,0.0027694285281302045,0.0280119949972718,0.03935320855124056,0.0456467613245299,0.04567440111996521,0.0385072819357934,0.022861829706218542,0.0020390897423820213,-0.023915681472079516,-0.06471492656807552,-0.12648288747112538,-0.21597984734228415,-0.32752136908819746,-0.42648186497649393,-0.45949059528436825,-0.4109336600564933,-0.3167230003221908,-0.21982324160490216,-0.15384762161400414,-0.1305743238624347,-0.14597144160002548,-0.19405050430435958,-0.27764267909098994,-0.42280933093711826,-0.542187697986306,-0.3755554535395665,-0.24309977039153657,-0.1836356339638134,-0.16199820844879198,-0.16203119883004646,-0.17582935010706013,-0.18212091085673382,-0.15757968357230978,-0.11071645436385641,-0.057497479313668824,-0.0027607352025107315,0.04740400364654487,0.09165417730562936,0.12505308738921647,0.15873738751325242,0.19022882197621968,0.22860184737299416,0.303640711034878,0.4251644709484745,0.566271351241673,0.6976833695903488,0.7952292062995571,0.8551142977143601,0.885346638258125,0.8932377318544659,0.8824169198535864,0.8524736428860212,0.7970138792525598,0.7032163531767988,0.5503255456309907,0.3283255940647173,0.08464601982357914,-0.10195970815641074,-0.1836000611184158,-0.15374638523466627,-0.05297774933888109,0.04872409832264575,0.0733250209958146,-0.024727922761637947,-0.21086818371469643,-0.374438876038134,-0.4639591302223778,-0.49690350989991033,-0.5042303958926715,-0.5032662341884816,-0.5048135051911062,-0.523502763503867,-0.5608236903897434,-0.6131719012242802,-0.6681595050276505,-0.7121712135109526,-0.7435968511173112,-0.7654746479454839,-0.7798875034855002,-0.789936961133503,-0.7843008098853617,-0.7169400551181584,-0.5466385746420818,-0.33571405382730035,-0.16639248537863796,-0.05529917836946793,0.00563712368217888,0.020687068545005457,-0.011882134006187947,-0.09292056449964775,-0.19310882920299255,-0.26286617263697865,-0.2761394607682911,-0.24379335649326925,-0.196807104946089,-0.15500300768617467,-0.11066823065666649,-0.04201240295839627,0.04746178051453414,0.13379129454306324,0.18619621817526288,0.18708306802752722,0.13322051649609234,0.045302974071838364,-0.033223520650143945,-0.06524221525764218,-0.0365165820101439,0.02450792525943388,0.055077015088195486,0.04967171494484063,0.030350155276065462,0.0071363542613603155,-0.021331183216419435,-0.0521334591057579,-0.07751372072148983,-0.08699183445940728,-0.05596668165718791,0.026087985669489167,0.07316098962994058,0.09524064938267522,0.11091027729843043,0.12563753081523982,0.14222729430332545,0.1661944389928933,0.2122565816860703,0.3010755016826679,0.44143906407983186,0.5797583053109596,0.6313533457182585,0.6141169883029233,0.572928977420503,0.525242772906219,0.4823486693929122,0.43952999119572866,0.3873639322091841,0.3253812024930225,0.2706927518231205,0.22718601813336967,0.19203710973172397,0.16240683122906344,0.13562178686314993,0.11147761181946128,0.09117597123630032,0.07557572419854125,0.0726870185204774,0.08759281547980398,0.12542614560502463,0.1920030534981095,0.27307569430567513,0.3290052404548778,0.3285765442225099,0.2682250758145488,0.1620418127195715,0.03202084035867352,-0.11177326018392533,-0.25739591420033964,-0.4094674331904639,-0.5668011725030292,-0.7100650371574262,-0.8143390691730614,-0.844928764119929,-0.7431753918840371,-0.5670037012077893,-0.4177423128982144,-0.3246225904919391,-0.28242214285298867,-0.28425783427339324,-0.3416963694319535,-0.49778223155955625,-0.30108767237055584,-0.07199384195134594,0.01237781477618589,0.06092503451968425,0.10358339609739453,0.1522226122856776,0.22002732102536318,0.3037547074957174,0.2763711496539749,0.14289365769533743,0.05215517405276334,0.0131129049786661,0.032804651962366635,0.10624837009967135,0.1864245890560855,0.2479281494736001,0.29043912421486273,0.3096121580349425,0.29060303650487,0.23752068616313715,0.17941490235105,0.1333645046297184,0.10690849696035347,0.09878201730833355,0.11293001220917995,0.16003328806098222,0.23251662446287102,0.28558251075368957,0.30300919322301584,0.3044330980276202,0.2866437771924739,0.24270221526490598,0.16002168372002623,0.018127842755261022,-0.17077312947963252,-0.3110785260245327,-0.34988366847746094,-0.32147000415770605,-0.27301005018489677,-0.2206832322299763,-0.16609283119831214,-0.10925178341359848,-0.04317278697823285,0.03629638078081341,0.13535565354317725,0.2334337035161665,0.29956843493988056,0.3287175226737917,0.3274083133924298,0.3028072357601796,0.2625823260773167,0.21249855178401691,0.15867869175344196,0.10323796344194017,0.05377499465658513,0.021552938891424806,0.008163502327482572,0.0073065298032687345,0.01683775231542191,0.037709224331861635,0.054910590716656334,0.05728605562725788,0.05620575824369199,0.05477301319531212,0.0525818720134852,0.05725547341329853,0.08062860894165724,0.1356476669985838,0.20739577767861903,0.2739141474906331,0.33080868743534636,0.3099000102130196,0.04240105839689892,-0.2739013316598109,-0.5516696011502689,-0.769432622796636,-0.8908048383658134,-0.9131870275812115,-0.8517602000658333,-0.7094536603106394,-0.49797781053488827,-0.27992972468200406,-0.1367785753901923,-0.08773418406044502,-0.10775819914686413,-0.14795369447399478,-0.16294950077863887,-0.11952935870522606,-0.012288862647151724,0.12277625661143855,0.23554961751468229,0.30560530334394065,0.34514540073574906,0.36243237305071546,0.34786190770462744,0.3027769168598385,0.23757295332623624,0.15859730965761157,0.06325093062381934,-0.05169885160468941,-0.1688977539833005,-0.24857913587684172,-0.27594774704347597,-0.2584873232963729,-0.2141638283564652,-0.15029979678744007,-0.07401860696463672,-0.0005572200790384824,0.07478381054122023,0.15013537690324313,0.2176263270377048,0.26084198278203785,0.27322174408522076,0.26672163279650773,0.2505930880516277,0.23304199643969895,0.20556665745009933,0.15500289744179394,0.07720459595708042,-0.012710000286150163,-0.06409108998463499,-0.08368286693079724,-0.082989988971686,-0.04597522170870667,0.1371178180237527,0.28527725950488086,0.33996158852254,0.43703640181069897,0.5984909593212598,0.7910031395980793,0.9005172887037921,0.8886978542926419,0.8229927244155061,0.723987098950676,0.5491995750025752,0.26221781515117526,-0.019234777502427327,-0.185517452780911,-0.26337060116352035,-0.31079403937993516,-0.3660619057785811,-0.45486613160518835,-0.6058443538153546,-0.6427646169793407,-0.3448940276764982,-0.15960561572112364,-0.07023977160031841,-0.023920038324583563,-0.0013350959865072937,0.0036941243720038696,-0.005166389824614652,-0.023225843263250997,-0.0420628058847493,-0.062124809013309176,-0.09912379011877265,-0.195311547796445,-0.4691108030695347,-0.7946842817981051,-0.5501300564313646,-0.43268625053150395,-0.38646666183177725,-0.37236942288901165,-0.39743877741588135,-0.5016530867104035,-0.7725821351080402,-0.6601528121282253,-0.3419508365025712,-0.21669576712027022,-0.16284024968435706,-0.14153552677674808,-0.14038395689814065,-0.1537899342916299,-0.1773812707657903,-0.1930189383199096,-0.17164767122857807,-0.09892586237461758,0.004828468631139318,0.10310466112578215,0.17767811121795246,0.22647702433816272,0.23963964675766505,0.22289168591303818,0.20418753515165694,0.21187192643083425,0.2824751769246917,0.5360163009357097,0.7763629330985617,0.5856994949266544,0.580156948511816,0.6682890409320656,0.788764713178784,0.9008769150961837,0.9758638064448655,0.962533680787075,0.7191216403875292,0.3313356483242528,0.12340979642713082,0.08884751944732247,0.12899730172077023,0.18188842635574423,0.21213236645977673,0.195254140225529,0.13176194866307042,0.06237379837395426,0.047194593076960334,0.10779432213889106,0.21916252193820288,0.3277765671010701,0.3917703958405254,0.40327135218472904,0.34769180130639316,0.2241464126407002,0.07697697491096918,-0.03400502078854642,-0.07415404681651729,-0.05637537909835178,-0.01777314778624118,0.014753056355758982,0.03573203699508254,0.040248790540057866,0.02690996757066154,0.016415501156991735,0.0231954163639858,0.035662107816365474,0.04904705440025491,0.07629690537240036,0.11169583575177991,0.1298203022750123,0.11742985657187519,0.0920052674786874,0.06475322957664423,0.02324322390690856,-0.04033980267424069,-0.12740158866319962,-0.27200268413802103,-0.5329250623336819,-0.5402517049541212,-0.3427795337444518,-0.23597452649954265,-0.18335088301756156,-0.15920004419148087,-0.15046779359767717,-0.14663972262404323,-0.130554563944171,-0.09446514512308048,-0.04838326765351892,-0.00795963388247959,0.02537827245617868,0.04928533839078836,0.04371833017919963,-0.008750163290983954,-0.09289142480958508,-0.17131737202836722,-0.23012886828209206,-0.25336464531131325,-0.24163655221626903,-0.20662032177559828,-0.15990067306590502,-0.10200642259029585,-0.04539306896853895,-0.0012169542215385034,0.03378717857386431,0.055841203183082645,0.053337649063078404,0.02672479496040348,0.0035716496359462996,0.006769084658468173,0.017855254687215882,0.005044594741440211,-0.021487555147383777,-0.052600675827679,-0.10350971575485575,-0.4083765592317676,-0.04320793305390603,0.016401856204889233,0.04965050930481569,0.08397701926451734,0.13252141862645095,0.21483287575581642,0.35311149929598523,0.4480676839949488,0.32016879726976083,0.20942044425865894,0.16001568042405637,0.15936021376238066,0.1975163728860492,0.268204410541614,0.37906649756238503,0.5016263530856685,0.5374672849428606,0.44490643513809525,0.3261749346405962,0.23695806956111812,0.1835066896426004,0.1647245554220745,0.19347537730453504,0.3197762464935028,0.24973893753494408,0.16251334577611068,0.1323394958233603,0.1184751239198158,0.10764745952652682,0.0918957314895267,0.06048731365635306,-7.47344457573934e-05,-0.10618840734212961,-0.267899774633252,-0.4114690808086681,-0.39972019712222395,-0.331676320455693,-0.28497028044583506,-0.27022960882790187,-0.2892530362889251,-0.360631671866357,-0.5177060718388253,-0.5483151989177136,-0.3428007099671065,-0.24987053276974988,-0.2389265089632765,-0.2857447332670591,-0.3839303533782516,-0.4965299488059502,-0.5867983684362548,-0.6691994906835395,-0.7388861971119111,-0.7798495407741085,-0.7870413947215213,-0.7515708245351062,-0.656875787839317,-0.4854593277951464,-0.2636919068246191,-0.08167156630052119,0.020256744380014454,0.06737693291685211,0.08025774297609334,0.07271322995968041,0.06126848326363586,0.05964079999920096,0.07906319451264072,0.11430732372098032,0.13877053513523654,0.17167809137673226,0.21707306481579505,0.27046841137410454,0.329061921697356,0.37868318589319894,0.41484436683163745,0.44847209128503196,0.4995674325015649,0.5888964479796999,0.7172179110328711,0.8519949859718653,0.9259382052166325,0.9288361174420546,0.9050666956130928,0.8746372840573695,0.8404120059657871,0.804933235701145,0.7677366312543553,0.7294565073302903,0.6789397221853241,0.6053697017180734,0.5092085045607071,0.39931656646563707,0.2819585302782646,0.17215623346917325,0.09554460624104262,0.06001288015509778,0.04776160754606643,0.03174052781002443,0.005757945222903522,-0.025974720464492437,-0.05288311325806634,-0.0667469365856694,-0.07088554399321846,-0.07411407333056547,-0.09047026285767405,-0.1292272153492263,-0.1916090958595217,-0.26434275745759783,-0.3339917928209192,-0.3780854927705074,-0.3658302964017929,-0.2866043663277853,-0.16800647415749081,-0.0400124555369842,0.07689354620941367,0.17489520280069357,0.26270140744544507,0.36082305290052247,0.484945337228917,0.6222400006781681,0.7472820688556623,0.8419968031969569,0.9050506838470297,0.9436013764025605,0.9563541314709546,0.8912108354388611,0.4981733376937352,-0.2085384488161557,-0.5803826080806899,-0.7304332994315395,-0.791523896890075,-0.8028615200008278,-0.7763379566622327,-0.7192172964505652,-0.6301479097342487,-0.5064222063933068,-0.38597505292301965,-0.3063626432209902,-0.27222853068846065,-0.28372323449845727,-0.35031926108094963,-0.4593457205426205,-0.5667692516648457,-0.64338520486885,-0.6902871313107042,-0.7167944071734726,-0.7254076805056019,-0.7095544760074946,-0.642927120535109,-0.4486901173146314,0.021010089855669954,0.5739767510125293,0.8219489993936436,0.9004467850199717,0.9276929535147398,0.9374547452323833,0.9419426014041647,0.9455593886541749,0.9414769438653954,0.8852102442138954,0.6115775150777157,-0.0032985685171116022,-0.445693261154476,-0.6577085009005025,-0.775752831518263,-0.8261321470869482,-0.7669162966416244,-0.577182159162626,-0.38161729342579914,-0.2668681663431267,-0.21802685328837923,-0.22087795161548596,-0.2673475664275136,-0.3354842052615376,-0.40410670280430083,-0.4492239503425722,-0.4583752868375521,-0.43568648750185235,-0.3974910737940997,-0.357954789152365,-0.3179962702924297,-0.2784785266130459,-0.2229321574178005,-0.14126299928992278,-0.041884208967362266,0.06422556990916158,0.16176728719331343,0.2323261415924546,0.28170362644201885,0.3231169580730752,0.3589967037646874,0.3772980129420092,0.3660695670616971,0.3316026301693281,0.28395538190272473,0.22263997535800106,0.14080235793023532,0.012615152575507976,-0.09472229820641398,-0.14102710981460043,-0.16180699684655292,-0.1873898224168653,-0.18594509346205607,-0.19565919378167843,-0.22709713556201788,-0.2320972439019732,-0.18511689892872288,-0.11293654402899045,-0.04968495765993426,-0.0015286266571096403,0.03362146978533194,0.04276070673487055,-0.02161518596312125,-0.13013752988839267,-0.1781403018646091,-0.21649876425184145,-0.19454809413945104,-0.041901624503881706,0.06302011105321075,0.12473813627305537,0.17088990325104225,0.20738849977298898,0.22808580382251262,0.22127990727051067,0.1864053743955726,0.14167919952508518,0.1056207073481402,0.09731712617626874,0.12213494444186479,0.1560728255511729,0.17980724471555826,0.17735159715551424,0.12815720454715948,0.016438256647625674,-0.12396588289277018,-0.20382846361441725,-0.15161449486308234,0.03318396684696533,0.2606196454095653,0.41456459755289915,0.47992207388188196,0.490513586809649,0.4838254159128971,0.4869616480248483,0.5009840558123531,0.5072765724387749,0.4875396856269432,0.42939862446053073,0.33681042117367027,0.23700981977622945,0.1605790064411711,0.11494125782654803,0.09051711793457504,0.07790662933551817,0.07336968028440215,0.07436426774301734,0.08120489449233897,0.1010351228185979,0.15771042676538405,0.2692227594991334,0.13418801937983432,0.0783304667310323,0.07234465492002544,0.09297173820059393,0.1334457641214886,0.1881893250665745,0.24816040520704283,0.29950079082016284,0.32941553035623594,0.33690469322676664,0.3341445595276591,0.3361245497964433,0.346257248804661,0.3435519729187753,0.3210011526087474,0.27642760075952644,0.22006726254862782,0.17709056167808446,0.17645650785630726,0.2508037996712093,0.25940448358022006,0.15932064962322448,0.036715851390170286,-0.1224481164533097,-0.3342085625972241,-0.5326190847724177,-0.5512861221970351,-0.5167163440101221,-0.506929390121536,-0.5176367963591275,-0.5386616942405286,-0.5441446853104486,-0.5158459663871604,-0.45429766577667546,-0.3874009214882131,-0.34010347658801954,-0.29977708340777676,-0.26079433885706027,-0.2126872153090906,-0.15806308255592683,-0.11665168434698198,-0.09825992284664516,-0.10657154478495459,-0.1443783095499457,-0.20266688810588665,-0.2674014489581368,-0.3384446738950089,-0.42349471283486784,-0.5250168509927761,-0.6243352895173939,-0.7079732549801154,-0.7790113297158561,-0.8311595443175492,-0.8540497190279728,-0.8441014791325708,-0.808496820723542,-0.7501394203327092,-0.649342147591098,-0.4617419394846857,-0.18291499105184536,0.0341379796348847,0.13535347629248712,0.19559706963546825,0.22668671348813257,0.19050725251274564,0.12434050639954361,0.06780492429083859,0.03225921073388481,0.01697768847931002,0.01850293882799406,0.034047722900410686,0.06459869306423092,0.1245509362759852,0.26090596516441517,0.27973386676181217,0.18323743422594294,0.15089058303855007,0.1532407781490234,0.17840477675153013,0.2195892476373444,0.27628161620626374,0.3495720411222171,0.4357191330861086,0.5244661887519534,0.6022479532515571,0.6535069407053243,0.6516423467842959,0.5293143399528588,0.2744110923545317,0.04785032933002875,-0.07550118946341723,-0.1378100545541501,-0.18892480634918907,-0.28019709894043276,-0.5646172719460486,-0.27572939102506266,-0.07632481587774526,-0.006939950455242229,0.03142970115021955,0.06394488657209405,0.10431993625396455,0.16096674884167994,0.21961601809670586,0.2653678829215102,0.2829123124088448,0.26085798355814915,0.19373205591123524,0.07785028234529418,-0.09038651355179803,-0.2663594778059668,-0.4034357077846782,-0.5015468445264119,-0.5671428245631639,-0.597425354038765,-0.5996903367290514,-0.5827506321572309,-0.5521282237467735,-0.5194860585024992,-0.5006142461241789,-0.501567749728599,-0.5175551378355201,-0.537595051656566,-0.546713990479292,-0.5497657762472081,-0.5586737561583203,-0.5763051372733188,-0.6000550664035096,-0.6269831233530916,-0.6607212327015651,-0.7059832373898305,-0.7621197549186516,-0.8209087757265111,-0.8672178129271747,-0.8872083563631988,-0.8692471072396486,-0.7833937469461525,-0.5593400987111786,-0.1442784698969366,0.3784945017171932,0.7864211351521105,0.9101867241427436,0.9048094796852905,0.8878589134864906,0.8731047094242725,0.8541392798384461,0.8233520284881213,0.782197657130086,0.7407035414037727,0.7017316736553597,0.6673640035562171,0.636504585765326,0.6057045838343589,0.5783987105627768,0.5550761338880599,0.5386618440698043,0.5252869731805356,0.5037110464875507,0.46786342359654776,0.4221684158480581,0.37801928885039565,0.344812950354837,0.32161801562389397,0.30983381163413815,0.30703092386326314,0.30386616671857464,0.28693137832155646,0.2573292834947231,0.22366622066005057,0.2071566068787772,0.21946620906604403,0.2520743762693865,0.2860245487993322,0.30761401832752155,0.3172220617315536,0.3111911129720993,0.2803845846894317,0.23429540073903415,0.19053714148530543,0.15223943264724907,0.12123536167864099,0.10289276775208768,0.08777871106022167,0.0670058345372917,0.030968419072701772,-0.021471044133464828,-0.08672664107998289,-0.14802715979006228,-0.1853654791754981,-0.2056831855401297,-0.2303236229047229,-0.2515887042033472,-0.23989278807893952,-0.16061088915463317,0.011110061014651068,0.23488222620534988,0.42892249627379236,0.5521637084675788,0.6147347101720666,0.6358905948204758,0.6214117670702249,0.5680620697454005,0.47746362698657124,0.3497341921752669,0.1727719590393368,-0.06879412440983931,-0.33200625705065956,-0.5320804467875409,-0.6439877242871271,-0.6932874398734367,-0.7037207086372264,-0.6853137310373952,-0.644712011796313,-0.6001965884760272,-0.5697128760162331,-0.5677090162157249,-0.5906369252669418,-0.5980950752199068,-0.5438533727276791,-0.4494719642567417,-0.37839623676603235,-0.34577984169938886,-0.32562273443729617,-0.3037998672749502,-0.257542859471469,-0.12785947169736953,0.08302393369364479,0.1956383828023524,0.22075485012470555,0.2289744534628832,0.2515855142150142,0.2796962048912544,0.2907355016782875,0.28204365919994423,0.25576274462618254,0.22521360546730732,0.19570738466870924,0.1903808728343033,0.22959370323565637,0.32032021706933567,0.4292661949144642,0.5123200693733667,0.5564730930309482,0.5783385722161998,0.592755044411111,0.6027401545281262,0.5980867071008368,0.566112401366278,0.49664558782020407,0.3965792339729236,0.29909096401927787,0.20949539024696437,0.09249655447620005,-0.005447253265410431,-0.06148721468453838,-0.10451380098890711,-0.16099728043138437,-0.2907524445709888,-0.734378772364892,-0.16911054665120012,-0.06176585666422662,-0.025091662006973783,-0.013063063803167138,-0.017885653189632086,-0.046415062809406715,-0.12293246915047286,-0.29636677981663484,-0.547327285653305,-0.6732079518077567,-0.6695005212312913,-0.6273178958567486,-0.5730492448386698,-0.5116471636286408,-0.4457068900859002,-0.37694887635217517,-0.3168745085231179,-0.27425075840766233,-0.2556334458847318,-0.26145091896006095,-0.2857533074309183,-0.3108987078625287,-0.31349683625116676,-0.26783250103679507,-0.1990467086053832,-0.148276801255255,-0.12077003077907886,-0.10438819782737065,-0.08901222483617047,-0.06666920169904508,-0.030191644212750328,0.005949445709014203,0.016557042985044262,-0.00015773093082897919,-0.027435983087453174,-0.053767652589511584,-0.07416357858069769,-0.08844090329795692,-0.08634914344995781,-0.05379294533710795,0.028341185220735348,0.14362773073895582,0.2215208943790572,0.26187658995661317,0.2948160897986551,0.3317355316288159,0.3627059467768576,0.3695993341117779,0.3554104810411037,0.33709318668124144,0.3302039885634221,0.3397466717194365,0.3636445927466513,0.4014328467630806,0.45525689596342245,0.5156688395167304,0.5549185606053554,0.5401209278933072,0.4252220560567663,0.15986159816717715,-0.1776837441470202,-0.392066162456165,-0.4364820004563419,-0.33715703488472865,-0.12191873179387182,0.12490286968958637,0.29980748088717296,0.36434404833742245,0.33954192627651586,0.2632165908122805,0.17687515274906834,0.12074494579018542,0.12262855772291054,0.16166697130069993,0.1927186730268816,0.20709011537240568,0.21979831585769846,0.24947061094601639,0.29198184476813865,0.09873797905308009,-0.0612164827854017,-0.12910236264205976,-0.22256420855849116,-0.67215330031175,-0.11484697680049955,0.00066909746909251,0.04650277140735249,0.07197455149726821,0.08673052293147059,0.0929405015030529,0.08723364572247853,0.06344814913807016,0.01593153062087835,-0.052730825041881785,-0.1275927862146299,-0.19799395430334166,-0.2580766159483122,-0.3008879387107258,-0.32266999121347656,-0.3265173096265606,-0.31315912843307847,-0.2797378618736925,-0.22297741945454727,-0.1464833713013482,-0.05806742964903967,0.02649875331522343,0.08217386653726864,0.09896411236151442,0.08766736997452844,0.06492907883648928,0.034796189682308125,-0.0020146429066113984,-0.04284207106492889,-0.08509309411403673,-0.12569076927994008,-0.035908619779138,0.06373000054371349,0.127317952140558,0.18153206801799457,0.22928352966899782,0.26203582592691405,0.26256883383714796,0.1830554864464762,-0.1876362598414214,-0.5960902771782509,-0.46985606916078027,-0.40307581170747553,-0.3312231513777995,-0.20869041776834257,-0.022287560151397868,0.2034486583163962,0.4120942401793807,0.5685054305925611,0.6704683458227583,0.72664101859429,0.7409047819691553,0.7073630328945063,0.6082812060133935,0.42055830967575214,0.1618080155067505,-0.08621226090331081,-0.26041285151919075,-0.3595186824055611,-0.3968389422221633,-0.38098908580674223,-0.3272805829787734,-0.2597918950382406,-0.19921669200967662,-0.16188927266138833,-0.15571421601212787,-0.18487742559111192,-0.24354532652044514,-0.33086660567956827,-0.469429086035818,-0.5408040519237801,-0.30825106640754524,-0.1773404965343839,-0.14892973667818488,-0.17593810866031342,-0.26260114059892586,-0.5377671455740526,-0.6698562538418903,-0.26422289495977785,-0.15578096393160387,-0.11916361212534145,-0.10409016880067619,-0.08825470232738207,-0.06420100532389293,-0.035577270991104845,-0.010589555642243675,0.006348855727335551,0.01429929349224948,0.01222914286936987,0.0008907135061479394,-0.037041582229596554,-0.11954866120621223,-0.19446718095876214,-0.24802822589701068,-0.26543374741966175,-0.21265239556535784,-0.11522806488483318,-0.022619091944103373,0.04464609896016941,0.08598161726535784,0.10030157805147583,0.08536270383070879,0.04190187922025993,-0.021131893826566342,-0.06276048609065013,-0.05867807719707968,-0.029294628746085478,0.004195918216476631,0.036561237033575875,0.059000514867546455,0.06640628002495785,0.06518614893697335,0.07224769312774715,0.09188704696268635,0.11489948080637485,0.13146760286439127,0.14337573986693444,0.1497749084797947,0.15962653716494296,0.1798798696861194,0.21218429777921727,0.24967321102501894,0.27763579324755966,0.28997466677532935,0.2880141689064226,0.28241164072851044,0.2880564466053197,0.31820121826770437,0.36403632097900035,0.4026160890953032,0.4153598747982938,0.40020669216181665,0.35995675400967103,0.29376037883028694,0.20621708397961852,0.11421903782674046,0.04222824824463288,-0.0030281493990681196,-0.020277337859098528,-0.005351250804503795,0.03820525592928575,0.09303968027958409,0.13912734046954664,0.171112574332466,0.1982884445435696,0.2294103302250746,0.2598776296881471,0.27924939332472287,0.27731135522805467,0.24910657785727972,0.19957690460324412,0.15506214076648625,0.1274151463482913,0.1267347063570174,0.13589764504549076,0.146686300852779,0.152230390545722,0.13316974260604592,0.07998059538534079,-0.0014346749137212126,-0.09180911727407848,-0.1786009846007731,-0.2652805526206062,-0.3260668102189669,-0.3410622499483572,-0.34507007754596586,-0.35617283284111095,-0.38201395413228356,-0.43036518462560236,-0.5065091616540354,-0.40210169244250854,-0.11385601270036651,0.029070984529684884,0.10136921135417304,0.13943542752781293,0.14481302711066837,0.09934039029740656,-0.007788510956730098,-0.11032566255615973,-0.1493450125380299,-0.1348988206089792,-0.09856270534684274,-0.07690950464860538,-0.08465065319141447,-0.12028820301577263,-0.1805751863682885,-0.26785022463866626,-0.36438981523182984,-0.4415436797378607,-0.5008086140545916,-0.5359230116619144,-0.48518809490190246,-0.2562787720590655,0.08670399358217057,0.36926030280366834,0.550894252273518,0.658932121337988,0.7131447970353544,0.7258231180448039,0.706068615794154,0.6505269124460852,0.5305768558324927,0.29470404783164084,0.023328927709423443,-0.1717964840151189,-0.3102838775990289,-0.4406956253585422,-0.44734429835513234,-0.16067563752184036,0.06491152001361673,0.22911376682841908,0.359710493028858,0.3862305640415356,0.34148883094555016,0.3059747854023584,0.279617738194693,0.24897223802883664,0.21764231713830423,0.2014277007829137,0.21585061519146176,0.2648653104230661,0.3431260154287249,0.4259267455856482,0.49467103727915995,0.5360171862263586,0.5375545821776966,0.5038117126758954,0.4531632793060832,0.3986654170553474,0.3427111843961504,0.2785074670717117,0.18873188828535142,0.011934345245753675,-0.3121204169679312,-0.669816661113026,-0.8496637862643016,-0.8950942723028896,-0.8911016216634896,-0.9218771445654735,-0.7925975758983734,-0.33987806955447364,-0.21463485612324176,-0.20503964490464882,-0.2426826745550554,-0.3695416141698537,-0.5112673648075723,-0.08175164412357225,0.011999694061719916,0.054903872294347664,0.08632775113216183,0.11796381006632219,0.152342142757247,0.16688945750390194,0.1329456735959816,0.07205127847658767,-0.0021678540506140046,-0.08841706340618992,-0.1719084796375797,-0.19748908619898847,-0.15914779351161518,-0.12512705956985673,-0.1246442473353967,-0.15822148438295963,-0.2160415578087148,-0.28086508036219643,-0.3268458407389398,-0.3185814532270478,-0.23497433573164972,-0.09788755900091371,0.0608847550324254,0.2279179471381921,0.39497272812719175,0.53495139581491,0.6222477750596849,0.6590934891888548,0.6530237418414726,0.6133904318207053,0.5473327380736434,0.4607515210719478,0.3548739714344279,0.231141135283783,0.09740960123611205,-0.03684522345193366,-0.15407049007331255,-0.2377880727537427,-0.276644005598582,-0.2706839361898088,-0.21743872122711777,-0.11345165273279942,0.017075681378485887,0.11253112947413027,0.14182892639900854,0.11119180312827451,0.04723485825457303,-0.026398376726226972,-0.08592884537774902,-0.10802874674880378,-0.08336691219309676,-0.002329613442822228,0.13157210554213397,0.27834054543683456,0.3913551468528691,0.45051875663620755,0.4509666573841844,0.39963262293378454,0.3049547183263234,0.18479758702897903,0.067742255458291,-0.013521660434757101,-0.04644332696922394,-0.0269123796520542,0.039988430058327015,0.11618174547950724,0.15373060696610513,0.1290446361752718,0.03206412978697196,-0.20397324035672126,-0.551638985520516,-0.7495787509520809,-0.8133902996732812,-0.8369374841705545,-0.8448188419894761,-0.8365855436178622,-0.8115412738622279,-0.7726582996709438,-0.7026307438638877,-0.5812267347878295,-0.41999130185769173,-0.2699683172040686,-0.16477280177049444,-0.11057223002567491,-0.09445792597449741,-0.09618232521201181,-0.08739749540752387,-0.06367956581213251,-0.04000883888603664,-0.038734279183819394,-0.07837233648214235,-0.17158374759468584,-0.3051258983669973,-0.4345988064727135,-0.5229473167982185,-0.564556861150141,-0.5651672632305201,-0.539322915642574,-0.5062915612281268,-0.48143541984684496,-0.46899461457027597,-0.4702588201719634,-0.4751646764780155,-0.43692284774656176,-0.3435364435019504,-0.26070815820539117,-0.20044543442459592,-0.13551474224064,-0.022810263544958374,0.18501489688758133,0.4543845797828491,0.6211956890576088,0.6557158681725742,0.6421240157190348,0.6587016590515857,0.570411781748366,0.13186645088771257,-0.04208745276284151,-0.08508204781816858,-0.060708157281577343,0.052766268753943836,0.2837281765385075,0.5345834672965226,0.6675346267941933,0.7223252715789534,0.7521013578025755,0.7753407506259821,0.8003133829140058,0.8262138351888874,0.8478853762778126,0.857443781623359,0.8487499513671426,0.8141782140089842,0.7425113803736171,0.6264880993319226,0.47668885807978567,0.3261234457845136,0.20207257431993023,0.1060155612962642,0.024202850917688267,-0.06537077530569019,-0.16681051928762497,-0.2641255162404908,-0.3433095423256132,-0.4079658009639197,-0.4762649912573533,-0.5431345607406318,-0.603326350686912,-0.648993628826365,-0.6558983945342195,-0.5757658418565874,-0.45430692556217844,-0.3559324486390017,-0.2922389197586042,-0.24433974249236304,-0.21334134135078334,-0.20453283808791747,-0.2296115450374164,-0.3312746194546406,-0.46874614069125464,-0.2346408439854926,-0.1352989756590003,-0.10173368303045502,-0.09328505409956585,-0.09960383012978558,-0.11931884965141831,-0.1540687252498069,-0.21345403789073966,-0.3048340284753068,-0.4033363443072142,-0.4619236717573752,-0.4843419988413842,-0.49079371913184283,-0.484170163961081,-0.4534031367549713,-0.39573821907253676,-0.3190158774959159,-0.2515806841974422,-0.220636871140446,-0.2211914448911872,-0.2318322988147077,-0.23521103204472824,-0.2217381502244517,-0.17669747101718608,-0.09787883718994546,-0.010743740301682347,0.05599687721475372,0.10226358122444762,0.12995695045582584,0.135377947934699,0.11350958566472097,0.07014578977898268,0.02159987247946064,-0.023177671357388376,-0.059981654972140336,-0.08840631116384606,0.0966081364950597,0.12170971578521675,0.14155656026906505,0.16451672252914826,0.1978853988127942,0.2522766804889533,0.3501423753830519,0.4966513023040208,0.5439086616602669,0.457798039158474,0.39843095622867625,0.37484160702756725,0.35662042086299417,0.3118044200429373,0.24425759794382954,0.17336706916335165,0.10898558279370585,0.05524813915916841,0.0142765347259415,-0.015129150273179383,-0.03544186306503681,-0.04422437945467851,-0.03866384085351345,-0.01859975521119715,0.004828876467030263,0.022215720518280586,0.04856539650732139,0.09312190755729964,0.08596110623129091,0.08915379463626853,0.09510139293897023,0.10175184236647432,0.11086266921164721,0.1270140039145164,0.15666935103365728,0.20915740201128113,0.29675826879813755,0.4280012234940089,0.5591259017716346,0.5039754700757045,-0.007689730275925138,-0.28605068679035994,-0.3809767337610247,-0.4324834579385243,-0.487890794708172,-0.5493341220102396,-0.5988203803996963,-0.6151318414918782,-0.5876566627972853,-0.510848402725952,-0.39498567595055667,-0.264051325612632,-0.14496013572434535,-0.052909187670759264,0.011156748127961719,0.046704886509450864,0.05178168229177621,0.021589801021060437,-0.052254923198263706,-0.17346647610264598,-0.32257900180493443,-0.45356550400925494,-0.5358188691009915,-0.5676893330844204,-0.5560830925789675,-0.5026846383971073,-0.4128103472467919,-0.30718818180615004,-0.21938915728853003,-0.17835272998663293,-0.18272112059926274,-0.22414297045160883,-0.29899431639696344,-0.40275605170461243,-0.522901736527255,-0.6185098253144589,-0.6594130114803564,-0.6629074280941146,-0.6508840473142783,-0.6256773561000618,-0.5464463350482273,-0.21463194131106783,0.28205740072369406,0.4691706886470745,0.5421107607646537,0.5834207842160204,0.6088140999383865,0.6259397655640185,0.6394260189257748,0.6516099588100962,0.6715154439756555,0.7071434538264477,0.7586015482343016,0.8115866244069425,0.8509108323825195,0.8772009082658806,0.8940172432143164,0.901258150476561,0.8996708232507924,0.8874132411792258,0.8586491686060846,0.8034858697112387,0.704990467839391,0.5528530935423503,0.3653496323576754,0.1938205347457782,0.07408534811506898,-0.0005293996183933878,-0.05775805894108827,-0.125237199083119,-0.20196654480641424,-0.2707196474005035,-0.32126536545981854,-0.36069957120407464,-0.4049676887499568,-0.4616827810129237,-0.5304603517493061,-0.591171200465672,-0.6353392875813186,-0.6759410519486488,-0.7156077785935486,-0.7384198426967084,-0.7428502122780971,-0.7335808495629327,-0.722170190292131,-0.7129411303410993,-0.7060057881416718,-0.6918872825006915,-0.6652486767950728,-0.6250634606417442,-0.5758587563996178,-0.5211484936258977,-0.45921860876081516,-0.3869385803595514,-0.30931141257326183,-0.24081169400470778,-0.1877393792773699,-0.15862879237408026,-0.14898120312992036,-0.1460356327934313,-0.13081069084373453,-0.08787272085363788,-0.017940009646075117,0.0543590878720721,0.09248554030450706,0.09087118844615194,0.0516079384259876,-0.03468818801658889,-0.13414595188392628,-0.2051952288634399,-0.2101925539208247,-0.12130583308058647,0.012018549510979666,0.10703975930896525,0.14407980327847214,0.15436067246287308,0.1623616494350507,0.16271387153042283,0.13434003640037612,0.07025379697996706,-0.007568608796630093,-0.07261246123369369,-0.12019403971516897,-0.15396493952253748,-0.14390553896504518,0.05562743228745441,0.17328567952609567,0.23752852710708086,0.292344393316775,0.3299936433464408,0.3176138084283929,0.2424864723228456,0.12850812888024077,0.0020172674902351113,-0.13452656791668705,-0.3139130410112293,-0.514605736242334,-0.3748347106277311,-0.22072572811359983,-0.1362877365866922,-0.08391661911294565,-0.04488255568209524,-0.0032213591838382146,0.06706978836169027,0.18720422018339916,0.3040669490782844,0.33256198969431555,0.29129776752248243,0.21416644837374094,0.10342660899714655,-0.056603144504771975,-0.22595392558712513,-0.27646431514570613,-0.21986632383974977,-0.1262495473708469,-0.032641641135514314,0.03741372256298406,0.06249895056670701,0.02056027320443491,-0.05887587883404734,-0.11741545519898887,-0.10242160073246563,0.0016327770250927417,0.12322012666590083,0.1873037942023663,0.2000992254201637,0.17688645881947784,0.12495456366279505,0.05156689191854124,-0.02694049107274361,-0.0902829824223127,-0.11526325854514213,-0.09629211795435241,-0.051121773892610745,0.0022562702897407673,0.045078805330292286,0.06544464280430536,0.06581469625734739,0.05918613612887075,0.061283464074419876,0.07933337563199286,0.10033621645639826,0.11954206728975658,0.13316501238325268,0.1399327103474839,0.13075012862720944,0.09886267262182287,0.034995178688336404,-0.053720179302005615,-0.12490801109615539,-0.13946522489720664,-0.08832385116081375,0.008440644224760242,0.10714871685231547,0.1675133237782585,0.1799407259082813,0.15256696365946712,0.09864945513583824,0.03611493508113154,-0.01679427528599624,-0.04795334565118884,-0.018236323437254873,0.1206615383664096,0.20286355414664883,0.25126980303331936,0.3002617513559717,0.35600081789839133,0.4123275705357711,0.44670717439182267,0.4437850405876954,0.43317038635054295,0.44472765786725255,0.47906263271310484,0.512302570349243,0.5135831719483701,0.46316245363856723,0.344648098131563,0.14914684244096635,-0.08541135906485009,-0.282148062566357,-0.3995554704236244,-0.4535209785686749,-0.4664699899252612,-0.4587995479005369,-0.4424165877872807,-0.4236111074168288,-0.4058180447446019,-0.39068761287397824,-0.3870937942438131,-0.3974666278746262,-0.42250638059246426,-0.4611155672712306,-0.5023968946127152,-0.5239516086238439,-0.5087746078913986,-0.43706665323034827,-0.3278042140174825,-0.20010356208178107,-0.041162828151464416,0.20305994191199703,0.4809675141199462,0.6076551801579284,0.5437492776894404,0.39561792896094494,0.20406781996235226,-0.031608623502333254,-0.24409803026797774,-0.2869864978229706,-0.21223245844937857,-0.05982691394904327,0.17018845604485455,0.46088701264097526,0.7068854527690921,0.832787567345892,0.8747239970816162,0.8752653559202669,0.8455571989126034,0.7791112751963655,0.651742069228687,0.4271113847677929,0.1259231578700791,-0.14558316919482392,-0.3330647468411955,-0.44731234933977476,-0.45908015113062295,-0.36883594362770006,-0.2703794258091683,-0.21102195225744066,-0.1871410973920995,-0.1919213883901505,-0.23262239772035773,-0.34025404629825495,-0.5798987822567986,-0.8728156587265287,-0.8109029897975408,-0.6447034854881697,-0.5129346025218889,-0.409992842487012,-0.3269727428419092,-0.2662143987767805,-0.23206206885069436,-0.2247706083555317,-0.24145821623860123,-0.2686738329659877,-0.2866113450276175,-0.27946047604565144,-0.23398649863996202,-0.16811710623025553,-0.10420029031248149,-0.05963740104038632,-0.04901082782783364,-0.0714068540279321,-0.0967339959959182,-0.08813238610634783,-0.022943348534634277,0.06514420273136651,0.14064497203004972,0.1495112360745969,0.052277741843434505,-0.03332144046567417,-0.0934015597687792,-0.1540944292225001,-0.19665373583416437,-0.06719267215037629,0.010807470126320573,0.05874195319815351,0.1279163715857096,0.2852409295602034,0.04888178258763546,-0.02613170650541089,-0.07680807400966304,-0.144114531116606,-0.3172870696694186,-0.29211105286992556,-0.08017958483074697,-0.014452922485980433,0.018662509309279998,0.038085613607912655,0.04607362214850409,0.03595228203815173,-0.03181578823834504,-0.4845132069033079,-0.28944496331877356,-0.21459777062348487,-0.1740027912045205,-0.15269328087991885,-0.15627279993492216,-0.16712528810770205,-0.028423438529620773,0.04250222429284429,0.08205922593965674,0.1207237502564688,0.1701616027220895,0.23497565131474604,0.30943368036217944,0.38129518819977465,0.4340708460497845,0.4646630942461341,0.46902945668597434,0.4234468074246152,0.29504319793233913,0.07433651900990605,-0.15420178907284673,-0.2931391493071458,-0.33430839131515705,-0.3126972911774098,-0.2540095304695058,-0.18037554784189813,-0.11476471912112302,-0.07188427274174854,-0.05093047183090394,-0.044486298338561645,-0.03977513775395418,-0.022858254997025394,0.007063692591078377,0.0482493838427375,0.0886714714197266,0.12126568013916281,0.1461255443523214,0.1642657575048277,0.1744634650631607,0.16812294988792326,0.15112469472515527,0.13164798776812914,0.11482029488003112,0.10224338391848721,0.10125940778832845,0.13420564820587605,0.23264077145921644,0.4022965244200276,0.4443051909846114,0.42818269437670786,0.4380372296192171,0.47061033268641284,0.5150367203882248,0.5505062256551905,0.5515035853243379,0.5157418348984176,0.4644200266175853,0.4200271753386414,0.38939295605730295,0.3649477364303204,0.32422595757220635,0.2549632414869529,0.17323200308986547,0.10413005735620531,0.0700782335305939,0.09272734539846662,0.17224659950383245,0.2855845060467775,0.4037449847254152,0.5053912793794251,0.5891057402894874,0.6615492408843813,0.7089714701458053,0.715302388505511,0.6782020905390773,0.5847358744967938,0.38540028820147565,0.06129983406349155,-0.22857666729073564,-0.4005004023954431,-0.5144843231986448,-0.5887431647311798,-0.6322125513179843,-0.6457403925885742,-0.6276084430906842,-0.5754388245252688,-0.496325637897188,-0.4149556065906523,-0.35757657440774443,-0.33965566457932633,-0.36407688370223384,-0.4214132927618619,-0.5154512758595791,-0.6592208274769162,-0.7652762041665689,-0.5816372865200542,-0.3554327002230151,-0.22238493256602815,-0.15224926387027665,-0.12334681616855442,-0.12562801383574612,-0.15338054377442553,-0.2061635955978409,-0.24076191463814423,-0.19872204078613478,-0.12771637297312632,-0.07029462108743886,-0.029769435598894858,-0.008713500663392718,-0.005029248033394284,-0.015619933057670312,-0.04336935788104164,-0.08839279215578255,-0.15735512509427024,-0.2491621891464229,-0.349684259975347,-0.4281951161549277,-0.4512083578523063,-0.3876259349973957,-0.21963668387474583,0.015075248844825535,0.2453235005010136,0.42358411397263684,0.547078472066983,0.6274711235036592,0.6758106419883916,0.6998613928784503,0.6997736062139087,0.6807070579444088,0.6563338029947116,0.6360891729304102,0.6221770921477642,0.6130621589776691,0.6054984934002934,0.5822032764102354,0.48735860710925705,0.31875858562379933,0.19115344681925303,0.13345049174568663,0.12201643759225335,0.12978705760201445,0.14122343086643413,0.16308047283442617,0.21755580386981965,0.27175077362340194,0.23557296636355207,0.2137769287649799,0.22128823185792265,0.24845120268230192,0.287852815224087,0.32972017297884476,0.35731485606244257,0.3541970373853188,0.3466064414070701,0.3976599643807344,0.3119195193711771,0.058946676597288084,-0.020040654162647283,-0.0587869096261588,-0.09053145761467192,-0.13180451007551033,-0.22837272701907926,-0.6107710396663413,-0.13714168042637429,-0.052799939909182636,-0.0266992035088851,-0.019591791958826345,-0.025203729428412976,-0.048078735070202196,-0.10172194108649484,-0.1986989834954062,-0.2890058410107055,-0.31956806698954116,-0.3369048489856848,-0.3580951434767675,-0.37175239864439297,-0.36328846457725855,-0.3226239134151467,-0.2536970096229411,-0.17815776554758367,-0.1185587703413928,-0.0833427729644247,-0.06811498604498628,-0.06805849197026673,-0.07235031322954838,-0.07218319186793312,-0.05049845295691326,0.024672929240052405,0.20142758635277938,0.3514118661523839,0.4539019724062866,0.5781984925173369,0.7621026084351475,0.9224862053244632,0.8258663318712158,0.6303487997835652,0.5046840863930386,0.4347195013823025,0.39442560813980304,0.33407884117863357,0.17272367875526434,-0.007510245652038427,-0.16748515094920788,-0.3143007809741916,-0.42080072644362304,-0.4390395733852009,-0.36204303885997996,-0.23597364880791663,-0.11310114225128581,-0.010127652468772052,0.08051057288623387,0.16455407143299963,0.22649980938048658,0.24445063469345255,0.23621856756529092,0.22717152732587723,0.23302818734430017,0.25787900949900594,0.29362797310571104,0.3114545725102072,0.2803849287257336,0.21245367524958805,0.1330352647570539,0.04860013783690989,-0.07426688728663139,-0.22484978869913672,-0.29185750776609226,-0.2289320788483335,-0.12771299143114379,-0.04042230330335306,0.020174306208720804,0.05660591821374533,0.056938586379926735,-0.013517022771334037,-0.19183453486171528,-0.43212968214247655,-0.5800556303891273,-0.5963157055916505,-0.5428611776663281,-0.4671865055443842,-0.40974972698520173,-0.3961404109193581,-0.4368040307873661,-0.5017107846321042,-0.5588976080489961,-0.5946425428464639,-0.6107127428134128,-0.6109269361345614,-0.6047951861427439,-0.598194845501004,-0.5982502341269456,-0.6082882291051126,-0.6179530253315118,-0.6052359250692797,-0.5340595985783732,-0.3354230359177068,0.08521346517026497,0.539969383263051,0.7645647940922482,0.8449028216694046,0.8670190829018836,0.8585577230174931,0.8209587951254326,0.7404869727842207,0.5955355252960757,0.40747110315804397,0.2744220008860284,0.26984868514094534,0.38125433407200365,0.5318057886895079,0.6465551570498134,0.7217891562987881,0.7713320824451343,0.774320156583019,0.7290542321841708,0.6561334046550164,0.5886590886890177,0.5422246533704606,0.5107676369639862,0.48679844321096766,0.4722892226631097,0.47403681255027624,0.5063617536218133,0.5722915100384759,0.6439122848499176,0.6727770625705999,0.6719774453795959,0.6799760944535763,0.6971751790341668,0.7062770894859659,0.6813068304063252,0.5825333311471739,0.3631269803792479,0.0693152194651857,-0.1529424732751283,-0.24140578198174076,-0.225198699906528,-0.1409716435209117,-0.034070072697826706,0.043919954746949944,0.056410914712843874,-0.0031267158043509426,-0.12995397456425767,-0.28573559788587805,-0.4107531095638938,-0.46770099562326606,-0.4769729544480795,-0.4735054526416856,-0.4737863795490987,-0.5020815790817509,-0.588791440718865,-0.7622415294292472,-0.8287864301923294,-0.5460513921661004,-0.34972533219266677,-0.2653029965801395,-0.24807383883675763,-0.2924150211906838,-0.43618954742004834,-0.6291730907150485,-0.5140422859178674,-0.38998036156221655,-0.3426880931529667,-0.33698438545283654,-0.3642930318267708,-0.43694024053583297,-0.5426921705648954,-0.44072868859371617,-0.23619341555638151,-0.12550709260082657,-0.06966234232152081,-0.04563475495174983,-0.04930116802382637,-0.08286702256579119,-0.14874334666952116,-0.23590708814669858,-0.30400081722545,-0.3058987256228369,-0.25710536502436593,-0.20409306780512673,-0.18995269180082122,-0.21727131392062768,-0.26153404389272866,-0.2946544330499894,-0.30100360971541273,-0.26946979430839607,-0.1959853515201811,-0.08698852769961608,0.05393422573258515,0.23211488591390939,0.4573582216835119,0.6807841348848911,0.8300679762221002,0.8990447857817886,0.9092744812527764,0.8790915298685522,0.8223558726446409,0.7677353470987597,0.7441817314250538,0.7616314720473528,0.7889750715724397,0.7773840549884,0.7181630457907637,0.6223550294397521,0.48586085645501875,0.3459781611273484,0.2409913385150888,0.16957764660593488,0.1143204115963584,0.06716353189866989,0.029723977175255125,0.0044674402775453596,0.016447942463498018,0.07549927062086034,0.08689431432032388,0.09763804433043867,0.10514743025442365,0.10710091850182497,0.09959544641433327,0.07657294503225,0.032077391299000196,-0.03256524099444563,-0.10074774768589209,-0.13664104365255283,-0.12310420195866849,-0.07794598223068591,-0.0454307313968652,-0.04637295887245282,-0.08190370963977854,-0.13523549874484578,-0.18655567429153647,-0.2442214097450391,-0.3457384928558259,-0.5172305043883879,-0.6758313980040818,-0.6226958891167661,-0.5013479914906676,-0.41686887779635134,-0.37303023228250787,-0.3592908707520185,-0.3648830451538461,-0.38567545546986204,-0.4403283376201834,-0.556371633064603,-0.7185505077270439,-0.47729745580628186,-0.15300777885508163,-0.006235597266219748,0.05904405182468093,0.08082093769971144,0.08059518029156144,0.0788034200982318,0.09214692874428802,0.10702560699583805,0.10371052357478658,0.11139292423878022,0.1295931152537999,0.15693967439597914,0.20184164294251586,0.27265220832412135,0.25395039820770265,0.11589414799511377,0.042555714795882216,0.014945324846474838,0.016677006089478356,0.034259591792527966,0.03749879477522078,-0.017692822960506407,-0.13612864366600827,-0.28169215531270514,-0.3984534389455649,-0.4558703577040055,-0.45193297745652516,-0.3847728981945634,-0.2553541410382086,-0.08035716983927711,0.10299837742525163,0.256752825079775,0.3674288046188075,0.4431381108280999,0.48437290139003336,0.48256309498736244,0.4322808483455947,0.34238009738428965,0.24205486710439378,0.16983396374256837,0.15125437990156299,0.18634333075626988,0.24796813101600737,0.30247663715048895,0.3321310716690603,0.3364586768366701,0.3260398664184691,0.320883011834264,0.32937212938339305,0.35488784422273834,0.38500537153392994,0.3798484546668308,0.29878489361972554,0.1425300463059915,-0.02776713703551251,-0.15504268429268817,-0.26007652242961016,-0.3902138105685659,-0.5101885876651723,-0.23221143989958787,-0.034961830381283435,0.05801988449042365,0.11494321484969033,0.15923547919320163,0.20129911086227945,0.2394953324082993,0.23414617479083394,0.09747997173119112,-0.2883455274660464,-0.7297420043039663,-0.7098088195935022,-0.6493168203511439,-0.6159115844184386,-0.5980475712503924,-0.5762733719994835,-0.5463605048259057,-0.5001439043509136,-0.4430908825508077,-0.3838356032507324,-0.326636698663828,-0.26642996456361623,-0.20278628565082749,-0.1378527721377555,-0.07963099194097949,-0.03742898914082418,-0.02735357841649203,-0.0655474781322535,-0.14897493349321697,-0.2610493530946186,-0.35649494701800616,-0.4082041781476284,-0.40886135858295336,-0.3707327811769181,-0.30701122985151996,-0.23078593504516035,-0.1369127593542452,-0.012528455276518727,0.14974560868370052,0.34165784616558503,0.5287799005840866,0.6440862541913959,0.6862369614852128,0.690384901248923,0.6834982254434334,0.6826062944782594,0.700226347312188,0.7526942174144672,0.8572875246545556,0.9814134905849415,0.9221642208495475,0.6754723210222853,0.4817651904740676,0.3662292023965353,0.3047630529737957,0.2894832950760385,0.30018311561913674,0.24605800838075387,0.08884357391063302,-0.08000740953017507,-0.2412810071343162,-0.3737366961144363,-0.45645709442964166,-0.5086641833159067,-0.5578936205134328,-0.6048254838261777,-0.6443191351114338,-0.6694542995299178,-0.6571790464966242,-0.534024093666307,-0.27398195370294964,-0.04723400864837313,0.06441922851503781,0.09073110825044772,0.06104801022380392,0.010600390294924716,-0.01706723714454446,0.01333456793891953,0.04366942543295849,0.03466170262433295,0.0032250711646570093,-0.03736884884431166,-0.0959413738734794,-0.252810870804621,-0.19472245245772477,-0.06248389575333429,-0.017783973234369317,0.005663107077974247,0.01945132633245038,0.024327092171271786,0.013514933417085049,-0.031442326575931705,-0.14323116068190944,-0.3338291252758208,-0.5290609262773875,-0.668802510656842,-0.7564867208244311,-0.8030076384486965,-0.8158124087464291,-0.797278659112874,-0.741814924461882,-0.6455452403343932,-0.5149895127139666,-0.3840624381270878,-0.28639941056365553,-0.22217640239365757,-0.17976558883638713,-0.14714205480077172,-0.12230739657673904,-0.09478877671111367,-0.06257228839041178,-0.025243666653562986,0.015454732843791404,0.05748387000701312,0.10417799766759094,0.16125034262460375,0.23440251976743828,0.3242981387837572,0.4187360282441265,0.5101402420692184,0.5936993847298285,0.6653917668341516,0.7231194737491616,0.7677175115628552,0.794885138228096,0.7993765686155442,0.7790722603732382,0.7501755733762444,0.7360395235526168,0.7404080599259573,0.731615167831979,0.6447028490474311,0.33777791576574573,-0.15270714856465759,-0.4013713653372967,-0.42674407024249206,-0.33322661590603236,-0.1495695261635814,0.06653304311186532,0.2400531644792031,0.3382355164426028,0.38119203147309016,0.3999942170689998,0.41278957883768175,0.43308998838054885,0.46353775910627654,0.49917550549782286,0.5312091971492044,0.5397961267437524,0.505937706758731,0.42541356818407494,0.3124862615205736,0.18938287241905366,0.06978663350920056,-0.045317209445318175,-0.16113757520881322,-0.2773704323326825,-0.3651377616753315,-0.39253999744243845,-0.3848507004731798,-0.37892945898761016,-0.39052263159147343,-0.4342751350705787,-0.5221794417998791,-0.6531684508855315,-0.7899395233201634,-0.8769923540024113,-0.912094136272808,-0.9115873112179791,-0.8659977284640427,-0.7599737861837662,-0.6069693388061449,-0.45855256005013034,-0.35400441278240224,-0.3014966804173717,-0.31005222012653444,-0.3722141840926796,-0.4153804653706925,-0.3263673119168515,-0.18903576682746429,-0.07044974012953473,0.023540495843671346,0.10185683226667709,0.17395528702073354,0.24261694934928754,0.30114699070642553,0.33691904108112714,0.33764145520903777,0.30709888535514845,0.26009646476978765,0.2167508363263706,0.18215829709164796,0.15412408725591628,0.13665733882697537,0.1288685490820588,0.1288588734211134,0.11598580634050662,0.09384679946161813,0.07478802063311393,0.06762646998725055,0.08502863667366303,0.1870102640167317,0.3072912578132749,0.20114655044917557,0.17070623888450914,0.16356912110361177,0.16912108788503755,0.19384286444659268,0.2509675185766198,0.3575922885242318,0.4201864143073418,0.38866729486858154,0.4185407351029529,0.4643427113386298,0.48595036848064566,0.48047463776794425,0.4577713807673524,0.42687030828223504,0.39835446015795595,0.37262343836622847,0.345339143673445,0.31240448356899475,0.2643882224115858,0.1845179331430626,0.042789334968063884,-0.15725660872125338,-0.3486744713004937,-0.45712448660815225,-0.4695816806893124,-0.4058194870151976,-0.2891790803946145,-0.15882172951358933,-0.064968186149067,-0.029656927223461763,-0.03705277237949473,-0.0568557515490378,-0.06588034921484971,-0.05439992727516311,-0.028109925011226552,-0.0032534333251062427,0.005006838989680423,0.003994037810383991,0.05650398420022078,0.07791999033177792,0.08834357352471037,0.1047136795468837,0.12614931782877178,0.15229504329802201,0.1622492688692029,-0.1688027986646743,-0.4362239438769539,-0.5858241178622761,-0.20863881286015848,-0.08255060890195601,-0.02951895915857635,-0.005672931456410195,-0.0007814283318288053,-0.02446785902012276,-0.11437689908009785,-0.3356083491053864,-0.4382773517924031,-0.41051028088093605,-0.3805265987394407,-0.3473784476126714,-0.29908247205969996,-0.2089358432625629,-0.09972291149972166,-0.019377613223024576,0.029299182260932158,0.050869049739473246,0.03118468928475379,-0.01570934318048561,-0.049117344151302235,-0.07415329232351799,-0.10657217792991068,-0.1575469213794276,-0.24316019520230817,-0.21694883803271656,-0.05937793002900542,0.01673237303799326,0.0642898743766081,0.10420127722458382,0.1465496720965773,0.20411815448454085,0.27655694538496867,0.3252812463806199,0.3313331048418893,0.31103046132421486,0.2778713838865292,0.24158700406385444,0.20600492442331256,0.17034033618714814,0.13022471283939724,0.09054295690358738,0.053860980330637034,0.031005018698657055,0.034208002719621565,0.07268833589062343,0.13046206318379067,0.17500684383115248,0.18500675180931608,0.16076465317743424,0.10015418329402823,0.007093410423516084,-0.0935222537300668,-0.16050238070651657,-0.16852492138230168,-0.12129301715595818,-0.032263503172918664,0.0809655804661033,0.18645327984047833,0.2514579877752015,0.2684158249098735,0.23999530911377018,0.17890431531762585,0.09959401188931695,0.024334980969561527,-0.028369947493061463,-0.04505467534486789,-0.020437725985574,0.029159202449148342,0.09954498096846534,0.18417783874610213,0.2851885770449219,0.4004438622935063,0.5161670462542144,0.6147427511505061,0.6909873759795984,0.7558985121225913,0.8141058116197943,0.8594435193232571,0.8851957403457575,0.8831290421080256,0.8311076387689694,0.6825738425378438,0.37170545037681113,-0.052789124893032974,-0.3989443064179673,-0.5912625760746073,-0.6694228815580051,-0.6871022559648409,-0.674941908079986,-0.6550034175037506,-0.640950503888709,-0.6355684893444514,-0.6359025411213073,-0.6311348720213924,-0.6208981837380559,-0.6045763107773415,-0.5770282118538698,-0.5440951848624491,-0.5035448710674164,-0.45049874011351443,-0.392603198054119,-0.3500328145977913,-0.3388439972183184,-0.3595870135079978,-0.3969421904240788,-0.4299018598318555,-0.42840083372476506,-0.3451907596608219,-0.2311075314643428,-0.15140888893963142,-0.10617197660395045,-0.07947669690427843,-0.06857602395824142,-0.08816285648764673,-0.1778511020159542,-0.35488730080283704,-0.48748853598056485,-0.4753732134721057,-0.293125890014566,0.041523609836415745,0.31796720564800346,0.4501639310058165,0.49981952101405974,0.5071635868430365,0.5026973434348507,0.49892500685208563,0.49597169877934144,0.49803169648569173,0.5068051611926132,0.5255212412716066,0.5490595756757746,0.5675414774741108,0.5720506703749692,0.5540800999391811,0.5050018510687543,0.4312009737925299,0.347132452270414,0.25895931560582525,0.16605173424471956,0.07186155046151246,0.0034168022038023713,0.022259076053511104,0.11869781118032297,0.23893721840401558,0.35385881841231714,0.44310069180384665,0.4954861266889747,0.4918156497796504,0.4284844104429949,0.3318909623400814,0.24937770956344663,0.24073780906083553,0.3115841825864097,0.407586355673242,0.44362715975848344,0.432439861712173,0.39009146539977646,0.3153153932932493,0.21380512036052754,0.09937193407465036,-0.022902963752586367,-0.1330815863250676,-0.22290904173991677,-0.2864199885943857,-0.3276386022506471,-0.3529807833510012,-0.3689922865385298,-0.3756748401812651,-0.39135491716201287,-0.43339249547655506,-0.4987085946246077,-0.5655378351897355,-0.6137863464963279,-0.6317003056531302,-0.6226942465061037,-0.5981842910012188,-0.5679565885527494,-0.5360422827781273,-0.5062240018539932,-0.476055298614176,-0.4448400312341043,-0.42333812172097984,-0.4190948121503119,-0.43885053389393647,-0.4511709946514251,-0.3967155165217721,-0.19762754568578048,0.19478252317343847,0.576040959232765,0.7682756131125075,0.8470727563248909,0.8764402229277374,0.88315415162779,0.883113927212165,0.8914507970958667,0.9171918749676508,0.9561044197996882,0.9813358664019078,0.9859108436992249,0.976390252428397,0.9191782093815632,0.7448598618516415,0.5177601518945006,0.3483556164055063,0.24931351682105127,0.17923977158765364,0.023425964170066923,-0.0070642617344641055,-0.027170704159945616,-0.09863680859819654,-0.30186760095427007,-0.6444266282772283,-0.7580713150683756,-0.7438950536019914,-0.7247531697443429,-0.6953017586051599,-0.6414017652294135,-0.5679425137336781,-0.49391298667061584,-0.4369126456147702,-0.40192804764154283,-0.38594248107820256,-0.37896053682361214,-0.38128690269016285,-0.39026729095239343,-0.39147686701182277,-0.37894680232977024,-0.35752275568196024,-0.3339191465248268,-0.3017028095283558,-0.23247088701033908,-0.11153386717895956,0.008593238578085015,0.09376038884122767,0.15115907153005007,0.19421625790749944,0.22006358472147747,0.21275816272392117,0.1346214958933612,-0.03139525997209038,-0.13080038548634812,-0.18849477906415496,-0.24449098799359822,-0.3193259250361502,-0.4211986049424981,-0.5454622222340921,-0.6070168118088621,-0.5374054395424898,-0.4377909697102937,-0.36494294220626694,-0.31341725695243267,-0.2693184488560516,-0.22704447464170452,-0.18218228446323248,-0.1371763536550686,-0.09479577558252236,-0.05360071477800487,-0.0123404111437089,0.011544102699251567,0.01039194824761635,0.005129218308197583,0.001904734977207821,-0.0050075869246409095,-0.01757025143187675,-0.034543568714057164,-0.05545803243639288,-0.08588295282217846,-0.15436374236402026,-0.7872784702536462,-0.05631366990371903,0.014578872904405292,0.04747490778620985,0.07082478344769334,0.09179112023817367,0.11529551758600705,0.1456633001333067,0.18936345575799482,0.2617505377415122,0.38744041023249903,0.5067449292029294,0.4767744860420543,0.42632518802414066,0.40734665465707887,0.39639975045781056,0.38724390247306306,0.37851248483021765,0.37970926750065587,0.39427720042541,0.42200552947734815,0.4510140005889812,0.4688461278992823,0.47202614894568473,0.46551502737252143,0.4498364927520539,0.42961470506251503,0.407680501201171,0.3861741831128428,0.36229561398143395,0.3365949487453772,0.30202392598007577,0.26329945771068164,0.22317138844252515,0.18349929803579731,0.15348621423557102,0.14589014323094784,0.15332448793838177,0.15611219352479827,0.14615493824834985,0.121624682270764,0.09212001461378709,0.0415639768364086,-0.04954288502105859,-0.1697478457147273,-0.2866286085815354,-0.38746039609399874,-0.449768203391035,-0.4843279506467508,-0.510276918868691,-0.5260216134328481,-0.5118361848008779,-0.4858917494784201,-0.4604666639978064,-0.4394370027436123,-0.423878232106095,-0.4153227944702057,-0.4217232259815269,-0.4309253553258421,-0.4271035608565185,-0.4008478936012997,-0.3584349331402808,-0.3087260401444892,-0.26870822415354656,-0.24677318088891712,-0.2292372908094518,-0.20341474644827462,-0.16842306663957457,-0.1311130595313539,-0.1117132937415567,-0.12097954882887688,-0.15629939838101278,-0.19687682349646318,-0.216212859678255,-0.1966476951717922,-0.13399584499199405,-0.040217398792479035,0.03748508306002846,0.05513596570853829,0.002830676998245446,-0.10028196321475902,-0.21723379339837312,-0.3041052464967058,-0.33115258802392744,-0.2138762815434174,0.24187697807801914,0.5532640510013215,0.4871444694694277,0.2998946588398446,0.18906538335802112,0.1661094440839834,0.2230093931053404,0.3474456210067671,0.4438593138104909,0.4106537091656146,0.2798226796941386,0.16246647985912355,0.09105169485920349,0.051705186385053226,0.03007487324145663,0.020413517740715436,0.02762483508529229,0.03690892213763595,0.02432584202529847,0.022932521983021883,0.023420666824568056,0.024621340929848624,0.02686256747824605,0.033806752292517124,0.04883190508636684,0.07333482123246825,0.09702813271038184,0.11044118475144064,0.11007773176410357,0.0857268542780401,0.02780797969450981,-0.04060579281534082,-0.07527678608791546,-0.09114436210348756,-0.11126039280592916,-0.1421534578645453,-0.18293640513151174,-0.24171496157749167,-0.3857414342059407,-0.4145800640387949,-0.023153207055725614,0.06614164886085938,0.11118012041224729,0.1404819345739282,0.15748021258078485,0.15233212636204074,0.10058418609411256,-0.05998811506401243,-0.29316067305070864,-0.42569992620599906,-0.4831490758873085,-0.5142690900380058,-0.5350621507134474,-0.5482776771574546,-0.5552351586647388,-0.5512348690060115,-0.5142910201020675,-0.4308659814373492,-0.30373170332683214,-0.1581593187439689,-0.0230846536970777,0.07475943868029117,0.13203603576694992,0.15583913971244137,0.16409230463284522,0.17196744721509077,0.19488475644551673,0.22073365878617676,0.22018344818038335,0.20276793470950763,0.1961903421167939,0.21317372734439388,0.26387982904223406,0.3408926977762051,0.4037560064445422,0.4021952956949208,0.3228988303541904,0.12456022124034426,-0.19666348809447975,-0.4559091546817445,-0.5635969179352417,-0.5874908826902059,-0.560710311213565,-0.491764597107276,-0.37786123267542127,-0.21914676912283348,-0.013979745799534616,0.2070302350527457,0.3864275228242011,0.5066340310296537,0.578789474796294,0.6155868292548123,0.6208980696653118,0.595758755681742,0.546447606849967,0.49751320956940753,0.4624824577564772,0.4520509882656127,0.47288475511400263,0.5214698167869829,0.5697086802319518,0.6067627277752143,0.6348558032467787,0.6472445012489103,0.632877274890915,0.5953202766550337,0.5505409291676016,0.5142225962424103,0.48039128326504693,0.4177321037605709,0.28593902725551995,0.07122722328761279,-0.17645319132353474,-0.3437395672753239,-0.34117882222622165,-0.17247417770173407,0.04404608461114366,0.1895738138403368,0.2497128068936246,0.25020828104774623,0.20970278358507813,0.14770810051028582,0.09418519783940113,0.06251170088950231,0.04111061449905736,0.018101960078567528,-0.012253809430370388,-0.04566618939200353,-0.0803615598424184,-0.13046417569792304,-0.19131258240474008,-0.22744372568839594,-0.26097095964827616,-0.2842638091677765,-0.2732722501952363,-0.23778291453899594,-0.19805530692555107,-0.17080752509292102,-0.166579334921251,-0.19315708057140268,-0.256874067651099,-0.352568629358428,-0.4545698957239695,-0.5381250641530896,-0.5911646210109899,-0.6123656432289097,-0.5985133305821445,-0.5581263401042713,-0.49862654934794454,-0.42282308969313,-0.3485037506780821,-0.2887472343745861,-0.23581780108321915,-0.17250582849392937,-0.11001121061991974,-0.08073425189913233,-0.08373102825021685,-0.116705194076468,-0.17916176279679838,-0.2513542391695656,-0.30330236841135966,-0.32025444661936786,-0.29696708197968935,-0.23284454578097424,-0.13729113365792753,-0.024782986344334595,0.09423893219130854,0.20361275589519304,0.2920471556446956,0.3549177314810081,0.4051377329619299,0.4530861318169216,0.4844015166189895,0.48285858902887985,0.45398981078988837,0.4101226431818184,0.37483704513953775,0.36436225694390545,0.37836952421944936,0.4047363116241977,0.4333289656112439,0.46583814220753417,0.501316211027794,0.5322385438449555,0.5534081587624903,0.5662324975681202,0.5745306469631952,0.5812523852474979,0.5853691698862573,0.5809368039575815,0.5670320109731335,0.5425987455313115,0.4972400159677976,0.4057574549600096,0.2250335621314555,-0.08909945879817466,-0.4326121064201419,-0.6459270315738496,-0.7433482484897748,-0.7805942510567655,-0.7871482087558118,-0.7714093395927978,-0.7404259645578708,-0.7049331609944807,-0.6768518510975524,-0.6556386745965567,-0.6335946251565368,-0.6092803089803391,-0.5794909936564451,-0.508685637942871,-0.3620009774502382,-0.2244629389999368,-0.15835485347062128,-0.16553210850633274,-0.22271852254764737,-0.27518469959511166,-0.2811253214957034,-0.2388456846773732,-0.17442261018162028,-0.1172879643893559,-0.075546381428588,-0.04921549698716118,-0.02549896877130048,-9.389514360178145e-05,0.028389922108789142,0.060432127361835376,0.09069676136504853,0.11485550264972666,0.13592093004468545,0.16284007728051278,0.20169104678106525,0.24542968016748162,0.273839768973729,0.2670074778988311,0.22236063986103252,0.18038521269838348,0.15721264270879418,0.12382780426468008,0.07075165567886785,0.019351253018686978,-0.018828538437399563,-0.045517550422428894,-0.06366878393963546,-0.06333769360988621,0.13555760980265774,0.14310037498304926,0.16632877953496072,0.19951573689114793,0.24976611136583307,0.329628272748977,0.4567052970314462,0.6252777462549872,0.7124743115325619,0.6306652992100498,0.49795457925574255,0.38809586431433274,0.3073926100377938,0.24794360829693673,0.20956938233497863,0.1901701550472538,0.17795662269768944,0.16434006920065017,0.15157394589101142,0.14443875112382956,0.1477093676026181,0.16273515652573992,0.17979504555896247,0.18663633658829515,0.17482203513651157,0.1414092807648927,0.09452167228405052,0.04485413707425261,-0.008142139857146721,-0.07844942393644436,-0.18727471950706642,-0.20757804842376332,-0.09683756557826033,-0.02203795813502858,0.027387882561168343,0.051728827291904866,0.03991468827456823,-0.021841234262897878,-0.12367745014042845,-0.1987745164242331,-0.2110461292026403,-0.18294836984480548,-0.14913315680354555,-0.12971502739238505,-0.12712059624135674,-0.14339468790442794,-0.17605193491896085,-0.22506551211988232,-0.2783770408507362,-0.31058880697564034,-0.30888097405881676,-0.28204294673032615,-0.24321573605633007,-0.2071069089405003,-0.19580431444801089,-0.21647998257006895,-0.2625703138401354,-0.3213255480073569,-0.36750594444220425,-0.3917649755793703,-0.3962866312315214,-0.38698867214416977,-0.382435584415905,-0.38423355168120676,-0.3830462030013521,-0.3739311462024864,-0.35375968247310174,-0.31600700233274137,-0.26867107129035,-0.22233536272287413,-0.17926822439238752,-0.12549170657206304,-0.04800572578103886,0.04283961093090659,0.12621903868286352,0.18358920290977876,0.2182180459003715,0.22556300568364368,0.21163936219611687,0.19066964956454996,0.18166646581266185,0.18792508170634098,0.2083767414490933,0.24368453590301886,0.28380480082658377,0.31981208571933334,0.34420183994039133,0.3628661697727573,0.37068594814512457,0.36576844358136656,0.3455660640729673,0.3190828587601284,0.3049513991952671,0.3101185294378589,0.3262928706184831,0.3465413555888619,0.36362052169779563,0.37802909541831453,0.3933681215588397,0.3998332944347751,0.3771024272040381,0.3151614431214136,0.19143602829319775,0.030149054997172374,-0.07585178172853842,-0.15047446773802767,-0.23903831482184876,-0.4102680828676475,-0.395063360723883,-0.12767784103041163,-0.02522382903719968,0.029402298380476612,0.06902895488141503,0.09696732086876611,0.08766447055223271,-0.0009353787645554955,-0.14470046651982077,-0.23818576637088457,-0.2662901104424966,-0.27880358543845224,-0.32107699768585873,-0.41882471034850427,-0.5567689550734551,-0.6156462521484304,-0.5949317713915229,-0.5480528371305239,-0.49514696339848324,-0.43299474820473066,-0.344845262180978,-0.21268035990344672,-0.028464583774168273,0.18382147541102925,0.3747233509922962,0.5085247391178795,0.5753255629223178,0.5809721202353316,0.5326079792058568,0.4288083467246442,0.28710451662414976,0.14488981222562738,0.03121159342470217,-0.043364076091290046,-0.09252435789257031,-0.13595585408878935,-0.18248713411292283,-0.22239724153991636,-0.14979771764998523,0.3236205359925458,0.41335292678139796,0.4535929333866569,0.4753319909666027,0.4721963718682216,0.42037808541241556,0.2612304741974726,-0.08963804574882374,-0.42737268504075554,-0.49752982280342917,-0.4835635333531533,-0.6464532674670184,-0.04568600502599185,0.018230813180378554,0.013088010617833724,0.00685314471085684,0.0922429344381955,0.08561861749531645,0.0775760208130023,0.08057641116700326,0.08777885243605435,0.09857884874455708,0.11445947816973112,0.06791207909726121,-0.09165927443961806,-0.1322272434519529,-0.17796507599974803,-0.26622542494823176,-0.4173294798260919,-0.22411436743286292,-0.12151310520127677,-0.10320076140762917,-0.13740648678774647,-0.22972384794517356,-0.379784515588138,-0.5414600538983868,-0.6296612606227873,-0.6211580729613434,-0.5433419354179143,-0.39680492767399594,-0.17037442412608622,0.1012305159391968,0.32470027607744256,0.45028690398339255,0.4887076425443028,0.45583168325241835,0.37646546897851624,0.2885554025660555,0.2337539289474729,0.23344424556855267,0.2884880791945549,0.3828061044400688,0.44305615175411656,0.41975572588275795,0.3378017701571861,0.2759953250194969,0.24764436289598757,0.22917272107185271,0.19197120216522934,0.12640555853984572,0.05256296762195513,-0.0035597263749306005,-0.03600512674473264,-0.050243272082613755,-0.04896007793692062,-0.03540372609220025,-0.013303771171533115,0.023541847945944,0.06718600870911778,0.1055362511459861,0.12955246347222552,0.13258762185645537,0.12168539485924423,0.11115345224628857,0.11280269531012685,0.1268619050871704,0.13681806128010301,0.12121294270563558,0.08174831991956136,0.03529987170765034,-0.013762877035544054,-0.07020061604030256,-0.1372800027479316,-0.22682030258616556,-0.3526009129224679,-0.2998820275459256,-0.08887528094685021,0.013052145297576888,0.07082913279023066,0.11540622577333527,0.15995817727814798,0.22301492723379132,0.28880075262527993,0.29603328714833915,0.27098205486613725,0.2567493400385238,0.27366855916539534,0.32660252407478446,0.39317395498900226,0.45004148942174266,0.4921960487008897,0.5122212221570865,0.5062030331024526,0.4819753800699769,0.44231137849883,0.3881266562910957,0.32522246807282096,0.2585196724032134,0.2041060671507111,0.16601172616609364,0.15138401248079095,0.16520363372275199,0.19516750170169722,0.23545145318991845,0.275190577062251,0.30568281820870663,0.31834930281264684,0.30408890411788925,0.2604493694928154,0.1997840001203887,0.13760877164463545,0.07007178026900465,-0.020163243978285568,-0.16113248258556193,-0.3291318481741771,-0.4428265325078556,-0.4768761387954,-0.42567509339146875,-0.32227345318371803,-0.24150131864034102,-0.18207643214209587,-0.13268851265964596,-0.09664105546800922,-0.07516659431953181,-0.06355150713399013,-0.04576351225873123,0.0021914524552871435,0.08144547596850257,0.17489892493580528,0.2656109618054207,0.3330829035754466,0.37288781129453147,0.3867064553150131,0.3843563506013375,0.3714167341124175,0.3366767779563842,0.2421474551187327,0.03604687345156368,-0.2679814347016779,-0.5224408323936188,-0.6588679272628802,-0.7114897122564021,-0.7172320394068238,-0.6973303280821668,-0.657019597933672,-0.6035100265719416,-0.5503930104636776,-0.5077571332002062,-0.47525567268454616,-0.44500527119935995,-0.4128133529218922,-0.3692437336191183,-0.2935094977571504,-0.17306221921252565,-0.022367722201767165,0.11422619214049017,0.1936644546886459,0.19652540666321272,0.12263000177673632,-0.0002304733373262711,-0.1307551467779738,-0.21991742667868755,-0.23463046682572633,-0.1581720099528333,0.00904598670023926,0.2194275431933898,0.38508096152101684,0.4645063520210043,0.4886289487446093,0.48139483609819456,0.45759285316278614,0.41680508117188114,0.36708579449507084,0.3203804081127339,0.2945702944627659,0.31078881101672823,0.3625767687329676,0.4354522687799722,0.5050399242757739,0.5622688767603756,0.6033808039005581,0.6245433572683258,0.6205788160364091,0.5943991788585841,0.5605285345507872,0.528485074479905,0.4984506020242221,0.4668787931755577,0.42228867031497824,0.3622433060169615,0.2913275529060515,0.2436038167159748,0.2638259246304134,0.3591783144960499,0.5034324054025621,0.6185533729686356,0.6701543486944039,0.6787946210375516,0.650219352265879,0.5778046510692899,0.42209778150342864,-0.05627221057185379,-0.7666820462738994,-0.7899303405018059,-0.725479086725139,-0.6385174011501232,-0.5273304335516253,-0.41589971538194787,-0.3430370900497545,-0.3253337326269401,-0.3690557867809628,-0.5161951046040925,-0.8874036465699183,-0.5396022198310764,-0.25917184240730196,-0.15987225261616084,-0.12449266149990751,-0.1287464777362157,-0.17733985744460568,-0.28547201716168114,-0.43069758652465434,-0.5170195052599227,-0.5008618123608959,-0.40884542326493634,-0.2841320335425313,-0.16127600007071063,-0.05637879348662398,0.018417446715190588,0.027909833984437686,-0.006707270805251172,-0.004071950762748833,0.07986206268780968,0.21960055608510093,0.35163119711800195,0.4985346520809809,0.6833153411425122,0.8452925569496472,0.8664293632173102,0.8014238943540493,0.740573051719267,0.7024243931427401,0.6813637801073694,0.6704379600664321,0.6655359780281885,0.6591456248177411,0.6450752804414025,0.6216058649828579,0.5915168799498336,0.5606129809035408,0.5346992505371982,0.513515681331683,0.4889012400604449,0.45775160574004403,0.4265274909909363,0.40287855448731297,0.38847534511447274,0.38333874268362256,0.378032135218156,0.363621402495504,0.3263334439150382,0.2607189781097251,0.18114581731375196,0.11765526707907373,0.10201395755832594,0.1461114360955995,0.23426013699076229,0.3234359766576346,0.38549975629745814,0.4145446867157821,0.42168975594151803,0.4081953524636601,0.3623496553302212,0.3101890802170494,0.26712602487724685,0.22129362391403998,0.15250484930251018,0.013269722536753372,-0.3161771263802832,-0.8025767453418267,-0.9065610022954266,-0.8302175940155297,-0.7294506596061043,-0.6151225120095533,-0.4972310014866165,-0.38849214610053256,-0.28857698668936216,-0.17450990848959236,0.01323080027643223,0.32219055418019893,0.5542975004943544,0.5992131762962707,0.569526029507593,0.5167999817100756,0.4520768887252878,0.375087059806114,0.28436426220412864,0.18059479582358132,0.07046928471251715,-0.039970860602185,-0.14563356120786747,-0.20120740839728302,-0.19768016990941525,-0.19081084774337012,-0.21158996875891706,-0.27229770993312996,-0.36110925473671246,-0.35749166853463693,-0.31535962551729324,-0.3251374685563916,-0.3951236628011275,-0.5316276843321863,-0.7193214813371623,-0.8776656572539718,-0.8895344285834417,-0.7619051220295432,-0.6030832938149943,-0.4855767085323455,-0.41918876454638015,-0.39402950542507065,-0.3950598666105178,-0.41082790744453757,-0.43237230151805295,-0.46473998574910247,-0.5166904691543744,-0.4446580174583799,-0.1875841967998339,-0.048989201209522375,0.017076643237444785,0.05986110894057723,0.09872053259105029,0.15179731555234022,0.22566878397192064,0.3002133238150402,0.39208579827823853,0.4786383789010873,0.5299868079732156,0.5536614456386946,0.565375681530244,0.5819726586914843,0.63855431720324,0.7765944075800852,0.8113200481846196,0.5244074325737542,0.3336631870467771,0.24231950410150552,0.19737248591798823,0.1737118297938454,0.15653793242355463,0.1325586087730202,0.09754370947932811,0.06522827110567259,0.04460243737931767,-0.004589912011862024,-0.13204929200379475,-0.33501119313257977,-0.5599587368460445,-0.7533146485895531,-0.8130623192294373,-0.7718032592280727,-0.7543249642472382,-0.7953522024961612,-0.8692087784612196,-0.9021630054416044,-0.7772538641880139,-0.5502428540623774,-0.3689887895102527,-0.2770003355076088,-0.2425417591669337,-0.20969457731989877,-0.13227521180934948,-0.024466451013899427,0.07249308045232544,0.15082827159487477,0.21314561327925924,0.25486132880816914,0.2630659298061123,0.22435377884435914,0.12762678171995503,-0.04841960716649797,-0.1785891791254273,-0.22709254507396812,-0.271540884292099,-0.3672836278365834,-0.5601627752877443,-0.4815175703566524,-0.3096106625037874,-0.24851979364463891,-0.24674976064680604,-0.3008957976718489,-0.32943673987477257,-0.21760561228316946,-0.166261388567031,-0.15890953436305622,-0.18080685627407933,-0.21770184587099095,-0.24716683442702392,-0.24742465803939376,-0.21368262737925928,-0.15930449939099797,-0.10115586640905437,-0.045467356634613806,0.0005159174992702995,0.03407448036235443,0.06102870234462368,0.07761805982928763,0.08466208001567255,0.09259592024126563,0.10670411133913939,0.12377407476593094,0.14525653865441562,0.17009256359420197,0.19848210171116812,0.24174456237493266,0.29715451496091283,0.3413974443981528,0.35966970249018904,0.3501890515177446,0.3195108998493087,0.285137181354546,0.28107684215901063,0.3290964777494368,0.4022604544789085,0.4644479907239736,0.49953142925119426,0.5036561627664426,0.4824050311256975,0.4531450674938966,0.43262264883609364,0.42590018416982683,0.42606431843273657,0.4274360880843516,0.42919318250377164,0.433465669079646,0.4394661746391359,0.44623809399303244,0.450200963243896,0.44719788965651713,0.4361485927290563,0.41051295027513124,0.3492249707596711,0.2522419163602942,0.1581871855220296,0.12126272105909117,0.13534922779827585,0.17379278885917043,0.2224610106895619,0.27499369601316265,0.32963953957814535,0.3882529555750131,0.43118326679830854,0.41093042079654724,0.2943804551743232,0.13005460992874276,-0.008663954738267622,-0.10175324212186136,-0.15291806764294166,-0.1754270055449003,-0.18127375974430862,-0.17846527015189584,-0.11228140355111099,0.10618237271162474,0.1318741095166052,0.13824655429345278,0.14112153293126714,0.14279538649373752,0.13959761298931078,0.11196012800586984,-0.008115089631418791,-0.3311695753473979,-0.5965037025643981,-0.6693473079007307,-0.6777626895695857,-0.6558455976119758,-0.6107677559825174,-0.5536827778483159,-0.4948228437433498,-0.4329857963407942,-0.36635804838905073,-0.30076599856389036,-0.22952550174974867,-0.1409881216537899,-0.04970071146437197,0.03148769885421547,0.10377533502915462,0.15850395521862445,0.1706412699483596,0.1278745652612443,0.06533407918786667,0.016357991528066943,-0.009574956730785225,-0.0025926929197277824,0.08800611096433344,0.21997998332595445,0.2007812078386556,0.17323023852420152,0.1435944762545367,0.10199507755200925,0.044217970156897664,-0.0032750864832807934,-0.010612564500592161,0.020987795078944188,0.0636702326283355,0.10136511068372979,0.13203733776047025,0.14973436609022803,0.15423477461610774,0.15518319920950532,0.16243786088549986,0.17649846084852033,0.17892649811231026,0.1525600681750541,0.09023390466144153,-0.0194427535400308,-0.16543042316797332,-0.33514305309966086,-0.5016027744777469,-0.6476344183485073,-0.758156942031927,-0.836949239686223,-0.8924306306317407,-0.9103543446756187,-0.8952048216325887,-0.8736934661201655,-0.8576581533340164,-0.8296283487984564,-0.7605089438489689,-0.6549630293893316,-0.523989071745149,-0.3818592843294212,-0.26297070168153663,-0.18934528589104352,-0.1559052680011333,-0.15202410684762585,-0.18940559797273818,-0.289314716029661,-0.13682554712553913,-0.05893692338791662,-0.024328027968794828,0.004299504534555333,0.038553068142880294,0.08566250335158003,0.15183985374892217,0.24053375454720216,0.20418067575248647,0.10547783830151392,0.07246683717486371,0.12206665226010409,0.32366292933401813,0.5534088998610515,0.5875518807503187,0.5930168857082156,0.6156257027915227,0.6575355023676496,0.7211183115210877,0.7374987458131682,0.4516028115469989,0.2009340713642438,0.10087255272817834,0.05499700749482555,0.019886536332624903,-0.019121438699051082,-0.06141127417047405,-0.11800195130326878,-0.16399913495862245,-0.01776491172137451,0.02528940827765579,0.05583247857527345,0.09588056053461247,0.15964824945759462,0.26467201964637316,0.37444983032072476,0.34450031322509167,0.2443328523771868,0.14663014324430138,0.05267783780961192,-0.030330741644717257,-0.09054734558660064,-0.11301796232113397,-0.07229373432374622,0.038063545735671826,0.16173132989119296,0.24483295818690604,0.2729506631359378,0.2551350124385341,0.2166372935617814,0.17380369416420527,0.13298193195918573,0.1045575707267845,0.10718647780890914,0.2115116127900376,0.38228856625405605,0.2856132021156148,0.26576061119473765,0.27247060093472353,0.2893964170861591,0.30894561155310585,0.3196107389106768,0.2968351130285623,0.20000996744433647,-0.008050987010731524,-0.3804537776342106,-0.7881067492734058
