-0.06911397749457096,-0.0786739096876203,-0.05985018464014031,-0.01559952396097527,0.0389481823313228,0.0896878084441985,0.11973630247326664,0.1304034089926633,0.12923590517579728,0.1222546493597689,0.10026899303982344,0.05405719126121139,-0.029861409080033267,-0.14244054259338643,-0.25622729330329524,-0.33591274259713294,-0.38083946897546034,-0.39535672097056346,-0.3377749977687477,-0.24867270849434708,-0.1888595981948888,-0.15403360163993646,-0.13400806041859684,-0.1261902562352558,-0.12710244569875853,-0.13623457209004683,-0.15359779965148232,-0.17570305715924153,-0.19955672095729518,-0.21577484929159688,-0.22318200439018246,-0.22703547271222288,-0.23652276409826756,-0.2590933555238131,-0.29390830513939936,-0.32901878662012735,-0.3394107129509079,-0.2984136937178167,-0.19177306563635216,-0.045943789103899985,0.0829220472461841,0.19164402523069346,0.29472488959102494,0.39808287086153,0.477320007003303,0.502227098777214,0.46476644687323004,0.37591359448446654,0.2659178508958398,0.16991732203891655,0.09911552964030344,0.03984087112351632,-0.028091001608591386,-0.12802935510961008,-0.28054793131235733,-0.5156264257866646,-0.7410773122783065,-0.6920414019235398,-0.567736652920001,-0.4675685024466164,-0.37038591006073224,-0.2593531235336316,-0.13086063546530755,0.011769606720036217,0.1578445376218244,0.2961180500799876,0.41821224889262804,0.5177961700263004,0.5939898485556946,0.6471220171097076,0.6735116673731465,0.6673788174603503,0.6142755431271285,0.48665673050391783,0.29888780383291896,0.17082794924454117,0.16948382737210213,0.26531298203712306,0.39272635972481673,0.4941470179022821,0.5318479524737192,0.5141240773720902,0.47584505131970045,0.43002356275457365,0.3707640893308535,0.2906574816139607,0.19007643667089674,0.08073339040225658,-0.010083956919460407,-0.06093584956703962,-0.07663089226348471,-0.0716335311930986,-0.05806098234911027,-0.040132036502011297,-0.016500438809180343,0.04248020035522179,0.11090013052638614,0.0962278481232252,0.09350644498468483,0.09737521685697836,0.0997366684164745,0.09702359192310873,0.09381603514334666,0.10363276092373486,0.14497733607481536,0.2180155957507981,0.291605943322835,0.33240479153774616,0.3263158477167762,0.26852009569021545,0.17336138716215466,0.07682912401217483,0.008567762595685834,-0.02846456633991767,-0.040787517731197105,-0.020979359645770582,0.05876834552690461,0.22765070260148074,0.48686345243156587,0.7332819276410492,0.8752484121859466,0.9344013500472746,0.9544838152267556,0.9427873990075817,0.8265176614501434,0.3892153074276005,-0.15966333938044414,-0.4666212745226429,-0.6336664523866827,-0.7389278136969648,-0.8101630891607775,-0.8596225566052063,-0.8912401335459081,-0.9078442020535274,-0.9109996599908784,-0.8991406430219964,-0.8633309603914625,-0.7801658314157437,-0.6160638064712757,-0.38449493799659223,-0.16413443179393727,0.005947659157382117,0.14016749660196337,0.252516141161484,0.34005272477000686,0.3988310686233564,0.4385518141773854,0.48066454861802527,0.5369264591487609,0.5404354229151765,0.39784820212772964,0.20145657318463514,0.014034013718090987,-0.16658576362575717,-0.33597068547677056,-0.47498561456954713,-0.5738508283226463,-0.6321132006850453,-0.6549086934065554,-0.6482550497693625,-0.6176941827747896,-0.5419696001272005,-0.36178944715551115,-0.027866402455344712,0.31741644178391165,0.5137090357752759,0.5918872856288635,0.6092905865707854,0.6000304408523283,0.5872652482973657,0.588469831116331,0.6129139579287741,0.658253386834563,0.7113020833407154,0.7596812684362502,0.7856773484955415,0.7486965154599831,0.5723485503290205,0.25455517992923676,-0.028549941808851353,-0.16802554520235063,-0.16168747975574985,-0.1095031445978112,-0.07692952861655904,-0.07518386528791218,-0.09510769541345614,-0.12043241614363438,-0.13027990579971038,-0.10182575992361792,-0.018475614413335104,0.11953125108104037,0.26186033409418746,0.36095572872720794,0.4218688474117488,0.4680327344310495,0.516176907688126,0.5738455429759115,0.6428961579031277,0.7174052353269506,0.7866109136740733,0.842677074889167,0.8785894957264692,0.8903870528383588,0.8703311254974052,0.8071849955739859,0.7095716512429687,0.6198562591852265,0.5729553877686333,0.5699682778272728,0.588151099575711,0.5964486837436592,0.5841412379035436,0.5587501666811285,0.5353509177404707,0.519844596405927,0.4994101321380818,0.44933506544842594,0.3701840072962729,0.2953862250174526,0.2513631868759779,0.25050463486388946,0.26786404181660867,0.23177197069609345,0.1903367377986981,0.1681580731631599,0.1577171157990438,0.1567008684694098,0.16496935456733797,0.18728450080169906,0.22556421124376014,0.27514997404002756,0.3316005262744342,0.393484752598505,0.4499794720530845,0.47332622984883677,0.42064520174335135,0.27268992225898053,0.04138033753442593,-0.24709448304694714,-0.5094356744967549,-0.6891361498580274,-0.7789391057613364,-0.79964581649589,-0.8071889403728563,-0.8420076426679065,-0.9009621285688971,-0.9484355954182895,-0.9669108811542078,-0.9681146566754599,-0.9603125726577597,-0.9446163301327689,-0.919502613393056,-0.8822201849186704,-0.834303615822763,-0.7501419477007392,-0.6007420093877094,-0.45316380472582424,-0.35323658599277563,-0.29667458706867733,-0.27898602054534677,-0.31206759094772685,-0.48171098592122047,-0.551372135831578,-0.20240968547566757,-0.10958848777549729,-0.0764017479909901,-0.06696158147817631,-0.07521467181272497,-0.10640299947266832,-0.1713901344665656,-0.2618110587818419,-0.3131053778924558,-0.2913312537108717,-0.23581005311210193,-0.16572285784011814,-0.09845551326590869,-0.056583823594750934,-0.04202781024119096,-0.04500983592037353,-0.04557381834586755,-0.029718000622033554,0.0030476219213761585,0.045623129660202495,0.08786136344715366,0.12322238429467038,0.15073059867544833,0.17758456786371327,0.20706857645593352,0.23179155316106193,0.22901561276996912,0.20045665770797844,0.16766692444825768,0.1407323426337998,0.12187935062121653,0.12133685486379663,0.17069581641125636,0.3989137962036867,0.4432282600057096,0.3098337396070329,0.28324538349296907,0.2941249776943926,0.3249058685150803,0.3665955516149653,0.3920981397562274,0.3531000247368101,0.22415248229265636,0.04395752671165586,-0.1082196619129281,-0.21035721578023125,-0.27855215317889387,-0.31728378364083054,-0.3203945504933675,-0.28252246371111345,-0.21291312374501148,-0.11556403438627348,0.01464544510369064,0.17759882816719216,0.34911147855852015,0.47076020117380807,0.5296704361444243,0.5563316700985063,0.573249714359312,0.5913591168750448,0.6162610735266881,0.6444692820107971,0.671935305875396,0.7005735524918119,0.7255944117414603,0.653555421190736,0.42344882476602386,0.25108913809309846,0.19446370438836422,0.20262323534104262,0.24180790892828136,0.2860676349610821,0.31597968484116135,0.32328914150327465,0.30293557125427273,0.2559757134226657,0.19210341513711682,0.12457366576017762,0.04509843579967785,-0.05598435672068374,-0.1563434837212258,-0.20379193403977555,-0.22448796496436402,-0.2654472841450013,-0.35229057075538084,-0.4852084625309562,-0.6425902078112908,-0.7791112996609552,-0.8714643100038829,-0.9263268181094344,-0.9571117972132956,-0.9728232850647425,-0.9781208173213037,-0.9733250607240954,-0.9544913534455308,-0.9075450464949152,-0.7899494623179103,-0.4817164658480352,0.11357893912104151,0.5908936285129957,0.7911550269724027,0.8676854022286098,0.897812343918371,0.9058686535314604,0.8995232787903457,0.8858441493819584,0.8760824075993133,0.880371162011208,0.8965551944928084,0.9097651918596369,0.9075539970312226,0.8794484381329409,0.8175878923493053,0.7322466207692965,0.6594026189779271,0.6248323160202468,0.6310074895599048,0.6094461822370705,0.5090017115802687,0.4665632198207447,0.4892602205214552,0.5456304029947316,0.6149893834905554,0.6800159404265878,0.7249113143236214,0.7114429820941673,0.5472622028006885,0.2992889646690227,0.12169881828124933,-0.0042377945709452585,-0.17959114544504406,-0.09020873870242414,-0.012251324972157121,0.044079812425241074,0.09625801292221638,0.1470752902880527,0.1913150937569343,0.2147310613640841,0.19537208477852613,0.11611953171098209,0.001330107296010902,-0.08338856098944054,-0.10985979943529116,-0.02696798240750236,0.04331331344175949,0.051443768182203115,0.047940170323242576,0.03734952245252954,0.02548067879732766,0.01374527567560271,0.01185957685115096,0.02514801218835523,0.049679031062790195,0.06418337054685219,0.05449864569266023,0.03374538804600028,0.014561924170685213,-0.0018702667651250345,-0.016807801757317845,-0.03514944518818715,-0.06358441831576028,-0.12966515295257325,-0.2098245347032771,-0.10525351808465334,-0.05709677184570511,-0.031107965676908163,-0.018894798491373592,-0.031089858553438866,-0.08567971751430173,-0.19000286027180627,-0.3135759552166496,-0.3766844189914918,-0.37750736045910166,-0.3760325791117863,-0.3983721401310378,-0.40585087774701145,-0.20384402320689926,-0.01107110290387661,0.08414459320533098,0.10940024466293385,0.040419835733692115,-0.031188522415219987,-0.08379806677968968,-0.13180681859957458,-0.19035595250563656,-0.2952810385961019,-0.20673413098776883,0.005197745147710513,0.0892130671695351,0.153081709436045,0.23222919742390485,0.35890682889104036,0.5660807132824732,0.7192336208686164,0.6331902252767384,0.519471838821788,0.439713121735427,0.37660680737169244,0.31261517457344606,0.23477913803572137,0.1359503769424625,0.014424160386798422,-0.12220921385421105,-0.26740210320720265,-0.43570390680325244,-0.6378672210162476,-0.8194807018360684,-0.8948933500310148,-0.8902334954833856,-0.8688380034304725,-0.8471829506675673,-0.8050932274077661,-0.7135890031028765,-0.5844698837655338,-0.4662671784393193,-0.38433419831605287,-0.32128541517042847,-0.23761174911300614,-0.0677448052016468,0.21740584388465736,0.5117373074739088,0.6863581698899295,0.7510837150168093,0.7304676650969729,0.6255749384315785,0.4442069574329421,0.26311781178241095,0.164145024115895,0.1444216492023941,0.15432244768436434,0.15447096033593588,0.13658404003824573,0.11095240617752233,0.07208607623762625,-0.004765871430469361,-0.1384625244986695,-0.3089865303086956,-0.4665927800115848,-0.5761244288484566,-0.633518256881431,-0.6480058202525066,-0.6191487686034312,-0.5444940727705251,-0.432596071208735,-0.30300440725623856,-0.17277636735831534,-0.041400245469783485,0.08455618682145626,0.19636838805602153,0.2779594581599448,0.3166956045948352,0.2998089091615315,0.23742577280901306,0.16722019331440713,0.12057524628135824,0.11710457849357238,0.1784064103538855,0.30554516517575686,0.48549419124303184,0.7193707090827302,0.9349852471898173,0.8819470503187042,0.7032907404396904,0.5952037135827164,0.5793382148757609,0.630671305572008,0.7051985024201922,0.7508456007725722,0.7550178320399544,0.7372669784880634,0.718224876645257,0.7049694548163736,0.7026679895506727,0.7021428056525603,0.691096687356266,0.6520285962456289,0.5775707943265936,0.49601930746214157,0.4447151521277939,0.4480564671193014,0.5283507953141994,0.5717469466918359,0.38539519230529246,0.2538068011080277,0.1821530015419255,0.13390401060227664,0.09936401534789148,0.08153805912690813,0.08454109457845661,0.10370182678640938,0.1259357690286485,0.13632880095037522,0.12301477429559893,0.0793206024134996,0.007928863987946682,-0.07889488971643273,-0.17442693825922262,-0.2789883117884301,-0.4215711558023384,-0.6689817217120391,-0.6374132470650663,-0.32973395617248025,-0.18425781737177985,-0.12047194479361893,-0.0934076378250463,-0.08823175208002446,-0.10085707789740835,-0.14255465957738153,-0.24480890297872054,-0.3268666934373757,-0.2982968919076043,-0.2752599928449384,-0.2679749041692901,-0.25076430564897595,-0.21542677316020162,-0.1771649031420551,-0.14588262926289736,-0.11934413168115744,-0.09959500225342922,-0.08719619500063493,-0.08616326049518472,-0.09709024739300925,-0.12307083210984249,-0.170469730638773,-0.23445990315186058,-0.2946862163528991,-0.33673941017406367,-0.35655699217625786,-0.35514542953288436,-0.33524674802854004,-0.3093570261637719,-0.28603366360835325,-0.2617888292628848,-0.23155322455749863,-0.19652064102656722,-0.16777422494615024,-0.1570923369503291,-0.16375378115762024,-0.18336201699977914,-0.21111691080038014,-0.23643621104279255,-0.2513121285721237,-0.25030778834846534,-0.22397465148777385,-0.14999311165066964,-0.03065732299559514,0.09229798871566453,0.1702360560077866,0.1920564693799206,0.16568458191328558,0.117769292163437,0.07340506607398452,0.05115660973736929,0.06854230925680099,0.13120295916697589,0.22113921773807474,0.310038560885001,0.3827256537707356,0.42041379194096007,0.4274218311020555,0.43477574334450747,0.46027024769814384,0.4934271586060293,0.512474414435578,0.5018236294986321,0.4297356533018679,0.30480486297009096,0.1750509105107102,0.06783145387656489,-0.012057037746047654,-0.05643867238957192,-0.05649480862200086,-0.03019058448063865,0.0017848272092553187,0.027378746423003957,0.03299962700430733,0.010179579786922592,-0.04341026883919721,-0.10253014139897416,-0.1394807675990153,-0.15531612745889428,-0.15626524485612495,-0.15259384694088907,-0.15352292805346437,-0.16947945220510247,-0.19627142462904892,-0.0742580087564311,0.014045878360799638,0.08085472911461196,0.18110052284095127,0.3167217908343188,0.39503052786223325,0.4077956511763971,0.40546523955060615,0.39862769493956735,0.39994070995415104,0.4270818458619845,0.4540036653335936,0.41681372205730977,0.3620877020148329,0.3272939143582728,0.3017862795456648,0.25407400620320747,0.1270534841561181,-0.1619904951061844,-0.546323890428984,-0.769489042991512,-0.836988549974406,-0.8177271393229121,-0.7121438108342707,-0.520845989990727,-0.32660468924427183,-0.19780290663643477,-0.12979488863276978,-0.10477874304567046,-0.15289232135568037,-0.3324510359311388,-0.21474636108420456,-0.23030249873496225,-0.2927163288697547,-0.3816140905928164,-0.46853147702346853,-0.48802736060495977,-0.371301764561928,-0.23489290629633475,-0.14466036724075446,-0.07464641095738564,0.0030468333023976083,0.11358529921677696,0.28986478306292107,0.5328063173402073,0.7357395144420102,0.8224878712157041,0.8412588577877477,0.8377186215900256,0.8268746177145755,0.8135229524793506,0.7985225780183203,0.7737012327592362,0.7312654911605461,0.6740708110245686,0.6081308868411088,0.5312828620318599,0.4388186683267416,0.3360666186742396,0.24370965286858404,0.19396070110713892,0.2060698822511633,0.25278441417020275,0.2627389830465857,0.16474309405876142,-0.0778942685699159,-0.3800882477391013,-0.5789316104102472,-0.6393957430273544,-0.5992407213905674,-0.49450923947809483,-0.38106116901110604,-0.3072415674585555,-0.28814618920673124,-0.3286062632447845,-0.4704803834104782,-0.8317693549401941,-0.7738546306136613,-0.5040549465226891,-0.41594611574590745,-0.4017484174105482,-0.41696070937243424,-0.4405079953949699,-0.458135962665281,-0.46515362321371684,-0.45966889601345384,-0.4324364572429605,-0.34394565066359134,-0.16088277876358043,0.06947509203880173,0.2591197480540689,0.38788358804326095,0.47360790411496906,0.5299238401743945,0.5771043442852895,0.6237424085637838,0.6697444026278029,0.7089454158610649,0.738301628455928,0.7562418966275029,0.7642375860294263,0.7669608852409892,0.7598281627852315,0.7236646475971518,0.655187724962287,0.5828682757664257,0.5279945914720624,0.5019687559451087,0.512096548483778,0.5394576205308365,0.5358785500756597,0.5048130879319206,0.4719725992380229,0.4425218223908536,0.432285428493457,0.4769264589699346,0.6403358739812292,0.9340952393077807,0.8869283887610646,0.7050862973866652,0.6326151205370261,0.6271773779981664,0.6558043537872902,0.6952940414114918,0.7158872038664363,0.6957502876108093,0.6504709852055753,0.6103732809487324,0.5907572001829645,0.5904020753547216,0.595894061473157,0.6000873652531935,0.6060777228992963,0.6107602142982895,0.6082935891797534,0.6036959959873527,0.604567612123629,0.6123592289234221,0.6216838258307726,0.6244136653415245,0.6204733051411775,0.6146664966877972,0.6100877717467775,0.6123593752076552,0.6252855628095851,0.6416039125169843,0.6403026168091083,0.5945555500778504,0.4307276727559796,-0.037720482339569074,-0.6564846113811506,-0.8950411049615093,-0.9529206753870351,-0.9612713387880568,-0.9477166622204551,-0.9177439094464614,-0.8767458758986884,-0.8453843014359662,-0.8489672671010722,-0.8935165212249859,-0.9416523296261492,-0.9467348322860796,-0.9090187843641903,-0.852930735909395,-0.7878358338504432,-0.7131477840854367,-0.6333811307885509,-0.5753635393464775,-0.581047522980906,-0.6683790062473468,-0.7427869421319205,-0.5684038208565122,-0.36826729835774213,-0.26249513058588025,-0.21661027331373423,-0.19884599941008285,-0.18380442674736064,-0.14376717772029626,-0.04877637066262771,0.09767177560459962,0.23619824613591983,0.30235515756182063,0.2841002041222705,0.2199293910267775,0.14703482205538534,0.06548141007810689,-0.04321118174051991,-0.18364849079793283,-0.3171536389332167,-0.4119208494744611,-0.471116535963893,-0.5301075433722016,-0.6254913464399231,-0.7478336286053117,-0.8365122602912366,-0.8792247283320007,-0.890606366045881,-0.8815522956734718,-0.8506675455227795,-0.7921574026854205,-0.6941784463873014,-0.5415530294668031,-0.3332141376199054,-0.09734587338755668,0.1060141254134107,0.24395041654559688,0.3267846905622266,0.37492633478187704,0.4102374318839388,0.4413985679818044,0.47150020202184856,0.4903722725895062,0.4979933585326365,0.4956014349596468,0.477955200991888,0.4430050629688141,0.3951807069006346,0.3414505592798778,0.2904232458252703,0.25144029145176666,0.22588813877113584,0.20989408376213783,0.20067244910267457,0.20417445137465656,0.23252027988379395,0.2797193599043757,0.32178428649543006,0.3561494017141471,0.39605680944702815,0.43958507330068486,0.46899484727399526,0.4751058368715061,0.4685946516210651,0.44886545937167033,0.42618352190829156,0.42746494241418187,0.4865628063321962,0.6743184640325597,0.5605290112906879,0.1777993924298279,0.03632126706684646,-0.04528506480618062,-0.14533400489813242,-0.30176406602920874,-0.052576896389597096,0.017680483275575865,0.059752644313140264,0.09698992946626009,0.12931381032973666,0.1315866705985506,0.04411372539969826,-0.08889867888007225,-0.1384847728636303,-0.10687045546290394,-0.04941905433385146,0.005582889751536361,0.04345512038243137,0.05687011212902104,0.03796923239944531,-0.017375576976995977,-0.09961270383665355,-0.18446673034207017,-0.25025407886331535,-0.2935667147573178,-0.3217787647277059,-0.3354202809329313,-0.33223148324045726,-0.2993349254919102,-0.222818152308253,-0.09079229084817313,0.09073928108322961,0.30340949100495146,0.5181444282047175,0.6945031159665855,0.7935865244706196,0.7738216294609503,0.6092567912912026,0.4069788534915754,0.26066923523567626,0.18075829186512704,0.16518031024926233,0.21022204678896783,0.29354816262853856,0.37817141370084345,0.44214905973485047,0.4889124010585504,0.5298711978133822,0.5817109953167019,0.6493286523081053,0.72186715632684,0.7795035420360926,0.8101310031378055,0.8194048328824552,0.8147956630619303,0.7958509729276787,0.7575483018023057,0.6875326138000646,0.5667367237675971,0.3931500489801741,0.2369804777096854,0.17052125584872477,0.1760742833844781,0.18865819795615704,0.13588682188168796,-0.009041848959586572,-0.2455126463342598,-0.5018642058770119,-0.6152035900328789,-0.6296426954141325,-0.6072838163397964,-0.5603400056234096,-0.5134540128648245,-0.49536691581855574,-0.5257958666047491,-0.4787530060070609,-0.12855350564283463,0.04480418927260601,0.1314103391198329,0.19602586769215735,0.24808554450803982,0.2693625028041712,0.24577699191257638,0.17643291970678357,0.06237604480757993,-0.08087626702923804,-0.23351092094620507,-0.37251866139534523,-0.4839561506187357,-0.567232724372887,-0.6272120732275066,-0.6818743783546426,-0.7519456572539097,-0.8341128137730445,-0.8301869128572049,-0.6787781884027617,-0.5549415495440614,-0.517170611881858,-0.5515024702647408,-0.6697226480654948,-0.8414648229889736,-0.43150678222139227,-0.08265550756191858,0.07014106510018864,0.1624885740360164,0.24152687309108284,0.32801405837212294,0.4140190029818654,0.39580906105411395,0.24139888573912438,0.114594116637188,0.04899830356263988,0.025871374193437425,0.02836281004157727,0.039864980204585745,0.048577890880410465,0.05875880995443291,0.07977983504148123,0.10672592719648022,0.13474517543874687,0.16003453004637874,0.1856999963230166,0.21324794805391917,0.2441413892222092,0.2755113946749944,0.30613090393010595,0.33628441267005893,0.36725872594294495,0.39999695342211766,0.427847314731128,0.43229695664423723,0.4086376661772584,0.3669579312334804,0.31506652043586303,0.2570521556652931,0.20280388285352188,0.15035554329394846,0.028917280029361954,-0.17377881168373233,-0.21286844004353744,-0.25772189826499453,-0.32243882067639945,-0.40545886740089204,-0.49664904973539625,-0.5785655759028204,-0.6290684038452474,-0.639151625771679,-0.622398990158295,-0.6101604266291415,-0.6227114287971277,-0.6345811684636494,-0.5731940337848224,-0.2583046613316621,0.44680688110413186,0.8547322063050045,0.9565060048001414,0.9813673691733937,0.9860944559465068,0.9870388386348687,0.9892427080054262,0.9767517385712753,0.776736213382349,0.06004781328181637,-0.40160199332533897,-0.5749697522467822,-0.6453036586427974,-0.6851283716098956,-0.7106243144777523,-0.7003955809286748,-0.6071555206277578,-0.399803689135552,-0.15729673922897033,0.03394319084428226,0.1655589492623503,0.2610387491767171,0.33805698024935754,0.4119151602848902,0.4933182378074486,0.5783510381421079,0.6537599914611835,0.6976339284094218,0.6578603595469136,0.5118973065932061,0.3565359868243953,0.26583254755053554,0.2496593008700079,0.3636178160913405,0.6824167972831713,0.32064260311893295,0.22858739434369207,0.21654621054949114,0.24144141136838645,0.3011456195583325,0.4027828275165039,0.5287939067280961,0.5971390043971375,0.6082923307657842,0.7056041679971177,0.7989879357728881,0.607630614367891,0.4774587265536543,0.43765082790901877,0.44496951359547804,0.4764092194019873,0.5162168203857463,0.546812122228143,0.5454640738079527,0.5129505040866852,0.4585447533183995,0.3687649941021208,0.20783275410159244,-0.024801452131036242,-0.24538011759663805,-0.3877049954025632,-0.45691550499002653,-0.47132066897715663,-0.4207955183415958,-0.2802845066347771,-0.08771773007404347,0.06577124699446069,0.14715578057750045,0.16680083292869047,0.14579610188766134,0.1009861795461912,0.03501200201406357,-0.06410852504321322,-0.1984156794954446,-0.30031693272421484,-0.3297620042879047,-0.31681653826806,-0.28986990555384395,-0.27379085283924,-0.30019275284946123,-0.3796770374780955,-0.5189610037820431,-0.681116821118448,-0.7613012409255961,-0.7106454313408463,-0.5798532500294159,-0.46449039483695054,-0.3971241802987745,-0.36496591879029944,-0.3345048579294005,-0.30249593800013014,-0.2798686585804861,-0.280327102040238,-0.3105800702412544,-0.358990469099206,-0.40543069197402487,-0.44343085205519234,-0.47329708850635577,-0.5017200756126646,-0.5262637890877178,-0.5491381214687712,-0.5723369478879891,-0.5939625019121617,-0.6138713343826853,-0.6312204288073855,-0.6415294203491212,-0.6383616059943389,-0.6184433360943117,-0.5820098538214282,-0.5126880991230685,-0.3900520637479187,-0.25216587383052486,-0.15316724994129222,-0.09797783620161606,-0.08710068387499624,-0.10827711094168736,-0.15028621966677078,-0.21753999515367922,-0.35243808969538565,-0.5516676007759745,-0.24842408009758035,-0.10789342378696055,-0.04899603458947823,-0.006378645206548409,0.048159500878480054,0.13801502378957975,0.29373186981302996,0.5476058193081191,0.7818686852803212,0.6807569716131208,0.5029082022032128,0.40783410413223353,0.38091845082791714,0.39620415382165103,0.4338261182798621,0.46804059622464517,0.4842385225357823,0.4874072295885097,0.48490572415791955,0.4855343931771307,0.49149801676042165,0.48706753956812376,0.4609999909315841,0.4145154920832328,0.34730735640380894,0.26472537231062443,0.18441538641716987,0.10815487095663294,0.018925514762627577,-0.10790529274713971,-0.2738296923191968,-0.46738681753602185,-0.6644913693212365,-0.8108018000837847,-0.8907804197105182,-0.9312039864365801,-0.9537048400443,-0.9680587097077539,-0.977163681831651,-0.9817732401900495,-0.9813163349105527,-0.9771405955779825,-0.9715504138554292,-0.9655120558249455,-0.9552681429723181,-0.9331034708311436,-0.883750378676715,-0.7762900724602967,-0.5567465778137229,-0.21082181967953312,0.1278747470912007,0.3312874261499125,0.41178612211787036,0.4301275562751303,0.43723449005631304,0.45600479128498267,0.4862143948278673,0.5220657331473952,0.5567654110661486,0.5932377993784516,0.6360037056385021,0.6869437486175543,0.74668647624433,0.8088303963914409,0.8608620654011221,0.8870821231337985,0.8570010623623754,0.7548185929128994,0.6228661755261318,0.5239411065393711,0.5149815094916312,0.6425044043054003,0.46263791578594965,0.28648778474112246,0.2429194800540653,0.24985158889624365,0.28888378393776515,0.3646960262848111,0.48870275656754303,0.6334325350547644,0.6537643729246867,0.5136165549932326,0.3501665285053716,0.21543986830132586,0.11647549591715603,0.05509111394392727,0.04344812882146082,0.15342226295533906,0.2659865077648875,0.2726022215808165,0.29395204052380897,0.3343032689076595,0.3868954733776694,0.44885210139565657,0.5200966267791992,0.595133479675722,0.6441271714106536,0.6081816882069839,0.5084911486290334,0.4262830256641831,0.39207030477799826,0.3870095178959508,0.38898591416030087,0.38144675945406187,0.3567211970675754,0.320335488781521,0.2918683847498902,0.2898503535984705,0.32790755640767427,0.38970862053240246,0.43623080241082957,0.4360269009344292,0.37276456773149536,0.23479297616255312,0.01224631609441268,-0.27262304334342435,-0.5412383116156649,-0.6547512469488128,-0.6329907175297191,-0.6911446585138951,-0.8342260686885322,-0.9351759375018119,-0.9731240184527159,-0.9834266180821933,-0.9848180705136724,-0.9813019494097311,-0.9696129830007827,-0.9433178592197605,-0.9046150862719273,-0.8875664266836879,-0.8972272168285044,-0.7086936140730379,-0.5121576006136063,-0.4626516576556891,-0.5237490400146068,-0.7206565832860583,-0.40559778281949993,-0.0868177245877054,0.040230191887183735,0.12335838968045175,0.19886569698059994,0.26081543931648316,0.23133523555844057,0.07561555114377388,-0.07813447859369471,-0.19100516702684522,-0.28637611381785694,-0.37611336794875044,-0.36578867226637873,-0.20490996765103003,-0.06790242984484751,0.026882489218871944,0.11392076353156422,0.22800170585233892,0.4287067159445354,0.8333448692889491,0.8677819252905925,0.6435841427201425,0.6123558049764762,0.670768493101971,0.7261161178176347,0.721756233305724,0.6552566416859352,0.562178251210424,0.478483512638245,0.42884598225348547,0.4593796177001027,0.6857478448644249,0.7391774271612281,0.5386482369322886,0.4727338003887741,0.47088879189691396,0.5089786381725063,0.5893785521340026,0.7095051778628949,0.8197474500863123,0.8478636564563017,0.8104757786794623,0.7021246827245361,0.5038723428459894,0.28196639079737773,0.08775639358284361,-0.08444483972031232,-0.279047257307931,-0.5544592515658853,-0.7970533071335136,-0.7764839009924794,-0.7011964739114473,-0.6665055829077859,-0.6632598488596987,-0.6727673366793591,-0.6770453701666181,-0.666591382431446,-0.6485496657381888,-0.6367239436827139,-0.6318442579334507,-0.6253909379035493,-0.6123334220663679,-0.6057713431765454,-0.6047576642674432,-0.5822904478411839,-0.5117904122834197,-0.3638790297017257,-0.12397130016420341,0.1467436444678608,0.35082150842898546,0.4691998803485798,0.5257587636589672,0.5415128173103533,0.5144561331187123,0.43037153802044625,0.285627087223152,0.11945289684305076,-0.011633342614779853,-0.0797623668161191,-0.08799615680566632,-0.044026570010752344,0.04639150158112824,0.15546876817766866,0.2510163115235141,0.3095359862706527,0.32605061571507965,0.3266612403165375,0.339007139473132,0.37537489902702204,0.4315844635503612,0.49298705824943834,0.5512278834454377,0.6004027974294492,0.632550431773547,0.6407934481714606,0.6246344848018716,0.593772123353443,0.552505357805418,0.5039755806331279,0.45802389657137876,0.42478119064599323,0.4000137863947741,0.38416970861926203,0.39247926144662587,0.4589865344425168,0.6397742341507985,0.7002167218295653,0.4345514675245265,0.32066225190591746,0.3145930943942971,0.37414583025607395,0.4631349034553553,0.5070428444515935,0.46563014170158634,0.3886278383595606,0.3155316321361917,0.1415371991312658,-0.1381326665696349,-0.16605460810792544,-0.1807612798945759,-0.1993682711170823,-0.21331550416980352,-0.20177567480181388,-0.13400140097034666,0.03056917841288924,0.24923960053340818,0.40765197198642855,0.4854331109936683,0.5119811839557619,0.5096160177258479,0.49333683447538046,0.47134344924006905,0.4524074479821217,0.43238657970445443,0.3941329615536941,0.32984121774582054,0.23465530867084564,0.0958602107599179,-0.08235616324623783,-0.24327936317476875,-0.3295797583969809,-0.3365127657982644,-0.28290619770357484,-0.17000496996726058,-0.003933954410384839,0.20831003502626833,0.45143456688989236,0.6179395961686859,0.5168419389789545,0.1809746659357534,-0.1231835336031341,-0.27320621451980137,-0.301005320761967,-0.26501729211462155,-0.21271614920603896,-0.17693973279824637,-0.17540100027088193,-0.21473955712914586,-0.2899151558699325,-0.3793646787881541,-0.45858026869072804,-0.524805052684923,-0.5864464828290485,-0.6437584398231987,-0.6944405056849539,-0.7451906086755355,-0.7930514918732688,-0.828465094432031,-0.8500088685061711,-0.8531161359757967,-0.8041866780377428,-0.6703035757742407,-0.5219212667690145,-0.4318698901825715,-0.3990297696712012,-0.40930582370577046,-0.4674807181961719,-0.6190387768972777,-0.8980389886702225,-0.5613034496874558,-0.26513401011846427,-0.14324647260369042,-0.07746735909201655,-0.028643803791669784,0.01978977333648247,0.07687841616409175,0.15020203845930652,0.23949981906923665,0.34773598869460143,0.48197625541165656,0.6492024583931362,0.8258592645376348,0.8867257408470984,0.8054008388861628,0.7191233123042886,0.6709448191019239,0.6471768308033894,0.6185840583260458,0.572481331198498,0.522052175237615,0.5022744395089702,0.5469654517587434,0.6576104686735207,0.7830101435075612,0.8558776697616831,0.8752752239927553,0.8738679703033071,0.8710701439924807,0.8722707149982203,0.8762766160813535,0.8798164942358073,0.8806478839602467,0.8692270608006809,0.8207310205812124,0.7192517476370859,0.5961439515010918,0.4957624592153627,0.433840678849749,0.3980637845349024,0.3628149941091651,0.30672343121124923,0.2484078600505023,0.20750670770096882,0.18367995180161786,0.16852050534659346,0.1409536052688305,0.0690840992653099,-0.0744797154852,-0.2726409691317439,-0.47675181481444195,-0.6387214952334427,-0.7515353776967684,-0.8294225609123832,-0.8739713361370478,-0.8959406921043246,-0.9036693594917384,-0.9003217420455727,-0.8854902181566772,-0.8547395042439402,-0.8080695966249472,-0.7494368951213142,-0.684976714016743,-0.6247422693928387,-0.5823879475372038,-0.5754914377518107,-0.6272553760701819,-0.7589131617893219,-0.6982444806526709,-0.3911435058890223,-0.2351976868897221,-0.17444930906425216,-0.15618192211702323,-0.15482891328320722,-0.14516811211185668,-0.09733805056356502,0.013054826620140967,0.17628504921065088,0.3575578503167992,0.5255884889715272,0.655722979457905,0.7387320267509447,0.7855646273098494,0.8134263619866696,0.8331172669602018,0.8550330684209229,0.8786633561253231,0.8998269240525179,0.9091039268424959,0.9017005556006625,0.8800360514375772,0.8584435603668811,0.8366863560526964,0.8060279894447889,0.7594159757101911,0.6954932901191689,0.6230953104080256,0.5656515144403548,0.5313355900409146,0.5146821182838691,0.502265675103563,0.47587329792899313,0.42888380901958056,0.3715422225915872,0.31592096675707615,0.2659453030361264,0.22113641652918814,0.17668906338266085,0.13161006529872118,0.0975225404645908,0.08877058109534983,0.11628644805416694,0.16432503219102498,0.1897873488049146,0.16735147405584208,0.12051880597347042,0.08954132789320837,0.09654439942492417,0.12567286399215058,0.16442309436698546,0.2086038958160682,0.25317495618234287,0.2869500304618528,0.2871408469497449,0.21434205702891237,0.07116323066223684,-0.01924373756569926,0.007806704736627124,0.07816797916669964,0.1400702402340961,0.1657932607411768,0.13575211368084023,0.020347740002354526,-0.22333703550596698,-0.5749146012250146,-0.7918387671307159,-0.7754620493530869,-0.6835978197939153,-0.5992825574019246,-0.5421866674950876,-0.5057154070337665,-0.4732736684626188,-0.42957163027952755,-0.36697648315385983,-0.2839422344865153,-0.18637567171055971,-0.09991573722563639,-0.05383457500193463,-0.060651573180474226,-0.10685080571973155,-0.1605896304114283,-0.203866584009041,-0.2354621709238204,-0.2705262373560779,-0.33462253819334653,-0.3740559927587319,-0.13342257739090913,-0.03346711976220606,-0.014200988652294315,-0.024119238937622356,-0.044012820174453286,-0.05222967475489595,-0.011913936740953769,0.12854774674180927,0.3437762255038416,0.5239360904020397,0.6297097383720255,0.6700036570583116,0.6386712488608098,0.5407817382229309,0.4130637086497894,0.2946167625804164,0.21364793450134212,0.16225191856307936,0.12625944656950727,0.10116704872792222,0.09428256851906305,0.11726095045687328,0.20017122876321924,0.1678144750625695,0.0926693051691031,0.06902523006700001,0.07208966251524186,0.10366319533551782,0.17538713102081316,0.2871046352551204,0.3987152618073918,0.4601546489255506,0.44569664292472055,0.3412219930403712,0.14517424004371393,-0.08928801278081633,-0.2946386924255607,-0.4418863194294637,-0.5308475297371422,-0.568028336846062,-0.5704226308538383,-0.5586627020248135,-0.5555320836560024,-0.5662705082256312,-0.5520127311053591,-0.4220363747292366,0.06590759001894904,0.5582132674874243,0.6562825383718498,0.6267669716886676,0.535289795114413,0.37674964695575797,0.1406018072825298,-0.187864173251333,-0.551415500119093,-0.8050226082781019,-0.908679329886291,-0.9333123621299642,-0.9303830950565625,-0.9116102575013845,-0.8682980554878581,-0.7696468397204645,-0.5613378289037242,-0.2228635805719311,0.12173683890105225,0.37318780450548256,0.5519843158427399,0.6685162754191805,0.729278721131297,0.7432233377249687,0.7007421153844704,0.5350188807688853,0.22958858629864767,0.0014269393511064702,-0.11390217961154514,-0.18415982787186067,-0.25722421563534276,-0.3988878600794023,-0.152711051748316,0.04785846545358412,0.14663401531037315,0.2673560516880603,0.49025061058977953,0.6567390623997252,0.4325124370175755,0.2668930333513725,0.18171030847929517,0.1484629049748793,0.20365896112662327,0.6050258575519052,0.34055490543739103,0.3217528742774215,0.3764816815892312,0.47559493673154996,0.6197772592011802,0.7906646341077429,0.8847555452396744,0.8650888082402733,0.782695777942293,0.6732400479711694,0.5813020864230466,0.5338448665201326,0.5311046364450911,0.5604599526286663,0.6009105998137926,0.6190109015365532,0.595269786054877,0.5457677985798743,0.4919403529204177,0.4409387805568871,0.3932757904244097,0.3514929861762511,0.29948230215556737,0.22059595930836898,0.11004975156957433,-0.023597972761164376,-0.16882412867147567,-0.302069571288353,-0.3172259445733304,-0.2053019715720531,-0.09402614056291131,-0.005038734315156119,0.06752933659817127,0.1218691107496781,0.1440638753297691,0.11212360902669626,0.032277857547619596,-0.031823448918080185,-0.049191035306213375,-0.01565119684736017,0.05608144479950717,0.12575391380284476,0.13754067833491884,0.04583349684525232,-0.13138268940524628,-0.31628351074731703,-0.4428061043580981,-0.5126375812363135,-0.5221697115122236,-0.4525100110178374,-0.34836145407480773,-0.2755823332657379,-0.2518573887636636,-0.2723680175406654,-0.3531176198346859,-0.5666752604254962,-0.6267648373946454,-0.32241665709840034,-0.1945953218613545,-0.1359772604600755,-0.10240264683295706,-0.08372936046427021,-0.07884064033812913,-0.07999744957937974,-0.06511543627151892,-0.005460158608176465,0.1228026696991024,0.31853211405598,0.5352247803865906,0.6997122066923519,0.7779282868173067,0.7709545363151816,0.6217876029678355,0.09557266052210905,-0.5447078360069116,-0.7909245058402824,-0.8790696690963002,-0.9195841008063398,-0.9374683851666457,-0.9390674441913697,-0.9241251837533725,-0.8833032883512427,-0.7852631510017121,-0.5461471120686214,-0.0874889403344059,0.34514191768942415,0.5485511623039457,0.6032397236875313,0.5613403656269692,0.42974944767088447,0.23394128772540246,0.054891862318844444,-0.041534919608568005,-0.05272644234913525,-0.013926001254842068,0.030314972674980824,0.06393551121092877,0.10258878176264544,0.2035371903031687,0.47657529898764106,0.3067348011555931,0.24234406140320341,0.2439350468004813,0.2813881527165878,0.3524516658306525,0.4422328530640195,0.49396009643091343,0.47888191513647066,0.43453414507050075,0.4010457456086059,0.386887893623431,0.39132657446075875,0.41453210337388835,0.4595191019996481,0.5254695299821107,0.5970898415959005,0.6534258310946256,0.7039305416755438,0.7591708296252748,0.8142606416075236,0.8592794973358708,0.8795240865963961,0.8752758310521147,0.8610530692362889,0.853419035004539,0.8524797340990569,0.8472568384960781,0.8109247895726789,0.7159854574682044,0.567775702551437,0.40636383760385025,0.26437527374088093,0.13789018438360104,-0.0019147441621545334,-0.18811235015014416,-0.4150841896407161,-0.6073979483169561,-0.7242324647727787,-0.7755891294343644,-0.7870914022692304,-0.7729948269064223,-0.7456920348432363,-0.7168856355610622,-0.6948394194989996,-0.6827481809258145,-0.6737124217300816,-0.6561123049505192,-0.6108911691114104,-0.5154404827940319,-0.36173460182442546,-0.17471807948448606,0.018854175322024363,0.21910506350603937,0.42157119899431533,0.5913479812203869,0.7108844730586185,0.7923738546873709,0.8519320918748399,0.8960250824266516,0.9280737366737926,0.9496825105445044,0.9568639446189792,0.9426070317098548,0.9038629380572748,0.8532534876000967,0.798829887196312,0.7302197086285358,0.6273204782613794,0.4850099366108794,0.3404861272272613,0.2441516337518362,0.2133254420396059,0.2265696106229863,0.24236760476901384,0.23850184967366989,0.2181460091404739,0.1824638169241829,0.14572190951975003,0.11584388723039503,0.08338272423405667,0.029308446485659754,-0.053701333560692496,-0.15924192672169468,-0.2688542215810322,-0.37145191462610594,-0.4632362990743083,-0.5406349105903506,-0.5973742854592249,-0.6336532680876816,-0.6480814122913946,-0.6426891351152376,-0.6229691337338388,-0.6015753792237317,-0.579382019377479,-0.5591023481515299,-0.54195707725963,-0.5280383335930616,-0.5250481403409257,-0.5447619555763048,-0.5846637929460503,-0.6323090081473235,-0.6511610500123799,-0.5006580718524604,-0.07630490993195997,0.2144928082172348,0.33044097898567176,0.3707792769377214,0.38763731277207636,0.40318348533543463,0.42648377545166144,0.4598987743751914,0.5033604226444642,0.5546906145901376,0.6058637934200455,0.6285340416742105,0.5765327475006131,0.45458710269799646,0.34867250976811565,0.30324433367794806,0.2973890020793021,0.28072339515333444,0.20579012110375552,0.051375062215623504,-0.17733276110445356,-0.37647528789625295,-0.469142812821876,-0.482119552574958,-0.4740404807480486,-0.4827834638820349,-0.5307801676760548,-0.6355151114658827,-0.7807288827883262,-0.8192104532662144,-0.6940219787232518,-0.5584257296007644,-0.46257401466310244,-0.3968998082016644,-0.3390592733352898,-0.26133013946469547,-0.16324204306410864,-0.07313187992284326,-0.03323188896743697,-0.03893505423241893,-0.08678623937943253,-0.2804390419768932,-0.32628850320519476,-0.2294667333897415,-0.20899599991798257,-0.20089678064610492,-0.18864383942552518,-0.1521853880990067,0.0023276937079391496,0.32735034728792867,0.40131240057302686,0.43860161256894115,0.48180812741022944,0.5243444479566619,0.5339147897613609,0.4275341282163484,0.21819796058977303,0.06765470093196553,0.02368420851554416,0.0744583429222221,0.20687258891959712,0.3448257659241405,0.4126181413225957,0.42507590974777626,0.4195159273504446,0.4208332883855494,0.4524137732102138,0.5476178661500181,0.7187669349008136,0.8030987395696146,0.7610473465529722,0.7633137055616462,0.8323326506499574,0.9313274441009151,0.9246438825343439,0.687180588710642,0.41616663411231564,0.19519652366046053,-0.14520627404360667,-0.21309780301198844,-0.14891918863962728,-0.1073946379274649,-0.08604087463579776,-0.0849086334250878,-0.10808577864124883,-0.16637445705847367,-0.2752955599908674,-0.43132484312410085,-0.5777969125244049,-0.6694929346536044,-0.7166208081485593,-0.7421671359817901,-0.7533607467226632,-0.7529180786673504,-0.7380148564392317,-0.6994324131636106,-0.6238691969838976,-0.5102200693933296,-0.39111008383115875,-0.30840078948075683,-0.27028716610712833,-0.2528830464802828,-0.233559229420686,-0.19586905284034928,-0.13217669107073315,-0.03974557115334236,0.0767105880042871,0.186003533861685,0.24705468357217122,0.24958896755204182,0.19441609635773274,0.12231608762667612,0.06127658407800895,0.013301888377113411,-0.024883894894032192,-0.0504827014292388,-0.06237742612418982,-0.062484404422038314,-0.05551930862924169,-0.04409744175507325,-0.025813504670533484,-0.004115301778780872,0.008683715746714567,0.01741244930445746,0.038194093446331664,0.08490980220137995,0.16339772775500594,0.27276817908266804,0.3743017731994248,0.42933144002057627,0.4322952947010648,0.40322779836328826,0.3658440987049786,0.32892459552970665,0.2861747094867045,0.241540675514009,0.2021849083995949,0.17438790395410492,0.16692792223885328,0.19633581701676098,0.2586317307888072,0.2942916136401113,0.29409469091943524,0.28882404771545567,0.286513556158551,0.2836237359812294,0.2706644703849685,0.2256079189565808,0.1587531830845327,0.12527088529947572,0.1472568992439882,0.24719638293536808,0.3843777126535498,0.3125238391816117,0.215496407769993,0.13820350859471245,0.05382853056161773,-0.0588721731874341,-0.22666453896692654,-0.46200848313258047,-0.7171366973474023,-0.8935365653212981,-0.967265862425046,-0.9883358352819115,-0.991448429813468,-0.9880282276892883,-0.9747733092181785,-0.9280803260865722,-0.803214386038354,-0.620040864250318,-0.47276350568885084,-0.36858632451230633,-0.22686885161379142,0.021827467722249853,0.3278762128443857,0.5588034179379125,0.6884813729923653,0.7614060937940503,0.8067054239373672,0.8284531011267424,0.821258159196332,0.7822202996989308,0.7168157068297406,0.633322576634709,0.5468635135840894,0.48134401849160924,0.44991491324783905,0.43655581587847303,0.4127371601971204,0.3710580314292428,0.3507995996113459,0.4079410197322312,0.5378833315542616,0.6447154942736046,0.6551342996027653,0.5998098609798667,0.5360011368331724,0.5482130426538292,0.7648047976641397,0.674037665336958,0.5145068926727114,0.5408059661482124,0.6873678790667931,0.8703166601243467,0.6216741275213492,0.33842794809068283,0.19904449087357953,0.12783244992719967,0.09348487404354792,0.09326211457733304,0.18822954779314688,0.11081382878001704,0.043627151334747094,0.017019212899457088,-0.003957481542914224,-0.025948020182452562,-0.05527128346965892,-0.10311369072137164,-0.1870396395117513,-0.3202653271466795,-0.49347596966380275,-0.6623474281165153,-0.776835995719455,-0.8348939375840794,-0.8620637984097342,-0.8724897804510036,-0.8728457936704721,-0.862348791894531,-0.8400315273498378,-0.8038587161066926,-0.7624504702045872,-0.7259462273318461,-0.6907825320090311,-0.6290501053020164,-0.5305203298362496,-0.40837623233788495,-0.29660717651715157,-0.23048061681386064,-0.21525118101876053,-0.25059735193259575,-0.3549187381806635,-0.5084047100245651,-0.605134418941304,-0.6211616540021002,-0.6069348467976015,-0.5754668047297242,-0.5013641268854793,-0.37895721760014867,-0.27517770765365807,-0.227471129945821,-0.21935640917553045,-0.19761782205194187,-0.11050297181375218,0.09395277064419166,0.39375663105242875,0.6331090232930784,0.7469228210524979,0.7835996700650119,0.7798064053618787,0.752597259393193,0.7117755414244863,0.6692369024642751,0.6293695537739279,0.5870230642296838,0.528870072755107,0.44223799922813917,0.32747244009061266,0.21668719414374177,0.1492241877607271,0.1286606747508247,0.13135798407024,0.13384037101301308,0.1317856103378332,0.1398159823254886,0.19581975549152822,0.49426733184874705,0.5376231219599731,0.3335850641383309,0.3036166427943101,0.3220393728109057,0.3718058359214393,0.4621854950706921,0.6185084960488436,0.8464983143603246,0.9417034445474116,0.7365611290057686,0.543931953915199,0.44388084856953264,0.39350247103282093,0.35361235924421147,0.30091237466160464,0.20509859324831273,-0.012494355131946114,-0.4150978436186232,-0.6475377078776446,-0.710599003949536,-0.7507472231611172,-0.7822371305981123,-0.7926033171738252,-0.7704007041480669,-0.7202918869105627,-0.6754662733636362,-0.6885362488681386,-0.8072482799038869,-0.7846476598072252,-0.40614965299478345,-0.18134951960585752,-0.047525463796802454,0.060960297950335765,0.1757721160809636,0.31155141702723543,0.4182877507044469,0.3624339772393848,0.08782242590504193,-0.35678787866837564,-0.6721139581373903,-0.7171308287870044,-0.5260245827268819,-0.10846905036539796,0.1881647142098716,0.26192927204191246,0.19872366433800015,0.048663792873916964,-0.09127413998398964,-0.12523315582210173,-0.06397110811170147,0.03667960191029636,0.12780724898344473,0.18885995708884684,0.22124992698309343,0.23467734449218375,0.2394310236022411,0.24130552956025475,0.23136758556482737,0.19933314364917734,0.13465590952841286,0.0180941093193215,-0.13789394925841733,-0.26589492170987117,-0.32431485083363193,-0.32159118841969975,-0.26828555995952896,-0.16101451529713384,-0.017624366196541206,0.11043176534402488,0.18143725759101356,0.19551433341442875,0.18451617506621928,0.1937933022708603,0.25559334870175293,0.3699816151674447,0.5042842834769368,0.6427537934140143,0.7721340117241967,0.8665468563079737,0.9191811185217726,0.9385294302624316,0.9339641041736533,0.9126485584902121,0.8871991534940987,0.861183870962898,0.8277587946463382,0.7710379857623914,0.6780392662055065,0.5318103858850795,0.3512252584855514,0.18740761739995704,0.05363241528608753,-0.06725585426917353,-0.17699758198723964,-0.24723999611241976,-0.2526560168577384,-0.18998607069578885,-0.07364579955591811,0.027331068942468104,0.03527655733169857,-0.07898877115616003,-0.24621647803766356,-0.3729020756527854,-0.45030254996647906,-0.5171128725799002,-0.6013771790665126,-0.694330025534607,-0.7688831653231218,-0.8101965796776657,-0.8253535054055408,-0.8284609720911716,-0.8318269858014666,-0.8395428461188496,-0.8503546497780284,-0.8624253153415766,-0.877023908804925,-0.8986562771073126,-0.9161052787481981,-0.8423126798530083,-0.4082027933662046,0.32267718359292125,0.733377764073656,0.8822458273568596,0.9249462301230251,0.9073558502366675,0.8238826677313431,0.6747908962081594,0.5014640656056583,0.3510952493466367,0.24561222014276504,0.19182552871872807,0.18774014004340553,0.23018713545772285,0.3117679769973236,0.4053329169289278,0.4892007145791467,0.5525507161575899,0.5894447351718349,0.6080644339855732,0.622578475772168,0.646129700678825,0.6845083572091056,0.7289930746462893,0.7654600182911941,0.7813949545522324,0.7696395586453346,0.7240462005820512,0.6278009925471775,0.46308350706748186,0.2525443852394332,0.06870220925648415,-0.026910741892244263,-0.03270247707863381,0.021197738219122388,0.08437653817417996,0.13696097330981855,0.1973266059772082,0.29539658853436257,0.428996109268956,0.5641148924439237,0.6537180640776946,0.6886349998853758,0.688187310639993,0.6729615619514017,0.6458893544859563,0.5878745332191659,0.4917227266138399,0.3870363976823094,0.30868015145577254,0.27191002198890607,0.2554996227960404,0.0988834741977596,-0.13808852342213945,-0.32876074761561624,-0.3995170493023335,-0.4070499104215948,-0.4486728850193814,-0.4757823227087608,-0.3217291909590271,-0.210925080273328,-0.18631828847587376,-0.21680731757672328,-0.2914143164743958,-0.3728318082981611,-0.35992291832100404,-0.28231446528639415,-0.21223156616958347,-0.15652729546827754,-0.10645534057503861,-0.08747629464011339,-0.1767598891762505,-0.37499390260084875,-0.6028650166253517,-0.7669982244779769,-0.8488193635267725,-0.8796026081883995,-0.8856424630444835,-0.875550995330587,-0.8514888942889148,-0.8147428921973526,-0.7716023748721058,-0.7374560768848215,-0.7507621416166372,-0.881681482452268,-0.7280792649409615,-0.36724349499917835,-0.27255251281494686,-0.2581932260951393,-0.23490020578243714,-0.16427669820509952,-0.04801377160982327,0.10049587857280261,0.2645493187031602,0.39145873814443966,0.3953954906645159,0.31479120120644416,0.2270608069602923,0.15329883140050227,0.09119353776136493,0.05180066000962596,0.034135478922693994,0.014953555349415972,-0.01862440688919119,-0.07501820044524524,-0.15602678357226016,-0.22981867409218604,-0.23901739666086474,-0.16950327609013197,-0.06526636833636601,0.039984207851867945,0.13528564379230365,0.23677781458003172,0.34518623503367907,0.4359992891403118,0.4901503186204328,0.508178552936868,0.4959123052284555,0.4699551589499394,0.4681128526588743,0.5380181317643048,0.6450694031405543,0.6598130173167244,0.5378965331538659,0.3690509852045053,0.236589857651106,0.16091057030703396,0.1347150048318033,0.14965687326634763,0.20646710189757872,0.31991532598080175,0.5054388829072725,0.714915178593952,0.8551322849789418,0.9179005864654606,0.9439000823230967,0.9547783714304808,0.958134854468131,0.9551855898980329,0.944173491466784,0.9191415313294645,0.8706783404584743,0.7888008713239654,0.6805940779698123,0.5782009852479421,0.5074070378562621,0.47256012299475053,0.45955813834044673,0.4484823506918791,0.42727824590065205,0.392517717213209,0.3431062708434632,0.2717278608638699,0.17588810602332475,0.07655936667507363,0.003953456565699171,-0.04407712228877205,-0.0874903829517649,-0.15128109354422212,-0.2320768992551969,-0.2640010380184382,-0.17344781441604845,0.013899708305196696,0.20297508894125435,0.3548820255456863,0.48584290880479764,0.6045162554291376,0.7146002854711213,0.7972408159569534,0.6562605807242841,0.2481312681569959,-0.023142812970824992,-0.20675617039017039,-0.40455264522590334,-0.632438243109951,-0.8085967867544593,-0.8924080169917682,-0.9309702156935762,-0.9527229728440969,-0.965354780095326,-0.9720033076662359,-0.9752195413595267,-0.9771144114366584,-0.9780464111960049,-0.9775611417078253,-0.9743844401822384,-0.9670446722636122,-0.9533865846482775,-0.9289957182399129,-0.8853789729661183,-0.8124436058380907,-0.7105880452288983,-0.5886527039041568,-0.45056383871510736,-0.28803597150284577,-0.09874562439315407,0.12237935066364432,0.3579570336458064,0.569167912915399,0.728379892557492,0.8220053435150426,0.8339231020124734,0.7690465360915041,0.6947015631723741,0.6808615288809358,0.7339042783410304,0.8062101124704838,0.8619229336484442,0.8942207770646066,0.906786045079912,0.9071875285482593,0.903635143329425,0.8995378131370049,0.8943973394277628,0.8883691123616728,0.879763431976175,0.866505452832674,0.8472976550573208,0.8172189651411368,0.7745020907676802,0.7214669857716802,0.6736634564430724,0.654519803855167,0.6682228346776704,0.6995937279896496,0.7340037564207599,0.7629669575019381,0.786882662858746,0.8090976467906161,0.8316706233758403,0.8568690318889264,0.8823474019744846,0.9025803408129198,0.9181004768141943,0.9302986287685601,0.9377760530480155,0.9351271605980138,0.912834234712468,0.8419391569494691,0.6356701533436956,0.2804260151529591,0.02459314294129995,-0.10220977241828398,-0.2049249924041812,-0.3008892247974363,-0.381821309826116,-0.47708652735878754,-0.6331729925572531,-0.8652737012222625,-0.8700663622456031,-0.6317451823495187,-0.4835275114684875,-0.4211125548037934,-0.40852040816412943,-0.42720877802712826,-0.46252609715444604,-0.5080821836887419,-0.5608312973077979,-0.6110087850941532,-0.6289687565439792,-0.6063224111436575,-0.5660673167955972,-0.5123936271737223,-0.4166813101560393,-0.24317110672524683,-0.02520194228940563,0.15174649872436402,0.2487225256408322,0.2795336701621276,0.2693589895815882,0.25521222325217163,0.289680016370636,0.40806632687447314,0.5475019795608359,0.6576591615944319,0.7609330289932298,0.8267170590602746,0.7753139193365453,0.598654270558783,0.37884286394306516,0.16548403099106973,-0.03272008294801525,-0.21749818208347993,-0.3704480475478761,-0.46319692451105754,-0.4787605208296145,-0.4106145994010127,-0.26528243271130114,-0.09820240221544006,0.01193575976327103,0.03805420999254691,0.01198417340009883,-0.02531511722797911,-0.04950190045806909,-0.05491876639361144,-0.05555959385298347,-0.06054198935650674,-0.0649125345590995,-0.06294127690451617,-0.02640837561312495,0.10923190055522188,0.140173250417758,0.15317497659298465,0.1803585362576902,0.23724400505275356,0.33293928194510725,0.421063220312719,0.4395226221595598,0.42222786069593593,0.3929844225729077,0.3572639143933751,0.32511494360132825,0.30144796246955674,0.31167411305031145,0.3688164993534902,0.43980478108592214,0.41204995970995406,0.3381036296791753,0.2822387144890859,0.23974274713104757,0.20097343786362712,0.15319490489142754,0.07997818956027311,-0.047995157097791376,-0.28701943538112,-0.6419991806556778,-0.8824460785868957,-0.9256224486041307,-0.9026545428828155,-0.8726247001309259,-0.8459431880450636,-0.8123413505854066,-0.7623490782481496,-0.7056424390114371,-0.6558288430247007,-0.6042447232376028,-0.5273877107365655,-0.44436411349508614,-0.37752623608836944,-0.3333074271403067,-0.31672657887388783,-0.3348630013340929,-0.3930228833960974,-0.3419881830001356,-0.11761740423687173,-0.008718441728250167,0.04902405851674501,0.09419496448231678,0.14088819205098954,0.1944173375174893,0.246972817972677,0.26049154923650536,0.20689381659014486,0.13728428821320338,0.08765673585623172,0.06665422711566864,0.06899583422529663,0.085914589789112,0.10443688096477874,0.1137362415881587,0.11067280013869712,0.09172274838331955,0.05364447125027927,-0.02983932914942022,-0.2249428980538039,-0.43070133483219625,-0.37427903805935386,-0.3177879233422503,-0.29982407316180276,-0.3000691509714853,-0.27826133270065767,-0.1986003254773127,-0.07644630128783127,0.028688238036874033,0.09043053758966724,0.0954713256637202,0.004295350087146682,-0.15330046321123766,-0.32876558664847244,-0.47547181055021936,-0.5219408446487421,-0.43675977671399047,-0.22130131399847147,0.10870784948547219,0.42081024502573655,0.6067186475166714,0.6978564767022447,0.7394689465348354,0.7536547282481705,0.7435929773759293,0.7190471826835563,0.6946476686707681,0.6648421948595264,0.5873124447255349,0.45622924846387686,0.3216481762700601,0.21205387443366067,0.13445821360364899,0.08992351621791068,0.1110910364836594,0.055471918285995944,0.05450603234386661,0.06925414820960134,0.08750266959537217,0.10856800706343726,0.13307336120687552,0.15464193686007754,0.1648767080698549,0.15653048160231015,0.1317775637881434,0.10363432347793469,0.08854654617230946,0.09058924013776419,0.09212862625772167,0.05693114760056437,-0.043292758919897235,-0.15821790041830977,-0.2439013941715159,-0.29249587967814683,-0.30992169252835305,-0.3112428372315447,-0.3249610182631714,-0.35653790722372103,-0.3642252074304348,-0.3255875209546983,-0.23409470687960884,-0.05576753480572046,0.24865673411688924,0.5718448584780348,0.7679279733245105,0.8361655672145524,0.8303718191872562,0.7861067470914578,0.6972412935165762,0.5373975629914647,0.32721380284913953,0.12725705796664843,-0.044816839487413974,-0.2181557135226556,-0.39440530536240975,-0.4623476090386557,-0.4144484839237476,-0.37649564641333805,-0.3708128522266811,-0.36916142525850554,-0.3471323809975667,-0.2819865217773853,-0.16359986909364366,-0.02841213303758303,0.059372825917630774,0.08503722197515894,0.0764438111718707,0.05405827629377153,0.02782777861106618,0.003510562285199791,-0.018422138426725035,-0.03981601767388553,-0.014105408224767121,0.03830705326837822,0.0654910853010517,0.09896966035754938,0.1513389148308019,0.25467980020933684,0.4543409369554751,0.3206859547634086,0.20334896904056513,0.1988523945886501,0.28203751131540356,0.34812425792395385,0.2754452827477891,0.20503458134421856,0.13882828572681416,0.05667661985923268,-0.056011248787189806,-0.19978715995775384,-0.35141311289602967,-0.4890298873536242,-0.6111642079820626,-0.7229668379973595,-0.8226251082071121,-0.9016356551359699,-0.929021733577611,-0.8142969807869802,-0.539702572125524,-0.30710508753342425,-0.18766656555609768,-0.13676672903648082,-0.11612140142436346,-0.10367321968694998,-0.08257739029136806,-0.038596701954595435,0.03355920522326061,0.11406614932027441,0.15993001959355527,0.1595169875822618,0.12049225551169725,0.037275281045494275,-0.11251447246702988,-0.34973021625915346,-0.6120017557910753,-0.795963323618026,-0.8934454082847693,-0.9244944636235399,-0.8894775607527375,-0.7854631532192106,-0.6208401719203007,-0.3975353936804076,-0.12800527373110632,0.12056496526823203,0.30128817628160137,0.42024416443637475,0.48851047593350344,0.518220130255056,0.5212376420062164,0.5209549059586659,0.5412413263301712,0.5871373216018368,0.6349823492073128,0.6508281068133821,0.6162378265665661,0.5237569222632438,0.36450145467565453,0.12410902175265708,-0.18532152691623305,-0.426581913820923,-0.13035279614765047,0.5554522055381945,0.8243146778781382,0.9171326462919475,0.9383769783980231,0.8982753127252858,0.7748245282629774,0.6070592145625525,0.49788253469397886,0.513214792633833,0.6591279895403885,0.6583462056012592,0.4856492701112625,0.3519564858450437,0.2456946553378448,0.13708051013398637,0.00842295191170375,-0.143109611923776,-0.30028546404682166,-0.41426858873402406,-0.4504089633216706,-0.4340704488253184,-0.3925142027599736,-0.34394811812644366,-0.2977248358663273,-0.2647942014209989,-0.2592758704327644,-0.29546177817354186,-0.37715114861142707,-0.49976598009165185,-0.6602878911977949,-0.822541267729091,-0.9118274206861241,-0.9302142298112868,-0.9291640578905838,-0.931115359018954,-0.937680072122742,-0.944226357177643,-0.9455969650786382,-0.936197353505367,-0.9146229895484351,-0.8902278553662191,-0.8758499875690061,-0.8687376363153348,-0.8625061194608651,-0.8554779134306484,-0.8404382465652314,-0.8057493321805126,-0.7313663664819914,-0.5785257706872291,-0.3091126295109985,0.022624072806953104,0.28021145872451714,0.4321973085857611,0.5190673002079802,0.5746709413648472,0.6207320884940242,0.6670805089571066,0.7107758773670245,0.7410654482813092,0.7389565823032933,0.6943027504802358,0.6417033341073782,0.6191527433150814,0.6411716831549005,0.6992618607109646,0.7702188667779654,0.829334685488998,0.8645931860256904,0.8769805424299878,0.873925045814083,0.8688486786597333,0.8765433868094594,0.8976095766798191,0.9198386363053767,0.9295219915748486,0.9212822148559494,0.9003414719386218,0.8747635883646815,0.8482025974925859,0.8228802318027627,0.8039002562156179,0.7793401051654172,0.7233795244932728,0.6021035104411933,0.4225581229443988,0.290277766535151,0.2922921703566148,0.37819839041682274,0.46644969952756216,0.5074305113715193,0.49316800767893565,0.4486030297500993,0.40839672706169,0.3925225173361185,0.39860823669758394,0.41429922269406977,0.42460425936591806,0.41009650124851826,0.36906322677950054,0.3033280967029065,0.21354823701715656,0.10334484097119975,0.0024996215150004967,-0.07253732248902553,-0.1292602753394155,-0.17625470810115745,-0.22567989446282619,-0.28823127393631653,-0.3628962153288292,-0.4045492772651279,-0.3924445237852815,-0.3654901421009318,-0.3652121013689917,-0.41216956086036943,-0.5069732885340177,-0.5723306751158442,-0.5023189226137083,-0.38400709526052856,-0.30090325191850237,-0.2580168338402393,-0.2490562870836399,-0.2609426389129982,-0.28198341745252714,-0.30304333698357033,-0.32060019079919877,-0.3426620821935114,-0.3747782926260568,-0.3914486421717962,-0.3628596881265104,-0.2892580026862988,-0.1982777683377832,-0.1456912716353104,-0.17698237793538774,-0.29951319790895886,-0.4891517776644393,-0.6585982870450706,-0.761575983563449,-0.7917358218450742,-0.750519722700511,-0.6520653755112285,-0.520751891382028,-0.37609789415763445,-0.23380623553599375,-0.131828387851392,-0.11439529423546789,-0.1978278542706009,-0.33433316126772555,-0.4339019569419209,-0.4681064581155133,-0.4605853878842316,-0.4213857657716862,-0.33783610285756954,-0.20130033959156612,-0.013677951782895659,0.15868106949772465,0.2544054177209078,0.27569542788075513,0.2331630829115551,0.12645160953560583,-0.04774451794842101,-0.3141857174770544,-0.7528126085899172,-0.8753414290789331,-0.6246256334140274,-0.46729010047931246,-0.37837225893204507,-0.32706049904758167,-0.29949257788183486,-0.2832932135824753,-0.27121460598749036,-0.24068929529669103,-0.15474078238080488,0.020842658108922288,0.28191838931523244,0.5260211048647705,0.6793618271529724,0.7534898781222378,0.7782139007047078,0.7703241735386037,0.7379894250606834,0.6887419246830466,0.6365266043853899,0.5990700081456726,0.5851878771728406,0.5988187222056741,0.6265361517754525,0.5950723157797237,0.5166222397341832,0.526593415335875,0.6239690811954963,0.35799799238516694,0.22123323814186618,0.18187618969312117,0.1769367224204998,0.19195697345162085,0.22227416495200808,0.24889722646817497,0.20241492492844038,-0.0404926471238888,-0.35678144223796404,-0.48013151415692434,-0.4847365270981982,-0.47081193651204334,-0.4917862359030036,-0.6022366119027992,-0.7239746554553127,-0.5177245288820631,-0.36174561769062735,-0.31768941862947464,-0.3627737197895933,-0.5543887754155856,-0.40103358980357495,-0.16145959127227583,-0.08111876907577661,-0.05088245262520463,-0.047865060306612174,-0.06898789009299891,-0.09385647559067599,-0.09773793827881894,-0.08714877630075717,-0.08749965213740285,-0.14072990645852307,-0.26337485363692203,-0.23659271647872265,-0.19382377289841826,-0.16412190922519568,-0.1136336436614582,-0.0050927227375287005,0.2285678451667597,0.3560064662885724,0.26861770227567966,0.22926707836712507,0.25180110634566044,0.314159035051398,0.3954537621216317,0.4430120199751711,0.4580046314851479,0.469834747299865,0.4862913936456619,0.5249861218991589,0.5883541173839397,0.6596416621069401,0.6960438912695376,0.6837071439990369,0.6298815480380705,0.5404149890481746,0.4218582296235529,0.3036346329185054,0.22074411576732464,0.19019380070268713,0.2204159199296855,0.31342062654896335,0.4489458917351127,0.5476227017717794,0.5597508384593588,0.5043734825584202,0.43911174109429274,0.4144081817007107,0.4832940755507742,0.6404476222352562,0.48967806304302297,0.37613211420634046,0.3415214734835184,0.3370675069750337,0.343904594942653,0.34827442168618694,0.32040764928126075,0.19144353473627596,-0.08086839568893357,-0.2729296348230107,-0.2101342110232848,-0.02015429638225444,0.21614465669941818,0.46224824346020565,0.6766795642665802,0.8281929050766619,0.9258498654231712,0.9724216235319003,0.8959863265578704,0.6123342365454242,0.2235842940275376,-0.13490705088914706,-0.4562826695381874,-0.6972742901408799,-0.7898026922324384,-0.8056780231712586,-0.816816994900956,-0.8371140021512665,-0.8629240406028768,-0.8872500489592041,-0.9028758097396085,-0.8971892387407212,-0.8520358763151769,-0.7675250008202021,-0.6850881358775522,-0.6546646473724586,-0.674950775537453,-0.7185024930080702,-0.7634009149346355,-0.7986419831235377,-0.8162647448847978,-0.8143264659179597,-0.7918024563415713,-0.752201232830403,-0.7056955419047929,-0.6669611868897835,-0.6467038330897882,-0.643228356591885,-0.6364587338847888,-0.6026864226855236,-0.5094051169948255,-0.3003070653027617,0.08150241704649547,0.487377434755504,0.705076978574028,0.7742398835725355,0.7702864557276332,0.7304217900929197,0.6835676345880751,0.6519370567937076,0.6487249075397152,0.6725814572930547,0.7054749062430288,0.7307525041886224,0.7519824061861017,0.7776472829322715,0.8046040374248066,0.8147547750397127,0.7984592735856699,0.7705172769004094,0.744581794409872,0.7261012652798442,0.7058991351048548,0.6594276319646497,0.5578298209392701,0.41470870890277145,0.2839657773018933,0.20178392147955054,0.17856609225670325,0.2044558113923038,0.2526058721888854,0.28887514941775255,0.2922425077830277,0.26072929407435075,0.1979624663083529,0.10628107229933996,-0.02012511139435566,-0.2015906638560114,-0.44549132117933254,-0.6868430311868319,-0.8282799375963873,-0.8641576947168222,-0.8010144731294514,-0.5851146052047806,-0.19193093133269024,0.14844962410238802,0.3106805161171977,0.3482321418807849,0.305958347905274,0.19541204971003748,0.02782745787626187,-0.09453422593833721,-0.03589895808848041,0.14573264165583746,0.30601552637161106,0.40537159049553323,0.4570176614973654,0.41571006204997807,0.07261042997471365,-0.2130480705612482,-0.31224344769764434,-0.33945144422309537,-0.3241267390787539,-0.2567052974041857,-0.11625676204414886,0.04922607220282176,0.14939140086411676,0.18448793246273662,0.18909900883555744,0.17652772456723034,0.15192281120915718,0.13116173870240166,0.1323663265587377,0.15068315252555084,0.14409772196878742,0.07414803836403246,-0.04923500001723923,-0.18259574207424487,-0.3143240356998673,-0.46790272664244215,-0.6680239555591749,-0.7301296802288655,-0.41311802787024265,-0.152542430068077,0.02191009108526607,0.17367744651848394,0.31053231901513706,0.42484455291896567,0.523648893404141,0.616178283926467,0.7124929535703737,0.8121147490008819,0.8875314358862798,0.9192020497964931,0.9200235371794169,0.9118649773094422,0.907197931859989,0.9073867045974603,0.9101068166719648,0.9136485299300163,0.9148434264878499,0.9063780081774059,0.8714458702302935,0.7675008805831244,0.4806788773925511,-0.0075555743569820115,-0.3572351362291287,-0.5077829461581465,-0.5614583202346598,-0.5745027487437006,-0.58603205287276,-0.6340866152640376,-0.7491647230761148,-0.748555172559949,-0.4962095871394207,-0.3511275355330665,-0.30824638396578835,-0.3267754231181361,-0.3940220073921135,-0.5029145522597183,-0.6365642702086254,-0.7650223128595386,-0.8596115955874438,-0.9144916747044376,-0.9395860236078489,-0.9471913323696035,-0.9399624635948043,-0.9051994186112029,-0.8252133642231722,-0.6953351596520169,-0.5208874463836332,-0.32981616627337795,-0.233925660759725,-0.2560966821410479,-0.31117997234521433,-0.35953598579955887,-0.40786381045456593,-0.484844246869042,-0.6027491775881183,-0.7168909630095895,-0.7867162071885246,-0.8146918831043202,-0.8122134216140122,-0.780507662237071,-0.7120600262794275,-0.5891827051119671,-0.38818228461356147,-0.11267494103567594,0.17822023835393133,0.41291609854966804,0.5696989931605355,0.6693758125868781,0.7393690242955064,0.7913789526572412,0.8256892091116197,0.8456308117799266,0.8589554409584295,0.8706517785013681,0.878144093017435,0.8720079663697279,0.8369315697782376,0.7439726037406641,0.5683642930470701,0.3695373132772657,0.2337136507100945,0.15736878882251368,0.11448375148216162,0.09187956927675209,0.08888998898448149,0.16885510674670537,0.18354352865607987,0.10175832527764528,0.10673413738511621,0.1332004756215385,0.18533596335131713,0.28798590041723043,0.47081742009816124,0.6287284020035407,0.6253102852907346,0.5838935938109302,0.5578743992781121,0.5498576236669606,0.5499375255270833,0.5453361982511097,0.528311109243935,0.5022857239311851,0.4714932793167479,0.4377764241066934,0.3940541881516835,0.33807765248753335,0.27701810846950403,0.22938003623280137,0.21064283084731797,0.22249492807107932,0.27124071891525353,0.35822981513058394,0.46153693522159284,0.5198586661686506,0.475290177739225,0.34005505543657355,0.1949600022173894,0.09720645007908665,0.07011238492889997,0.1076222318280478,0.15642945216455786,0.1878144531082059,0.1945822385400065,0.17022485696145506,0.10700784438301245,-0.013315894321193905,-0.21737036328225218,-0.5205280681703767,-0.7494543138078734,-0.7942729519442621,-0.783647817026867,-0.7662811980484687,-0.7422817881269417,-0.7141150777689311,-0.6903294373346488,-0.6802608560678128,-0.6791200599691835,-0.677915930506022,-0.6581228888423196,-0.6085392798847554,-0.5211741483372115,-0.39526250052784573,-0.2571939659091109,-0.15953529056101187,-0.11074911038069335,-0.10372102795653197,-0.1367522185353713,-0.21120924081680809,-0.3131092590391661,-0.4064314492235648,-0.40160401964375086,-0.2441593009956728,-0.10231009035012453,-0.07394117018290727,-0.18005651123968136,-0.46962664515677355,-0.650878050277804,-0.3849259350578392,-0.21512112829257946,-0.10944023954126593,-0.03443609431972213,0.019327678870606466,0.048513545111857126,0.040005163243709806,-0.0562129341950925,-0.5257453042654546,-0.44618133081956396,-0.14346368577366123,0.029856991732292858,0.10282420111840523,0.11239250272196247,0.0952751629201053,0.06544318664455863,0.015594972805844905,-0.05663287901442521,-0.06247894737447225,-0.02796784659087473,0.03151251977836879,0.11627161231543595,0.2131617735093021,0.29793879076275565,0.35143655712653604,0.3735783574314756,0.3632513036505377,0.32258886579441165,0.25861768442919414,0.18676178578645272,0.11925900067109199,0.06546353109731869,0.03407878063665662,0.06712901719932896,0.1307718182615882,0.11837224125304929,0.1253903910350236,0.1358268762580754,0.14938559157196082,0.17223834990946577,0.20773652272396462,0.2534756678985577,0.29962544692077064,0.3385140053650618,0.37357562965889785,0.415823989199859,0.47791171269545335,0.5656003940175565,0.6710512511395278,0.7738533760634426,0.8380548602574196,0.8127191924164476,0.6506814124433852,0.36323924839290433,0.040924740248370214,-0.2464599121538025,-0.48250777515732257,-0.6705067111530996,-0.804887157532502,-0.8843311869912232,-0.919263047985631,-0.926814401692444,-0.9132641416868995,-0.8665183141936089,-0.7637284927897752,-0.583662355885998,-0.31859928218297673,-0.043421401040637665,0.11162845489814331,0.14443226077817833,0.12250460245636388,0.09122730447659701,0.07070601547748603,0.0893681571276174,0.37370819657960874,0.24335510732173796,0.2031864844559465,0.21632207355848976,0.24899088650618897,0.2976535370937278,0.36350572529022385,0.4376379286085891,0.4882440724694168,0.4979032441261932,0.49213855571076975,0.4976410184768478,0.5129043747128755,0.5196328054311541,0.5074442672014534,0.5011280929316763,0.538704827147705,0.603287878072915,0.6657452753326341,0.7001492971320104,0.6982151777424445,0.6627984612498237,0.5939794359594799,0.45115050401105317,0.18369801193445504,-0.01855278398598842,-0.07745740132820955,-0.061108980218488866,-0.015935932919495684,0.006769567359429162,-0.04804927753433152,-0.1618781669736695,-0.28072080675925665,-0.3633492377414157,-0.41557025562977357,-0.45567351870786255,-0.5166801967006539,-0.6158108758582891,-0.7331387078488268,-0.8238776386855428,-0.8724851401677413,-0.8878726515975294,-0.8709229361773976,-0.7936420202220823,-0.5336946943746482,0.10420664957649924,0.6179854274438599,0.8076808310418416,0.8812606372796058,0.9142855555089842,0.9169479561230409,0.8809346538002243,0.8079267496274121,0.7218278236223722,0.627831889387538,0.491180750473993,0.2625668274718429,-0.038493866320291864,-0.28431796483032445,-0.4062535394280205,-0.43416093608889067,-0.4050397573048681,-0.341575068370117,-0.2624038121328593,-0.16716584778788085,-0.06130529038023578,0.03626129442675653,0.10410440545828609,0.13883666346000115,0.14789209873999498,0.1475295923782675,0.15472998934760196,0.1697156496424967,0.18216400630239415,0.17996365043498969,0.15963941168469387,0.10600925088751371,-0.02139702606500951,-0.23587320601130843,-0.4671879201185511,-0.6329489980885141,-0.7233735745721688,-0.7615949598348002,-0.7634267517946082,-0.7329592261409957,-0.6600014338733973,-0.5041179531019448,-0.20873343897598604,0.20118495145383006,0.5703243675196572,0.7833326159655747,0.85915505572477,0.8729218062342027,0.8676412594575891,0.856645779981595,0.8403901536528914,0.8177751164779826,0.783076218836924,0.7401639645902167,0.6968160614592405,0.6588627568986342,0.6267125707399288,0.5942030552679315,0.5633354072227202,0.542455209994367,0.5324818110989817,0.528068795725513,0.5176384203226517,0.4874715596182729,0.43845786005637355,0.4024270586969062,0.43314675516437634,0.46090382471710184,0.4686128867166123,0.4873840034767934,0.5150171617430791,0.5380915864714867,0.5447221046694053,0.5324229065327873,0.5114016961003623,0.5014229421991975,0.5204641111441881,0.5679667834333927,0.6274710861366997,0.6809098465138986,0.7226572996779077,0.7495089327804666,0.752135354236388,0.6966612521405566,0.4817380645231514,-0.16842134488603797,-0.37814085827653293,-0.30401882536540015,-0.21202229454550695,-0.13863318266226726,-0.09666053462850836,-0.1081702638569531,-0.1933307510205729,-0.3387024199825835,-0.5016362935429296,-0.6238756282544248,-0.6560853154875075,-0.6278785315392569,-0.5989690449456049,-0.5946677745576205,-0.6102341177068529,-0.6371686021941542,-0.6934738939941976,-0.8204990798074142,-0.8490199389604273,-0.49095242561749497,-0.2718513318309217,-0.1962360413308284,-0.18952992443259728,-0.21849425247969603,-0.26869582069993614,-0.3331503545381879,-0.3238048386428275,-0.0753119100524354,0.06413875429565041,0.11358660327475754,0.1226078540088166,0.10797353339322455,0.07746375098457682,0.04013058299938878,0.010249903851021954,0.0068754247828405664,0.040431881176579414,0.07485895133796824,0.07492665814558878,0.041299777609653456,-0.008967807793326357,-0.06875102331149202,-0.12901827588768092,-0.18313207822909508,-0.21623639179833834,-0.18700907621831303,-0.1361137332616424,-0.14316201568812809,-0.20984691525481972,-0.2789063015306599,-0.3245485242217267,-0.3544734729306531,-0.369757842264109,-0.37245739090729113,-0.36705462661870103,-0.35537491197335236,-0.34194253133863256,-0.3271953782608103,-0.30615615801587015,-0.27069785793890916,-0.2192435497046736,-0.16030569639723063,-0.10278259977785431,-0.03782116858186495,0.04686929646613468,0.15252826221641502,0.2599621068742733,0.35249147286313887,0.43184385865445707,0.5116059105874146,0.593366469876871,0.6711802674303345,0.7177724449244158,0.7242080909199845,0.7138608909549178,0.7010674504450156,0.687434300242278,0.6731833439009923,0.6676334033117014,0.6704907613336005,0.6744741050295201,0.6752556960046041,0.6805907639515456,0.6956878342935248,0.7131100187556437,0.7198048118680049,0.7031493063665758,0.6666359153064592,0.6198231167480286,0.5736886341843942,0.5287615161330682,0.4766246265842372,0.4035892624530125,0.3052200592236489,0.17287374796293017,0.007077100690998771,-0.1692247506130503,-0.31309748029402884,-0.39924375823817493,-0.426838716457215,-0.40570380921274635,-0.34026468105505187,-0.2459559425556356,-0.1428567370159198,-0.04766695445773102,0.028006320966160386,0.08626386154152255,0.12308620564101329,0.14097266225074775,0.16250441039953192,0.21013265321625468,0.29676508797856843,0.41285417970246946,0.5180931782136091,0.5897175477664752,0.6515460233577456,0.7340865329279415,0.809734295233819,0.8132222776275074,0.6945134219852502,0.5134858384824483,0.37323412028487196,0.29517558830068485,0.25709952120311425,0.23416815373348362,0.21673831159509785,0.21710796890699868,0.27700479186037474,0.5608897805196995,0.4409712542413324,0.23489514196608727,0.15577957875164478,0.09594691234093358,0.019339777514391,-0.12285412913877848,-0.4210228391724132,-0.7636995793152027,-0.8646219854274351,-0.8949898629536033,-0.922506776040093,-0.9283486585147268,-0.8959557128095745,-0.8396966877611933,-0.7872061350730406,-0.7487275519627201,-0.7180470588686805,-0.679346265184369,-0.6112674753059617,-0.4845008638838241,-0.2539150251434451,0.09245180535260213,0.4391109098924835,0.6606349409255743,0.7745273131439908,0.8316855696755752,0.852919190438558,0.846960331545007,0.8039984134605559,0.6736772527174577,0.4532836996312875,0.3087937386988803,0.3032312152616394,0.41506687104742057,0.5682061081550606,0.6690265477848392,0.6900646718515211,0.6426956800927478,0.5575628490900421,0.48294234857140883,0.43877546477507084,0.418356196978233,0.41347761125436056,0.41654481046773395,0.4223907208899571,0.43504116366253864,0.4626130678076595,0.4972496023575005,0.5302451020299442,0.5474439069584768,0.5451657295792929,0.531936834633829,0.5324885776741252,0.575815831573326,0.666574761709524,0.7671858027063525,0.8439749900998392,0.8928307896583836,0.9256728085958179,0.9477692677809859,0.9548999011119239,0.9361172055588767,0.8815569023693426,0.7850059708408486,0.6559424261155175,0.5259539522111151,0.41302450523852063,0.30128541971269224,0.1458861553390102,-0.10227743783835849,-0.4109317482329923,-0.6617944636108916,-0.8076977031008169,-0.8835230054676579,-0.9247394872627999,-0.9475203230863315,-0.9593837537655401,-0.9651175780855019,-0.9664868016651119,-0.9633405005267826,-0.9548668625307495,-0.938521974949235,-0.9095354900447434,-0.862411731255219,-0.8033052723417793,-0.7527604650400682,-0.7274726644111693,-0.7158123533107749,-0.6791814693658089,-0.5728890490285588,-0.3637912411926604,-0.09044952170369093,0.11713448276835853,0.19997584558712428,0.2007126109754066,0.16899884729801895,0.13580865066844752,0.12356396415307563,0.16322615648765995,0.3306319637742452,0.5513249841159001,0.4648801393752641,0.41769634378642867,0.42330069272740833,0.43520000464734915,0.40571373370410524,0.33813642045387915,0.2628010938727568,0.18707048669783466,0.09471198320692367,-0.04352364130086011,-0.2473025255327223,-0.4756332796019468,-0.6410105398035035,-0.71806130082047,-0.7295776135812833,-0.6881463372580343,-0.5844938404782927,-0.38457057866846456,-0.08775117165943616,0.20802353292009937,0.40797381357136964,0.48961705378324494,0.4974425146645896,0.5217553274813544,0.5964573397166256,0.6692025610657598,0.7006705832221264,0.7113702447399637,0.715105309735796,0.7041985375037305,0.6798743010518009,0.6517132606205226,0.6262659456787574,0.6007606222282061,0.5740411980054915,0.5497021437801128,0.5227766030945193,0.4835052920961529,0.4389327792148738,0.41077839452639586,0.4117092701751132,0.43794047946097486,0.4751731514093604,0.5152399186173428,0.5556188014504799,0.5852777922587787,0.6039954093861944,0.6119240570692714,0.6138953853018931,0.603929795480489,0.5749416772926069,0.5254346232255429,0.4629070233273815,0.407368900673033,0.36652467587484083,0.3396280091869143,0.3149649055162515,0.2798278276296214,0.23251274729640828,0.18326708029793795,0.13602058300162603,0.09586783576983803,0.06847444986566216,0.03645227394579768,-0.0025088719252723927,-0.030741856224835197,-0.04042519453748276,-0.03828806783500654,-0.04608816632242108,-0.07851340102675924,-0.12934366242666995,-0.18952296884567968,-0.24059973144437113,-0.27141401267684456,-0.278478658373568,-0.2712122493860955,-0.25403178206046384,-0.23219698592953417,-0.20220605888798904,-0.1503460792246884,-0.08995037207242884,-0.04893817939541869,-0.0484315629557934,-0.12409784696399236,-0.3173164286790978,-0.5772091590060232,-0.5724338871265056,-0.3668742247706955,-0.1944847590914433,-0.08452699510705097,-0.02967338579460729,-0.013890261636749704,-0.0214638691953033,-0.04418970915348971,-0.0741236524019172,-0.10729057420258474,-0.14880452269617106,-0.20530261167355623,-0.28736583551621175,-0.4031066947059138,-0.5313606825242104,-0.6117184725322001,-0.6234892350896168,-0.601986246921441,-0.5744165789971243,-0.5471854506163196,-0.5215159452289044,-0.5087743238843206,-0.5204798065119469,-0.550196608350942,-0.5860642950988094,-0.6287596587464348,-0.6741808799795694,-0.7077753697131254,-0.714246555947138,-0.6841786317172964,-0.6097295975596347,-0.49460830974341286,-0.3638647579055437,-0.2622329772138389,-0.22595907157785747,-0.26208183471124985,-0.33294752087513235,-0.3613416549821123,-0.3177804992593119,-0.22826633442141486,-0.1175103465215948,-0.01801605652272642,0.056720170436888,0.10791479922883677,0.162174986670858,0.2384875709109808,0.31965354155897197,0.322272124405958,0.27471336869318996,0.23621937440757126,0.2225430772262272,0.23140963885313598,0.2552205818563593,0.2955197291453936,0.3609147911860401,0.448675037458419,0.5311076882822259,0.5895110709963893,0.6238189365921565,0.6451514394410135,0.6565899105776686,0.6608790867509469,0.6557347177953106,0.6351296824429982,0.6031846600383408,0.5656545157754477,0.5202606343680252,0.4733726284554385,0.44633358129441447,0.43587751374264583,0.4186427556395685,0.35871796583803145,0.22787301070059388,0.031923570769553836,-0.1809619020124772,-0.3463259271276722,-0.44833160990657855,-0.5040038705570273,-0.5299431176897155,-0.5225921651084665,-0.47552317232656643,-0.40753774561627243
