-0.564329128510929,-0.43983880169415424,-0.2799058489767368,-0.13571269843073874,-0.025691795566513475,0.05865088589092543,0.12697599058166611,0.176500891967441,0.20797716406805,0.21762921349372674,0.1844061421356708,0.05405551567450071,-0.12842944789450378,-0.22231122308737594,-0.28451879495362603,-0.35309794459230437,-0.43863547134026165,-0.5420637721320379,-0.6405410490927342,-0.6588969817943126,-0.552096944689673,-0.42977926626001733,-0.36441854979335403,-0.3514654645825566,-0.37074737713186817,-0.39631864609263656,-0.3947383637067639,-0.3104706347048736,-0.08206235366369222,0.22087283219366396,0.42893071268236643,0.4465681052073444,0.35406030171950037,0.333297109591858,0.4110419458339243,0.5165818855990528,0.5584465222815346,0.5737641424711899,0.6109231254306461,0.675720630956795,0.7522186474504192,0.8145362674648935,0.8277412812472416,0.7569402619350777,0.5953256539980165,0.39773838365984937,0.2356068341454399,0.13905972865373017,0.10059870421229765,0.12781185115878016,0.17746371827364762,0.15966551188927594,0.155114285535999,0.16242883692218407,0.17165988915204639,0.17394980751949496,0.15501178910697164,0.09730624022168238,-0.014589486854400535,-0.16709664782746297,-0.3023401114764301,-0.3794058971474838,-0.39974057168494226,-0.3706193131752438,-0.3120689905602742,-0.2677402994787868,-0.24547142505762024,-0.213473717018118,-0.1697968675845046,-0.13856002265710468,-0.143415030206929,-0.21177799414299528,-0.44682038453074935,-0.7322893590805254,-0.2970675549169601,0.0020780282427196738,0.32500310069705596,0.6639813983585876,0.8572993390860721,0.9079311480328192,0.8967775637819753,0.8426489407630932,0.7267364738811622,0.5448592349684824,0.3499515236281737,0.19138474430097374,0.07384105706449375,-0.013533301657547122,-0.07870950504312778,-0.1309262607511417,-0.19101390284793418,-0.3294111273726173,-0.7117767006714348,-0.1299625218942204,-0.031144913203195002,0.0015576929717434924,0.00951769267380244,0.001966756559737351,-0.01942310798665218,-0.05409507052391755,-0.09569807495684582,-0.1356976475492352,-0.17476019334368245,-0.23113839615467816,-0.3328056758609161,-0.48916204852752226,-0.6592434769306965,-0.7901484715040814,-0.8670060180344296,-0.9080400901094507,-0.9296049586646971,-0.9394588824445441,-0.9402480759127156,-0.9305838066478557,-0.8952617860029313,-0.790028253507315,-0.5523357053284779,-0.20133492155217797,0.11461363946174344,0.3211683642951303,0.44553818066850703,0.5292536460481982,0.586320996826491,0.6180012541544537,0.6242025713747974,0.6072100698568615,0.5653294155448647,0.505875096430813,0.44372047025941797,0.38141219349613076,0.31397266733485824,0.22866789303280044,0.12698618261063138,0.032121493213821205,-0.02929064048529032,-0.03514673958859553,0.022503164566879244,0.11079206476770352,0.14191308077013526,0.07183755356215574,-0.08342496893493154,-0.26117222921565114,-0.4012955668173074,-0.46105617794583015,-0.4123654939814894,-0.23878908307139224,0.013946379624391572,0.24670518390263074,0.41208700977447565,0.5140701982614737,0.5566368724760236,0.5495723306553101,0.5101950217283681,0.4525957614617317,0.3819717717254649,0.31036092357454287,0.24627345781541474,0.19093176947647605,0.15953053739985615,0.16459930672341375,0.21127664043343639,0.2813766686566083,0.3345670881193263,0.34125697632037766,0.28637035510496,0.1488071880254017,-0.04738520745697048,-0.20991864573437422,-0.2991184960622997,-0.3332836614393351,-0.3427511679633863,-0.34782381726452555,-0.35109138779763954,-0.33827726239323197,-0.28965419238649803,-0.17746170607866926,0.0498304790348239,0.3874237749640493,0.6672729788111036,0.8090039500622475,0.8698581596472682,0.8886011107596171,0.8702989670146594,0.7894585121534938,0.5892907605613493,0.2902039835118959,0.04376439363999139,-0.086097874303094,-0.12873620417047463,-0.11321430420752977,-0.06776359189340729,-0.030244728124384904,-0.056262924181238017,-0.16412860357212739,-0.28246575622712744,-0.3635264172968494,-0.36783744054844497,-0.15069260946363305,0.14912144360849744,0.2859206517519385,0.3279240122704296,0.32212019181737367,0.2883601980486228,0.2264602876842037,0.1293791292219575,0.008508542412734582,-0.09964620334925862,-0.1527195983318964,-0.14681372610808846,-0.09796318083675827,-0.03297696210117168,0.026617904209524347,0.07024380971130986,0.09541806985980393,0.09730531812009263,0.08340984491855859,0.07799490598027306,0.10394179741228673,0.15979966796340553,0.22280633151989246,0.26582706228286257,0.2757713983130178,0.25714120354271347,0.2343918708858046,0.22246221720474713,0.23215747540149478,0.2565743765754054,0.2855783052219749,0.31643976428582177,0.34016009222281185,0.3486656477058495,0.3412609070469632,0.2921559697874176,0.17459365176120917,-0.005419125770114823,-0.2218341793685897,-0.4475353312487491,-0.6389304548374065,-0.7684598790545825,-0.8419867882450506,-0.8754754718687844,-0.8753152571028882,-0.843730541439968,-0.7802976525250394,-0.6923994095420424,-0.5940565412687668,-0.49629992301541886,-0.4143799364811716,-0.3691865742589866,-0.37508842069852244,-0.4231545621864341,-0.46888804340478957,-0.48761008586092586,-0.4938829246525053,-0.4956341231802454,-0.48912368394882805,-0.47169396330503893,-0.45674880511541127,-0.45835522910026827,-0.4609851880433157,-0.4378021345572512,-0.3782825212403563,-0.2833547542814699,-0.1585528513933606,-0.00712293770212347,0.16546678876137086,0.35004492763000455,0.5167048600736373,0.6254323486035333,0.6737243017337746,0.6980114338531823,0.7172369307174978,0.7211756074012209,0.6928097237674458,0.6517240033292603,0.631665657910985,0.6372931838032947,0.6525343400265002,0.6685147983871891,0.6892897411410895,0.7093752286564843,0.7122053800558886,0.6731069265559204,0.5781232206334798,0.44544830443179056,0.318072578465638,0.23230476983754522,0.20662495843345008,0.23655007728656519,0.2926225549636137,0.3385713775797001,0.35076469948617406,0.3260777080137278,0.27775391664832527,0.22612294296946972,0.1900872724712712,0.18156178665910072,0.20758859162374602,0.2600794837202335,0.3029051186285188,0.31345460170128975,0.30210994127022917,0.28366461546796823,0.2585336211872773,0.21671634185606986,0.16006789965563062,0.10002159627359523,0.06563833900566478,0.06850473270444354,0.11441881422778546,0.19631047752611427,0.29718641411968116,0.38688909968704066,0.4234052689751024,0.3934562402737218,0.3267132844304573,0.26296608441872305,0.23589595341765657,0.24693435016020338,0.2737380352357904,0.2948233892914677,0.2876978609880074,0.23226738108802103,0.10839764100165661,-0.08151975376860555,-0.29590240019808783,-0.47514240283520687,-0.5895846324060542,-0.644565154460057,-0.6586792801804598,-0.6464131962419026,-0.6136891108828432,-0.5687007770630731,-0.5217156472978299,-0.4788879096327956,-0.4458588893475224,-0.4136446310251578,-0.3471873625614347,-0.2714096650100815,-0.2110436382600495,-0.14927874328167018,-0.05918853341278071,0.07961664917410764,0.2517298850801663,0.38443862605282897,0.42977153879992036,0.402606618572134,0.36161038534806517,0.37888005022873333,0.5028248604283642,0.6735420167665171,0.7766787632675064,0.8219050721110741,0.8485980070334973,0.8556985243562064,0.824391282941583,0.7602421562771359,0.6997474727493066,0.6636190235843934,0.6558399396916753,0.6165424546963453,0.49634709435269986,0.38176404248421836,0.32831937915583187,0.34278424722828327,0.422541272706209,0.5510712414751434,0.6791492354649427,0.7120711436511059,0.5879427892683847,0.4216648956628342,0.29585404054126646,0.20813190316793423,0.14755009304426495,0.10091612762319818,0.05322148256284485,-0.005491421850380909,-0.057162436839267486,-0.12039360640946963,-0.17377150510035758,-0.1803158288206568,-0.16194227899602676,-0.1368314262749678,-0.11096958928657069,-0.08460946508536382,-0.055738003571457424,-0.02282724447972984,0.016415319866863683,0.06647037240238662,0.12264447653543961,0.1462181813763379,0.10554004920524136,0.03425315085411497,-0.04305547782853647,-0.13619512899870556,-0.2612083531357374,-0.4294646484336357,-0.5340240138417439,-0.37892637436025445,-0.20442505668942013,-0.08686251318228014,-0.0040878828336223215,0.05449003029206377,0.08809570078040616,0.09237379633182581,0.058779024034902844,-0.021379473566358713,-0.14839757032777393,-0.2835977399601843,-0.3564220033611252,-0.35665236889425017,-0.31876682225151454,-0.2753318922315088,-0.2349454701601007,-0.18697664895491056,-0.06989523084527909,0.09598823375597201,0.17136341890886256,0.21651130656824388,0.27276860644358114,0.3548246086575439,0.46152834580830815,0.5794561242226399,0.6816490133835689,0.7392866983449812,0.7308341646276499,0.6414016843205411,0.4633890977429633,0.20090817086654625,-0.13560129655851982,-0.46435594013615683,-0.6759924185807302,-0.7611960360578685,-0.7578972847307957,-0.668206979479924,-0.4453824551578968,-0.07451004345293717,0.23948398405139212,0.36966192110699075,0.3676248531551735,0.28884683976835507,0.17769752627101698,0.06928307404002042,-0.03535210400356535,-0.13798894014485652,-0.2119605514600408,-0.21644194062319463,-0.0987230251440489,0.13504689357243366,0.34006395535720774,0.40924452044200366,0.32729571242801164,0.09279114800784438,-0.2110144451582735,-0.4275016292245809,-0.5138793845808906,-0.48996518112255805,-0.3738149845191785,-0.22585310469634798,-0.1121622666588305,-0.03963628688364393,0.006163372027158452,0.03857502910105388,0.07699389413671452,0.13097772707641167,0.04552998883682152,0.005716774622976414,-0.007186285303568139,0.002086415403291583,0.04484987996489467,0.13891471292599,0.2718979455182059,0.389024660855611,0.4536589400466092,0.4432516864568059,0.28474193731981134,-0.1484834863633385,-0.6048556801124645,-0.7617596844247156,-0.762532438493009,-0.6791446711873065,-0.5382514608091793,-0.3705740208504861,-0.19097780170182466,-0.13475936991632487,-0.16095360621939192,-0.24128155280441638,-0.44987264886237344,-0.6090471335887395,-0.26112844375873273,-0.1530057552508932,-0.1323066063781998,-0.1580133412199446,-0.21888352626300842,-0.28724380328767335,-0.28227184404034117,-0.2001526230258805,-0.13961410435344046,-0.1640065779025136,-0.2674821274549605,-0.3827900840878997,-0.43772285593489296,-0.42122712236346094,-0.3359194323582504,-0.173088315586471,0.055140448106923326,0.29382271816893796,0.48105210690103023,0.5929474888662807,0.646585306526258,0.6739489153702054,0.6994630084233409,0.7270201291139844,0.7379201927948437,0.7263411519899072,0.7140454130070509,0.7181106365894473,0.7501585145902853,0.7983517978834541,0.8217294716181899,0.8031848409895305,0.7525666957248581,0.6836386047431482,0.607928937089768,0.5234317897886328,0.4208595088377066,0.31431187901103164,0.23461729509563514,0.20704431827434377,0.23954831250921996,0.3163677886875344,0.4048416723659537,0.4715553867842024,0.5006180119958962,0.49064948394360763,0.45348822422783364,0.41019626991244446,0.36947726254092517,0.3368267895346473,0.318141253384685,0.31543667482457766,0.32452514871472077,0.3327195996962378,0.33018532330079825,0.31704955750493,0.2993394437197489,0.2795428487315657,0.25783651137261576,0.22738658706929488,0.1850704993767855,0.13738854304619003,0.10431171621699867,0.09530918441521596,0.09796549573261994,0.0918330814677379,0.07232131994401342,0.04468958531234716,0.007890344674658737,-0.04012806461694225,-0.09732937684582875,-0.16193146207643605,-0.22407313737396262,-0.26166543649175117,-0.26980214728412283,-0.260239691317218,-0.2558027841997579,-0.2676801040213352,-0.29516917711678736,-0.3255267598961064,-0.3302931591185279,-0.29190601359084406,-0.24525819597020174,-0.21449049095920728,-0.20351904913740762,-0.2136745203402672,-0.24026153673982845,-0.27921376549436194,-0.31950951246417647,-0.35020612495618364,-0.36768806237025137,-0.3736865649152512,-0.37120639718960735,-0.3600022470175456,-0.3365351897396136,-0.3003082101504546,-0.24769388325149064,-0.18014931161729025,-0.10378989493097328,-0.03461341046128161,-0.010123780510797068,-0.038245801524065995,-0.08420419138158364,-0.10623402505918676,-0.048266427914161476,0.14665311817420143,0.3679333125708893,0.42566263961758893,0.377578829911406,0.2746808557466605,0.1442146638168896,0.019263832939889165,-0.07354995612574898,-0.13954695400150668,-0.18581957558784315,-0.20723313701817364,-0.19665611409545627,-0.15999717888340043,-0.10112599444337989,-0.03909778992845343,0.00501455237783706,0.02342905894828536,0.02751873303081283,0.03456036379972006,0.06529801057015791,0.12547590851276982,0.2065867751265218,0.28408496931949334,0.3385530629831218,0.3674395443884446,0.3863396034071213,0.40878182215237924,0.4366277140923094,0.4678524871743634,0.49562393126806037,0.5068972625412539,0.4977087479569081,0.4640421761721346,0.39378469656778897,0.2647784258448826,0.07991437977460382,-0.09960943895401336,-0.21377220863682017,-0.2868899906695471,-0.3537718717511592,-0.39971289552160416,-0.38317737067180063,-0.2898044985381256,-0.14901621566502135,-0.005812490094952032,0.11690049345166616,0.19849045702159387,0.2294224650259551,0.21828508258534085,0.18856148064379652,0.16029844537175786,0.13957801399931244,0.11701989543664013,0.08137385231687391,0.01411913482278139,-0.09093357816928978,-0.21097396211664532,-0.31193414452274815,-0.38375692793265864,-0.4351919160384488,-0.47807081070463975,-0.5267728159510944,-0.5925656514639475,-0.6676176272119174,-0.7246061357355077,-0.7452088524758731,-0.7245370830588691,-0.652951206065783,-0.5093986947515425,-0.2781791112458023,0.005648733409317824,0.2567146241352434,0.4418142340706459,0.5706916419680712,0.6613198481089486,0.6372128918753397,0.5470372856561189,0.6089181672226565,0.7292647166442384,0.8258391831899876,0.8903854183167785,0.9301723770761007,0.9509810370125634,0.9569501999701455,0.9489012821454529,0.9209017391227731,0.8612660385139632,0.7736792098495631,0.676988205892921,0.5833019150333449,0.4961968878830799,0.40831514038121336,0.31463322811105315,0.22432086839552753,0.14552396426545788,0.07571969762939977,-0.004389949262269369,-0.08945093577404271,-0.16155098961826067,-0.22491554484387588,-0.2720712058539695,-0.28118798040582593,-0.25898983668807374,-0.22096847444802098,-0.1832447931752218,-0.15921234062140166,-0.16718486173538538,-0.2111414107317348,-0.27396900760537396,-0.3300022694193166,-0.36844262379137843,-0.3923879010885703,-0.39829236189207096,-0.36238468026991805,-0.2656769624228858,-0.14428083069022477,-0.05713564451849988,0.010524088383813782,0.0961462105922117,0.18678063887111218,0.2553121357029641,0.29253157072687463,0.31843214662731034,0.34443299888698575,0.35241116149887236,0.29911848398557866,0.14428388006188098,-0.0702579449855502,-0.2660748173623394,-0.4064660179597507,-0.48648731953760277,-0.5135883035411115,-0.5126610819466085,-0.4978977388009745,-0.46722616695197294,-0.4159477005799279,-0.35162618151278,-0.2997602059128332,-0.2701805547876892,-0.23666578054998672,-0.20580267195687654,-0.18193070868882427,-0.15743878501335476,-0.158436533380972,-0.23082409581758223,-0.38121946610520485,-0.545455084741847,-0.6632988825646343,-0.7220131261207302,-0.7311078198464571,-0.6912524888136884,-0.594587154612131,-0.42821481532837746,-0.17634192520580594,0.12500453521976343,0.33816645355722663,0.42004709264041495,0.44471013893261585,0.46971322781063546,0.5169767636722394,0.5915472717917898,0.702572229988111,0.816334570393367,0.7278813156853712,0.5310134654874173,0.4604490910483205,0.4848017171272798,0.5064837212466065,0.47597181530263316,0.4283500920444114,0.4036509369637222,0.41735526749500274,0.45753491430978704,0.49295371711941466,0.49803230946720306,0.4744240904887378,0.44372161888119493,0.4162690056425344,0.37569018046308894,0.302053623840542,0.21794157118786794,0.17329487379183456,0.2245990753618949,0.3049428330305808,0.21416247576490857,0.18521393447208712,0.18783230262174155,0.21338184761229514,0.26395359773360205,0.2907966059960248,0.17083353161528447,0.023106077568863043,-0.11183517596564509,-0.2695685098576862,-0.5102999495437539,-0.8086988304110824,-0.5921726416124677,-0.2898049694694726,-0.12156349784064505,-0.01860120048798143,0.048757171063534464,0.08927947663553461,0.1019876712866137,0.08272149424132853,0.020203171292054956,-0.1012676953024425,-0.27247817502725186,-0.39211014264705396,-0.4161987257617958,-0.3924939959546345,-0.3520096305417908,-0.30104832780910107,-0.23913124540711111,-0.17274832094462825,-0.1185216083081441,-0.08822125201833045,-0.08661546805627976,-0.11437094738903496,-0.15371140684261816,-0.19560865898992302,-0.21356911609661677,-0.16831070233487805,-0.009203521800087844,0.18112189268814002,0.27043826691994394,0.2769343256387544,0.2559308518435571,0.23442337694302717,0.20400255056004682,0.11155734365695086,-0.0637883436482594,-0.19006955281955526,-0.2445096686188877,-0.26526340079514465,-0.2701936116948468,-0.2622108129872869,-0.23554981977448008,-0.17917452819346327,-0.07698300544127458,0.08597936091481494,0.29751929005561395,0.5088702564818757,0.670596596537812,0.7634210688767415,0.8083027035832804,0.8252896470711389,0.8233532537374891,0.7995670126170314,0.7361356104712172,0.6176556501476566,0.479241700008021,0.39474982295969113,0.39142770278191336,0.43621171928614016,0.4657470764825016,0.4304145538084996,0.31851443262451773,0.16838244747460604,0.03627449512656144,-0.04085728903616291,-0.05711035805697043,-0.033123569115859605,-0.013105360492214571,-0.024683821669256954,-0.06974946540779044,-0.1652529687623357,-0.36033829231619746,-0.3016174435496791,-0.15939546453843328,-0.088971148009672,-0.050140827955180066,-0.028555446643881415,-0.019840585386433615,-0.0313134831830847,-0.08192792159675924,-0.21663929376775276,-0.6081011218010726,-0.5763878727119879,-0.33444438728479503,-0.25480863563084993,-0.2576236313573375,-0.36009689781593524,-0.7450863187323419,-0.39735037062376666,-0.1800529126357035,-0.11064513977747173,-0.08620745448604776,-0.08979292074617974,-0.12979302241642016,-0.2238488482841643,-0.3641557553042674,-0.48645093781089405,-0.529742470456345,-0.4981174685901312,-0.41197944943176057,-0.29875018096959366,-0.19593978316474422,-0.12053932032621917,-0.05850821533790403,0.010286379658922547,0.09579808902442513,0.18674202804286363,0.25856694910378086,0.27865273510457805,0.2301109436336853,0.12590866666122955,0.023073632457103203,-0.036906934791407914,-0.037610888031540876,0.025930310347207046,0.1460437972569679,0.28661813716694423,0.4048379422454111,0.4758188755693911,0.46202516913065816,0.3916649465869478,0.36437430955301126,0.42452386193459946,0.5724079851332003,0.7555242078058012,0.8908675445878893,0.9561518047210137,0.9778917647420149,0.9780602567068046,0.9621180176623966,0.9170456367131659,0.7998905796111572,0.5277097949551897,0.047185324454932995,-0.39096307925629764,-0.5633117055523181,-0.5760780680606135,-0.525652424067977,-0.4593217230433269,-0.3972266981227945,-0.3420883469621764,-0.28881644118317357,-0.22583299025162135,-0.14343401231819422,-0.0459799757703169,0.045103278459557444,0.10886182505473994,0.1410375618219683,0.14453664440468442,0.131955706266974,0.11674202995257732,0.10801404330386723,0.10190732349554943,0.08367277134634273,0.05183335980196373,0.013720119910275346,-0.021169502614495312,-0.044765742524938694,-0.05351242411460141,-0.04286728072368119,-0.006072122849181741,0.0543049597658485,0.10511228398548254,0.13122026218356284,0.14822074770895963,0.1660927058678641,0.18510902625681083,0.1994240766891276,0.19659475099253285,0.16590449255839956,0.11102791375813072,0.04829945296200817,-0.00857390851154487,-0.049744978399522445,-0.07166332549028004,-0.0720753676267967,-0.04718421399092351,-0.0012974501718962556,0.04241619176546481,0.04853644254506045,0.022685717528025,-0.021681201365300426,-0.06884330977984572,-0.10778877003221686,-0.1365251425753455,-0.15670435227139917,-0.15622707442121073,-0.13914957854138654,-0.12560924923966837,-0.13168385478032116,-0.17463132181787577,-0.26236489411599345,-0.38063456349543395,-0.5023688597837863,-0.6110456350313059,-0.7107514465064069,-0.7992621522763332,-0.8646301674059809,-0.9023913203237746,-0.9163175492371579,-0.9107940180402,-0.8842668916399062,-0.8375642747905364,-0.7774777731403886,-0.7045629176435394,-0.6136471253235262,-0.48393648325224153,-0.2908972090903476,-0.027840016270185338,0.24861687123521006,0.4594662341272314,0.5820339253211877,0.6544142605426142,0.7040793768431215,0.7341661071111336,0.7457595456977913,0.7443798352656015,0.7348280236088091,0.7235725499401452,0.7186687527637167,0.7204051148722641,0.7245862679176198,0.7281997246164456,0.7272195929106249,0.7147753474136714,0.6834854658757851,0.6277232359506926,0.560351061840165,0.5049265581346172,0.4652061025150597,0.42455005519162853,0.37946952414957125,0.3262922506604119,0.26368115479447857,0.22031858373907562,0.23589283569917857,0.24528691892353185,0.187861187578639,0.16075783450032366,0.15345701320378446,0.15701806420532458,0.16954772650916425,0.18836319786731553,0.20685465567630132,0.22850703706514724,0.2676203446447843,0.25326318488169686,0.0980433039405436,-0.006370421638935244,-0.08507270883953216,-0.14012614589773667,-0.16068926219567328,-0.1577750027288204,-0.14775659832167223,-0.13455618257079566,-0.12723491584612237,-0.14060187229170676,-0.1799813074279159,-0.23564213732514006,-0.29264949348209274,-0.3353196825712243,-0.34315020222191017,-0.3048590403348491,-0.23118293167386195,-0.14278422270342206,-0.05979878928411877,0.006652393069686214,0.0618566329865929,0.0986972055955448,0.08672184070328819,0.004322011118980309,-0.0940646463107353,-0.15891537864852878,-0.19670899594291386,-0.21919730383550648,-0.22512109000636168,-0.20359933936597333,-0.14339922573232847,-0.06435526835488789,-0.022719421456059537,-0.01801181454176318,-0.027311184411537865,-0.03834978920800708,0.009285270757106119,0.029781055816122483,0.026763597421105168,0.01606934305300146,0.002082678774665317,-0.01465688501651314,-0.03292625002953578,-0.0018144537291318985,0.10448813625583799,0.21107725227917407,0.2954632403295956,0.3184914407499537,0.29309398818368204,0.2396963460395383,0.164570534425794,0.07979485804281831,0.002279867005252578,-0.0626446460522315,-0.10987433297483826,-0.13031111557523137,-0.11020305472258254,-0.04403525927774694,0.06145659851793243,0.1839060038848704,0.2912714063910834,0.37512950208403834,0.44209397896202773,0.5027401765767865,0.569724859534771,0.6448567303573037,0.7162737961889863,0.7639519392803155,0.7812482009047031,0.7776375272089655,0.7625071430613024,0.7083720470528384,0.4330324741882688,-0.3976980453435394,-0.7946900234356368,-0.8839158214771571,-0.8813040800477411,-0.7977692879198677,-0.6159184364499503,-0.37815268638307037,-0.19772317315519994,-0.11748595568483948,-0.12054625972580806,-0.18506053802461037,-0.2933548139954579,-0.41262727424961265,-0.4671149178690021,-0.4116096507888482,-0.32080509298817816,-0.25316996395825514,-0.2249520581205211,-0.22970761087719183,-0.2658490629970291,-0.3331180242126148,-0.40749811983252077,-0.34641727043252263,-0.21609532778887958,-0.14719784032179786,-0.12696018516860505,-0.14295406217195802,-0.1905838143069888,-0.2602113294772396,-0.32920781315419073,-0.3822936030333953,-0.4265821855007085,-0.46766181508262344,-0.4834702360849072,-0.4631267925822744,-0.4298917341337322,-0.40106770503270506,-0.37729867540293094,-0.35341768005236746,-0.322505662003021,-0.27875082507167065,-0.21388092957209337,-0.12893556465767766,-0.05279384319342862,-0.002940878334986081,0.04751514401902868,0.12896934543955477,0.24696154881158466,0.3760379421613416,0.4871607180673681,0.5703526219124997,0.6304831087222814,0.682506740575264,0.7438140530658751,0.8176483633782159,0.877894772038806,0.8915023512699962,0.8711230904947878,0.838319165342153,0.7939116343866032,0.7313361687310593,0.64762368439553,0.5492768590059465,0.4500275492078406,0.36557083439315274,0.30400798545397584,0.265175891175513,0.2338540300214543,0.19444460957758017,0.14503472513247223,0.08974350688338724,0.018145054543849206,-0.09362523038362332,-0.21938509871145573,-0.2803221276064778,-0.3186672790107214,-0.3809208252379253,-0.51076258908627,-0.6863169819877935,-0.7911123165363277,-0.8420899920640182,-0.8720479868044552,-0.8885777306879555,-0.8840698659151565,-0.8330801243004601,-0.7181948355736553,-0.5714441385786853,-0.4522979221909062,-0.39322444590623584,-0.38108478366113974,-0.390552989546548,-0.41193093408810566,-0.4428365589114251,-0.46669695609934836,-0.46541956087318803,-0.439414682202952,-0.4025545306861917,-0.3653891086710494,-0.33320347733033084,-0.30893760065227144,-0.2913573701609949,-0.27838140049253035,-0.2675374441285356,-0.25616743080166354,-0.24783336415028498,-0.24086815695776587,-0.22402246926323982,-0.1942383931858981,-0.1520659990510126,-0.10109183755195002,-0.048868013585636,-0.004976829870251248,0.021607104790509306,0.029598741521472707,0.021645308657675565,0.019566069119623233,0.041403544092101896,0.08629775329067374,0.14844094614366038,0.21461314941714088,0.2716710291624138,0.3014256971444797,0.3178445753386878,0.3614000788638323,0.49936934891556106,0.8353853356546264,0.7207169162173046,0.4611548009924206,0.3615357410245698,0.3257471535600612,0.3231564543375522,0.3455503925680706,0.3784443331411561,0.2971271647477373,0.18467216483718138,0.16602034094174573,0.1821147373078642,0.19864293114064796,0.20275348427426368,0.19532360328085846,0.1953841384446819,0.21074267886954787,0.23487686238528677,0.2527525143604508,0.24727485875772304,0.20477994000869806,0.11582647308926489,-0.019385565820877484,-0.1888772912531386,-0.36733494529719757,-0.5106199968106433,-0.5770751063613315,-0.559199565212175,-0.47096560243615476,-0.34701621210372197,-0.2324864984204051,-0.15392390420811702,-0.11428952457407895,-0.10661230770440268,-0.09646050476432023,0.07396163396512144,0.11980385695990203,0.1629807680219932,0.2114640370897813,0.2634308254811409,0.3049984320838163,0.3051604769025213,0.20113562955726427,-0.06158955965312789,-0.36419402474343926,-0.5245718701476637,-0.5473594822085726,-0.4739224034354818,-0.3470683622541301,-0.22152900329340566,-0.14304555364290497,-0.09847406573612427,-0.07277077317188066,-0.0601150756349419,-0.05222387478716627,-0.034455489166838923,-0.0013224528790584153,0.02917745516813263,0.049212408626420706,0.07058406746146308,0.1145778962965171,0.16825304658497395,0.20783737385681766,0.21627439533876297,0.18838025713601358,0.12619972617810424,0.05244838555602297,-0.009538167373448153,-0.04282117659155496,-0.04903757783957869,-0.043286679147261614,-0.03131791315700906,-0.008223352848918428,0.023745898332872082,0.060110803601885844,0.10663652624852828,0.16164128451994123,0.23911670663588153,0.35683866853100055,0.5152350744859759,0.6695040171545116,0.7544060451252041,0.7740851488522243,0.7604077577357974,0.7383502327495103,0.7116600293781503,0.6728311738063623,0.6197315841139668,0.5581991634403277,0.5000896172726639,0.4528459347904352,0.40742750721724913,0.3496455125140404,0.28403345398664287,0.21932126390312034,0.16365656515138358,0.132325997043233,0.13335118568284307,0.15627569740626926,0.18508166187919603,0.20893695521680547,0.2292626658001084,0.2656958578873755,0.3217689753852604,0.38863826083881425,0.4529705821972031,0.4933608364125636,0.504577157790043,0.4916848240621422,0.4389838489043097,0.3041338457478684,0.04831680673034493,-0.24420619836442806,-0.39970943961078614,-0.4126815798646885,-0.394607311101193,-0.4338851960785447,-0.5844061956836817,-0.7635412644747145,-0.7957338686321389,-0.7809271137413373,-0.7821091709892498,-0.7798284045055061,-0.7337875174835826,-0.630406922074957,-0.5072060038329574,-0.4201993665312253,-0.39542384110457846,-0.4254665591274104,-0.49021797554855934,-0.5643073559815546,-0.6180945172809729,-0.6346869678454303,-0.6149909669959521,-0.5706155397144659,-0.5315125971282418,-0.5266701459850083,-0.5613848375879756,-0.5956637998961786,-0.5773480254055534,-0.528392430116791,-0.48441870871013004,-0.4254285597805589,-0.2718455040398123,-0.07777368512681379,0.02949935653871315,0.04850450317975092,-0.01662721002680272,-0.15896731756723043,-0.2694983614074857,-0.3198168501557671,-0.34224020387583376,-0.3496235550173443,-0.3387780935410539,-0.2951550635502791,-0.18787927409730254,0.006392940019476901,0.23467280582471045,0.40240446319096496,0.49888675639088603,0.5540775018567053,0.6003201837223004,0.6525630554939423,0.692206019514746,0.7126311930868984,0.7268048045768576,0.7415549055418119,0.7348269905301471,0.6529558377409209,0.5190019543079072,0.4178435472541731,0.37456932087687034,0.3864176436894359,0.456929938691893,0.5893606711871034,0.7423923946772103,0.845157124338194,0.8914654197745806,0.9100708589181651,0.9125433507753249,0.8981477116848702,0.8611358049065592,0.7933414453150461,0.6914114148537726,0.550610315780543,0.35195621623533013,0.08605346986149254,-0.1974250675031992,-0.4449009037595508,-0.626635585452587,-0.7401146370163137,-0.792867033139,-0.7933254522460235,-0.7283796384096612,-0.5719569486454591,-0.3390370331494536,-0.12397809783198686,0.008633212790560918,0.05225365702191634,0.02620543955753066,-0.042631108415916885,-0.12369888021515911,-0.20208661791949403,-0.2794615387141021,-0.376852152144804,-0.5056424910468005,-0.643420055437455,-0.7503759335525051,-0.8074421844419136,-0.8187753110086212,-0.7921487466606805,-0.7301256302749916,-0.6304630066647889,-0.4978454527376177,-0.3557918698564056,-0.24242339092001136,-0.18494639668758708,-0.18099579486190082,-0.21402939444064434,-0.25316996312651924,-0.26864413757080985,-0.253064329717013,-0.21710867806678535,-0.16809073390357818,-0.10080370785019038,-0.018842402985785395,0.05612487265680763,0.10460509768950672,0.11883253863292081,0.09308697130624513,0.02245404491827627,-0.07592968488860379,-0.15923062989852704,-0.18878524159101784,-0.14757155184339676,-0.03239538507613077,0.157004411038523,0.40133823692728576,0.5893820717322013,0.6430468423223337,0.6619031390863661,0.6761027681134589,0.6555027570536086,0.6041922048366378,0.5432727146894214,0.45707564923896127,0.3488092423978713,0.2453878117494359,0.17393822033605008,0.1434117036475881,0.17164219114232507,0.34051986769063824,0.4298119846952385,0.27925629819683123,0.2170931007358338,0.1901473191616195,0.1804521154540649,0.18169359831481913,0.18255662183351135,0.16580426622462607,0.11898562432109316,0.0615966857966306,0.017648206498276604,-0.005072505752095838,-0.015030314359887435,-0.021975621967112998,-0.03486452180286271,-0.059124832813588886,-0.09451187132947578,-0.13384834182104394,-0.15293754615706517,-0.1470407017013891,-0.11466318696917145,-0.0705442203049407,-0.051320802217296575,-0.0807506567649862,-0.13709908032325246,-0.18884371409346887,-0.23947616293775426,-0.3050344890829756,-0.37307594756311663,-0.40298019764855253,-0.33504542799476333,-0.18920097664395305,-0.044911419418839554,0.12297712478472277,0.3106229346108035,0.4647713665736751,0.5677849808344559,0.6190995234230172,0.6108560243470248,0.5305866348280042,0.3785068672954204,0.21069402605060036,0.0909157704278373,0.03384324579082857,0.016113226183659964,0.014431040877071089,0.013733974746750203,-0.001349719474909984,-0.035837248151374575,-0.09158275489031106,-0.16220930418358956,-0.23017824365684308,-0.28947267340288346,-0.3381650482175626,-0.37745565739643594,-0.40826234095006503,-0.4350785063308034,-0.4511685055662336,-0.454874429850959,-0.43233209375170734,-0.36483345436203485,-0.2357035423036264,-0.06185823306107094,0.06605449916625017,0.06476956426101262,-0.08240800442295945,-0.30204665759955995,-0.4667856494592126,-0.5232222719535456,-0.4660910329400143,-0.2792874500478085,0.0029435567848961858,0.24408763736494282,0.3646636648758321,0.38475996994075984,0.348172864341172,0.30231874512154466,0.27277155840993245,0.2641125083883579,0.2683120130417805,0.27946997899800863,0.3016896546288041,0.3336378440047413,0.36130485844270654,0.35070978760561305,0.2918313102279286,0.22643005849183542,0.19501320481629297,0.20777840573891415,0.2547423939885405,0.31835156780289664,0.37816214258827197,0.430136732918128,0.4636011301037514,0.4586012138281222,0.40474871004758917,0.3259549349862246,0.286397384889249,0.3304774200657142,0.4174854669129232,0.4405486572479296,0.39633689810428474,0.3311352051274978,0.2717749433356418,0.23866149546839366,0.2869524995555363,0.40105564708989183,0.23539488965801578,0.2155391888554154,0.23049635422473197,0.2528773828694063,0.26709460502129545,0.25562085478040747,0.20223214793459166,0.13307833827434382,0.11368873910449794,0.12951703111906804,0.13768456595916365,0.1135213066185136,0.028114157386472837,-0.1608554430006243,-0.45327009252185496,-0.7026637639108815,-0.8189886537833942,-0.8605082165049864,-0.876817960083207,-0.8857619660674853,-0.8922996643390064,-0.8969954675157068,-0.898930442927663,-0.8968754687754401,-0.8854334183874555,-0.853811826699826,-0.7742851275046115,-0.5525289254226678,-0.01849331246915352,0.5134157342071946,0.7153342606289655,0.7498127477468347,0.6983081072988159,0.5661958250572557,0.3443846775070979,0.08993363786389624,-0.07649639686455216,-0.05599092575154635,0.21373807238256126,0.5283689647693436,0.6687909201357787,0.6368919017835054,0.510402017749076,0.4047655232782807,0.3561417851120979,0.3624270760516974,0.4185294788186836,0.5161837649651926,0.6250216992586393,0.7046463630358433,0.7453630959497549,0.7560938448381738,0.7460276580981774,0.7200202423363982,0.6745788337127836,0.61051549408828,0.5366331389194319,0.4767940142587855,0.44790612347470615,0.4501726402146353,0.47407942997578423,0.5079078703245402,0.5384514506720312,0.5491112398200195,0.536158856637305,0.5163391368807441,0.5094821961991548,0.5141491256991303,0.5243153348887595,0.5331814149455469,0.5366159583547857,0.5332823403675014,0.5223931411037702,0.5032379089281748,0.4699971630028644,0.4086652381746206,0.2907705441679327,0.10363472828891158,-0.12103975894704255,-0.3451566332669923,-0.5449289169526536,-0.6909653999342104,-0.6660653609992664,-0.41108289525665304,-0.2547746594159957,-0.21148917541247841,-0.22915032734168486,-0.2879413987327389,-0.39898988014967035,-0.6320869720832419,-0.8542862659914501,-0.4423107438386954,-0.21988922158966334,-0.11784559474895111,-0.06077129129320098,-0.027258066501979133,-0.013817503999000407,-0.030527511098727676,-0.10978148828545899,-0.23962896351560792,-0.2779548665420306,-0.24238219533943497,-0.19106931502080604,-0.1448598085042186,-0.11734082479535819,-0.1153232146749713,-0.14448049998688095,-0.22334128602099343,-0.19877479349900626,-0.07234499834032385,-0.016853184682575965,0.02044236721988888,0.06192542346290047,0.12334146477804814,0.22599955593126012,0.36918449269918835,0.4638137371527959,0.5464245027740876,0.669792831224979,0.7760730115243288,0.8214363354412871,0.7573528709929331,0.5450527041717439,0.30653926601249853,0.15072654176474248,0.07269568968357148,0.07673588268242512,0.1386632099442118,0.2067949284984519,0.24639319179401137,0.23548590434539265,0.15570765424190758,0.04381521323592552,-0.031208786371580036,-0.06316178024734663,-0.07017658411301353,-0.06111617134523229,-0.042602707977856855,-0.016377201445340422,0.01647813200047918,0.05836351548298164,0.11350575084963807,0.1863324313934103,0.2783026447688848,0.3848793471725476,0.49612209318835865,0.5966162140789572,0.6690789599254423,0.705378433850112,0.7119683425280182,0.7085902152688269,0.7066707368880979,0.6993729550532208,0.6505440002792292,0.5026268997844257,0.17982340317844756,-0.32399226141024173,-0.7408491178568529,-0.8850082777254958,-0.9106815521124653,-0.9248812055355954,-0.9005736299572326,-0.7488200038868977,-0.5150640820656884,-0.3074338336150409,-0.16129855914698635,-0.07860182357908313,-0.0579403859035334,-0.08606077444144873,-0.13946059467740018,-0.1921980770125154,-0.23458688313059328,-0.272660217565943,-0.30605263338103184,-0.33125304921215565,-0.33728168731539154,-0.3293294013628084,-0.3159940822577141,-0.30255256788772145,-0.2911606820545241,-0.2756035927335572,-0.24862881909567602,-0.21309786931360591,-0.18329231897473938,-0.17033719593857366,-0.17476707496137936,-0.18084288186615527,-0.1618643128090109,-0.1322381821220649,-0.11165427113664192,-0.10542419676068202,-0.11396946409903858,-0.12172451829601472,-0.11337324164893946,-0.08431608529264306,-0.00408302814014204,0.1514050315492525,0.37810969752363865,0.6092873637953259,0.7343594592830011,0.6712915904219139,0.5131105795596504,0.4259320532479727,0.43139024275985693,0.4720375451356608,0.5023997423728298,0.5031141207086217,0.4803463308486789,0.45138203974193436,0.43432311770587767,0.4212648064355212,0.4044592298836772,0.3890082669562009,0.3874081736962047,0.403358350701991,0.43745015152225036,0.47567275583881297,0.5093107469907622,0.5307156076253587,0.5365051507466262,0.513500217514796,0.4532840010204324,0.3723589991812041,0.304223164556771,0.2647364194006348,0.2506659451474388,0.24355223585557306,0.18585326882270836,0.06402406644923464,-0.07255617136972083,-0.23278831454168736,-0.39757307921353896,-0.478031021443628,-0.42088620387603076,-0.29874339301388,-0.21509740350609524,-0.20589793779287735,-0.2632939080017816,-0.17251511257294636,-0.07304149222897183,-0.024151071872919844,0.009457207580924833,0.04029828967756848,0.07460999747281778,0.11664600742016705,0.17153484842082792,0.231541822923129,0.23390444870375723,0.14295153548821612,0.03240411552044865,-0.05754907998694783,-0.11721553193601066,-0.1405134835496741,-0.13367510668248772,-0.11636834700311835,-0.10177850115497264,-0.08881672036905848,-0.07639422548119862,-0.06684770218462446,-0.06837973290050939,-0.09469840362040208,-0.14672699721805138,-0.21046826952015418,-0.2741564183799068,-0.31656083180860817,-0.3092803139974942,-0.25364559832702976,-0.17992372099071371,-0.10541226033837697,-0.027833802692501578,0.06670460988967299,0.17900168064681027,0.27254751395122745,0.31836620827240897,0.3149178493120138,0.2779481174168231,0.22809290558501505,0.1756599259275533,0.13069029330125606,0.1002805406432193,0.08601401621906588,0.08109780339872799,0.08442268835453691,0.10005944788473979,0.12485478310902981,0.15203055102653495,0.17191066588470855,0.177380664931273,0.16184225276202507,0.12393650669212981,0.06801538241969586,-0.019120250418674024,-0.198493116174941,-0.1294865108949644,-0.04650120439253902,0.004933531889756567,0.04337829218101927,0.07525764604658183,0.10251534558282853,0.12708966016854525,0.14997496196780147,0.15791377234879891,0.10429353351657854,-0.009287694994176744,-0.09834768582918327,-0.15568696913277447,-0.18446460701612774,-0.17196091886199527,-0.06417726447625281,0.21562444517841564,0.57059372561482,0.7945588571274483,0.8973287089336787,0.9419427870249782,0.9599321167469649,0.9645685660875346,0.9593687481983747,0.9361681328469459,0.8106398910166263,0.1855294567936018,-0.24257808472466044,-0.3116459817586798,-0.2902372546829696,-0.2497090036203971,-0.22979925131404594,-0.22317060513280018,-0.22227496453790044,-0.23130865628987954,-0.26020930180194474,-0.338770529355271,-0.5596314226906786,-0.3720682971563747,-0.14672289635260927,-0.07608474153069812,-0.05385468438873407,-0.05250929338522469,-0.0611247335208852,-0.07142890720483877,-0.07695425954962579,-0.08000889823368745,-0.0900525113370796,-0.1199144074463489,-0.18098950472664482,-0.2728724481291044,-0.3639212940975514,-0.4144782558782723,-0.42136540415556634,-0.3946609412942312,-0.34364042464958305,-0.27241310515003186,-0.19198210522801148,-0.13954999396957862,-0.11531122922951773,-0.09396691372234779,-0.05825482742657049,0.01577257727729273,0.19059193541729685,0.3179844016866395,0.3042972710810372,0.2999294440151841,0.32869293876989464,0.40118504627764,0.5239141121704733,0.6516255919390018,0.6668149835652009,0.5949374259182398,0.508245316196238,0.4128763146729682,0.33457790026533957,0.28308597354011067,0.23774553951825023,0.1753379155879683,0.09954156161363799,0.032712657793151544,-0.005395108577176626,-0.005802403630042082,0.032109719426103474,0.10460113545387942,0.19452443186124438,0.28212429664534083,0.3509340365160014,0.39784362898532794,0.4205121294175002,0.4267984360611116,0.4263658537820124,0.4154417329100233,0.39036725112383885,0.3477954413686152,0.285719827001546,0.20750138971739496,0.12403133520211601,0.049820206643247336,-0.009236427570586092,-0.025762068789464236,0.02424028381037948,0.11125070418614193,0.20881670022652765,0.33815424612131445,0.5403774900909376,0.685641019079398,0.4796748718244612,0.2563010194323857,0.07144416324606159,-0.12240844409097307,-0.39689259089437257,-0.7471188074998484,-0.5621891134590855,-0.3221808561847335,-0.18486376013196257,-0.0920990568700942,-0.020386504058148684,0.035940686403085495,0.07892282908666995,0.10614186603028142,0.11738275256236903,0.11672343789674555,0.10367708619225811,0.07643993833892565,0.045107088703092456,0.017370670612826804,0.007940821343264935,0.025654412726316893,0.07667915108600257,0.14704648233855022,0.19247805067374057,0.1890062949928358,0.1575900734571815,0.12605276891131173,0.09002781363884867,-0.03263661746510777,-0.12652621576992093,-0.2033107933725221,-0.3034942684354807,-0.4556435352989438,-0.6683223506202387,-0.7779975409742403,-0.6402659970300189,-0.5042170593465367,-0.4582416464051529,-0.4921258215674313,-0.5727191988756515,-0.6532913072030011,-0.7085717508145802,-0.7319095976145332,-0.7274705582815892,-0.6967368733259728,-0.6419032504486801,-0.5490270762511394,-0.3900654844183416,-0.17040277774540585,0.03735639938371194,0.20383540476096604,0.3334204646596252,0.4158964307762589,0.4552349625337995,0.456485843924677,0.4321637576204023,0.4142225207950397,0.4368289654140223,0.5027290047557481,0.5948411378009621,0.6813905635680204,0.7455325502766608,0.7834366675480453,0.7984359607524654,0.7953297544808209,0.780230328557024,0.7595316134376435,0.7419780613979986,0.7327433693467508,0.7292597622564677,0.7258767505039531,0.7037418556859937,0.6085037720855139,0.4333424123576995,0.3044000718840829,0.27946048603534207,0.3101176157277829,0.3388959028189251,0.31691146625990096,0.21010229848031434,0.012864841546332701,-0.15131056754880998,-0.18174839480753902,-0.1459888877804757,-0.10074140301886696,-0.05804202007237564,-0.026319169712513853,-0.012146479669060855,-0.01915159891332221,-0.038316818545124365,-0.038380346594044254,0.006316578919412017,0.0922347204417118,0.18414621338995577,0.25435615559125596,0.30178725536638357,0.3336937053465844,0.3568371992092613,0.35285869146779847,0.28953018789054513,0.1392216729308772,-0.07736175710552821,-0.30348522961807395,-0.4887173907092455,-0.6138305742885479,-0.686479517576503,-0.726407961369036,-0.7469017583054786,-0.755947189725474,-0.7564984068741547,-0.7312159271885743,-0.6686471521206674,-0.5849986283978678,-0.49201127574068854,-0.39499402169015124,-0.30151826588223074,-0.2323212485435311,-0.2006806871052459,-0.2060926553582039,-0.2592010175463391,-0.5347263443270354,-0.06610986710535333,0.0718969866096064,0.11847109834003448,0.14651796056827848,0.167146804324109,0.18101906529678802,0.1679678632935392,-0.027332895987597416,-0.18955961001720437,-0.19765865119041792,-0.15641986987137557,-0.06414963464219206,0.06585427994633594,0.20604763329769335,0.3309120144678985,0.4406195041927372,0.549393599141766,0.6599218855034962,0.7489384572983313,0.8066739314086268,0.8338258945603575,0.8261880022317958,0.760924070184901,0.6098442930015829,0.4049137806471197,0.23054378224273794,0.12443032266112117,0.07688401500913794,0.09884717960440537,0.14213804276504238,0.08959341529473096,0.07630386591153857,0.06271548921867326,0.026139496569964102,-0.06339004892700129,-0.2660238041035854,-0.6579902307186704,-0.9561128397784356,-0.9650162570297248,-0.9238202526794124,-0.8858494870538002,-0.8435969598928192,-0.7291018842340911,-0.4950306756355475,-0.3163530664224019,-0.23591760667102868,-0.2130856899463415,-0.2198761416943283,-0.23281232616960967,-0.22632244088186643,-0.17252258209058619,-0.07079300408526362,0.03986375287827863,0.12141790036661765,0.1731199425409615,0.2203638596525857,0.27222436640239067,0.3175454474297101,0.3538003525738879,0.383703648014727,0.39934111842909725,0.3873580232652293,0.33922779829849303,0.2540589457184301,0.132319310293003,-0.016634880906131456,-0.16637633221698733,-0.291310360038343,-0.3730840262034617,-0.4171730916798053,-0.44280279280487705,-0.4640958072471322,-0.47927759797410674,-0.4814152198874481,-0.470709823481222,-0.4516450679590426,-0.42866835483006005,-0.40427969704664396,-0.3591456316982699,-0.2762820754318525,-0.156178604032155,-0.0148609268314013,0.1197655332155878,0.22898188265463354,0.3200602875368348,0.4057784538652421,0.4864326156220261,0.5646317208604967,0.6316919876446815,0.6770546448267087,0.696835073947237,0.6968721694909289,0.6840238239008224,0.65794070570288,0.6124195508271001,0.544128576510988,0.4664450368495463,0.40935705892176855,0.3906482882154235,0.40391339737581633,0.4258248089363678,0.420468876011925,0.3498469202243017,0.2049677010471744,0.03551505140706588,-0.10242982289794116,-0.2192533710240128,-0.36885862683451864,-0.43888160131642073,-0.4052598219984447,-0.4028426179374957,-0.43497127075876724,-0.5030197869592627,-0.6155306483147327,-0.7096757203989802,-0.6541136002610171,-0.5890321721878733,-0.4858713058048803,-0.3591255009822576,-0.28361672949816397,-0.2535869502313869,-0.25737180858187547,-0.3054197780084928,-0.45962354025915625,-0.22957526242032203,-0.043809065806597915,0.017635570959256986,0.04644731445991799,0.06045821200018114,0.0620438094454084,0.049280104312678305,0.020105278571552383,-0.030044049637107936,-0.08463286231205847,-0.10967661617466354,-0.08566684662372644,-0.02428758962305912,0.04371394207974481,0.08852277241427486,0.10292535404946235,0.09577274006632992,0.05537993718403086,-0.05591628167015666,-0.25035868764607017,-0.4347898544558371,-0.5189555124637782,-0.5215298249741491,-0.4828567419685356,-0.4381644647136576,-0.3986732278289137,-0.34299050999765096,-0.24677828638631366,-0.12137321212196338,-0.10170756821036361,-0.3429246481991937,-0.6434918223719052,-0.7471892536800351,-0.716620221665825,-0.6203101989100812,-0.488806158789154,-0.3295527154241582,-0.13872138811131654,0.08197684420969731,0.3058534266401138,0.4835738920571891,0.5833944930111714,0.6217500603788881,0.6346227867699534,0.6359167691597907,0.6292058598560214,0.6228073949855698,0.624570552531324,0.6285053015627646,0.6275833062967123,0.6142407120989894,0.5848041177364719,0.5365669865853187,0.4680892956413523,0.3860775992725193,0.3019755405552274,0.2299366399755932,0.1781473044786793,0.14929167390084822,0.1604130697955379,0.2141309396245655,0.24384262243531868,0.2671641515297086,0.3038431563382765,0.346428845303718,0.3845404226187865,0.40890044536753517,0.41379337279002365,0.40510778234008116,0.39776824318742054,0.38052933844195547,0.26997634374671253,0.12260532070155672,0.06067832065574182,0.06234710807290545,0.09657594180478006,0.14130653150625294,0.17159821971671105,0.16993187998001355,0.1239762572147856,0.028869632321081216,-0.09883761233601104,-0.221204859777694,-0.3085189182611064,-0.35506514138888934,-0.36273986122038737,-0.34503886280691526,-0.32561877197903094,-0.32424957269405347,-0.349818053820516,-0.3934827951580801,-0.4329473124590091,-0.44180751497112625,-0.4087421803881862,-0.33338898961766356,-0.22089964367958034,-0.09293225419444634,0.010482603432380139,0.06837313266590823,0.08183872664646423,0.0647348739020784,0.025978303835004123,-0.021895522053459595,-0.06572177409147334,-0.10466143454166439,-0.12442811211608774,-0.13937143898888446,-0.165733625070858,-0.1964793162261267,-0.22171792888174682,-0.23162819670613127,-0.2087558349831041,-0.11762380039059199,0.10376745315838905,0.46363400265157784,0.7843235479106048,0.9207556841522905,0.9500120118499715,0.9420576754864639,0.9119999551965653,0.8406684581309418,0.6557664213649969,0.27135064508930423,-0.15523323815940113,-0.4067548178271891,-0.5044682377086949,-0.5166499856105637,-0.4919477261983483,-0.465155884780565,-0.45898411275368034,-0.48398737674983444,-0.5204312221262749,-0.5418840704037413,-0.5275720704511779,-0.457553153671655,-0.30817832355183483,-0.07649298488874953,0.14934287657482345,0.2659535687763657,0.25782365773668375,0.17387279193019964,0.08140379456712975,0.021515107935837628,-0.01089843020945881,-0.03761887773824204,-0.07255241670168555,-0.1255399544078752,-0.17957306206121934,-0.16546868023503705,-0.015254006343818825,0.16496970725205892,0.3035335042336565,0.38935844010256954,0.41581699592477944,0.38377793265833565,0.2933062212649011,0.13217507250071137,-0.0953439538419322,-0.3198513458167443,-0.44800943196082493,-0.4685098339560588,-0.42218022875306555,-0.354985464606297,-0.2960762081765871,-0.2538652261162964,-0.22059282059625765,-0.18533589925791658,-0.13485800331281225,-0.06007947990248599,0.033469750356237164,0.12109969998743447,0.1867482210068434,0.2236478903951282,0.22441685977601333,0.18802554178692688,0.13898466407124382,0.1109140302655252,0.12034350837100911,0.17228596568682045,0.2476007424699705,0.3112745636496864,0.34057935290170854,0.3274047280810048,0.26199196660639174,0.12789810601124488,-0.06531170278158206,-0.25717298751081724,-0.3800861988992201,-0.40807428868665635,-0.32023830167818007,-0.12642603791010676,-0.001083741662385784,-0.0032086095714567602,-0.0502702150820276,-0.08466061844423343,-0.09203113104586902,-0.07437207384493835,-0.02814573211264946,0.08196331798696188,0.44427078654534563,0.7560271495726991,0.5484777298702536,0.4655829186150882,0.4377337597784315,0.43835648725445286,0.46411477680967456,0.5291711348108192,0.6393835184351898,0.3694375481115551,0.0592718327304304,-0.03750694938469664,-0.05852936972925957,-0.04947543794364907,-0.026495018185403594,0.0063127148985866405,0.04666202187745291,0.08919118702777738,0.13393053474465993,0.18487018536991442,0.24310532361284512,0.29991226312202235,0.34388971776333915,0.36944417431777526,0.37041037898729406,0.3483482932241219,0.3123242629530724,0.27060593863142723,0.21633055238431073,0.12785945412916297,0.0074453114329211985,-0.12139801443400719,-0.24723778689948764,-0.3705090593004995,-0.5041072034097811,-0.7108402034303143,-0.8233148335363415,-0.260011685124465,-0.07305747200577364,-0.011970224566342277,0.00884956506107404,0.01022048010900277,-0.0036103889285492774,-0.03911464813061353,-0.10911104852636726,-0.21116328677676832,-0.30590622035888076,-0.3384136513360668,-0.30185178192010687,-0.23300570974028342,-0.1773949726823489,-0.1465286899389725,-0.12922262749772398,-0.11269895297781511,-0.09414861910540803,-0.06942508366723577,-0.04827952131942887,-0.035935276315997,-0.03599564098641482,-0.047179816621794685,-0.06014043642334532,-0.0666713135382161,-0.06336732741161998,-0.04007632732829899,0.0436478329651599,0.10875257424567536,0.13403827868773788,0.15605183762761307,0.18861893769817462,0.24953554211736478,0.35556665054265607,0.5132004938194713,0.6789641373495042,0.748782742877507,0.6880356105820457,0.5675609058538666,0.438140018357498,0.31417344104844275,0.19066317859337267,0.054689268269132084,-0.06252401099213326,-0.12484612913677094,-0.12733692228236465,-0.09836014455741092,-0.07193902139587931,-0.06504217710586221,-0.07739789281758606,-0.09772189313253414,-0.11226572126205714,-0.07942032104601889,0.056350825164704514,0.17110235011684236,0.2398359085264578,0.29867358998117627,0.3509719943912069,0.38209326172489877,0.38279622426038945,0.36874012672934425,0.36159699338052453,0.3594862620546312,0.3567073587176211,0.34710246503420683,0.3328602503617302,0.3089710654699205,0.27172709041215287,0.22468690616418557,0.18010558927445983,0.1468890037298711,0.12095678221780516,0.08777927117564593,0.04637742873671435,0.001220669717404409,-0.05524667110834978,-0.14999072956822565,-0.22487877583236252,-0.2449492452813706,-0.23591916733532436,-0.20549408482584447,-0.1632780477396566,-0.12905965668290423,-0.09821732556198565,-0.06075994912739228,-0.006827240796734616,0.05886569027232622,0.1117202303304505,0.13161345944405478,0.11582925296882553,0.06190305241071004,-0.0391797344448008,-0.19057040567367267,-0.3573976223057726,-0.47254579877799124,-0.512110106830314,-0.5004704976779571,-0.4620038602345236,-0.40279221939212967,-0.3287333051072119,-0.2544711767432245,-0.1781485045879284,-0.07578822599188792,0.07712233752881752,0.3022150427352491,0.5591193425345946,0.7469006977680642,0.8435779935829157,0.8885976846811036,0.9105872017643981,0.9210597121766358,0.9132657602513171,0.8371953048301262,0.48846326519104055,-0.23571327680878743,-0.691793479569456,-0.876691259153008,-0.9470341368986228,-0.9478461939462193,-0.8631701747099052,-0.5631412221167054,-0.16509800629802407,0.02517716822859233,0.0832085330476198,0.06970361145928147,-0.0030362023170829285,-0.10101349803863163,-0.20125253460209366,-0.32650644951705826,-0.43709596656032146,-0.4617837172925236,-0.4453605855839065,-0.4303708749738004,-0.41342138881808077,-0.37785035379894016,-0.3085655824411502,-0.21192642171027673,-0.11941213731529886,-0.047506355804189465,0.012465111933870662,0.08800457542266123,0.1931770809572162,0.30825437946444717,0.40982973942700396,0.48367492398211076,0.5233593913009678,0.532669437064909,0.524546258158678,0.5125740739714383,0.5043419088351885,0.5151376597133547,0.5593834432519628,0.6374254926964282,0.7278657366500048,0.8097487675141831,0.8581798533370616,0.7922442661828861,0.13045401637321744,-0.7421201535979077,-0.8636053536776892,-0.8854435125250023,-0.8962388641705111,-0.9038447725533454,-0.9083346755439489,-0.9073225792330244,-0.8934303621824373,-0.8480180706012272,-0.7203570984675216,-0.41669569506630716,0.037603907103575765,0.40329615730282653,0.6004093911442001,0.6851306884537428,0.7066115314045253,0.6885573926187304,0.6381903459865359,0.567322045117479,0.4920162429271774,0.4256052645994662,0.367037828408975,0.32199196976704036,0.29327145996819637,0.26726005443559053,0.19269855931786586,0.012048722226196398,-0.10505840987653088,-0.1484393910492308,-0.17999803904581493,-0.23301932208140225,-0.3188188613546156,-0.42348718937621777,-0.5200039222440671,-0.5916386828736132,-0.6572153889095274,-0.6957363233257704,-0.4391709924891385,-0.14040647181824745,-0.005336369474388468,0.08457320843633805,0.18630076832553707,0.3371526845223356,0.5061687109331395,0.614683508668173,0.6589631497849834,0.6524843979163036,0.6058270188909959,0.53498052013379,0.4611515716505838,0.3927705866126861,0.32950759777701033,0.26242378371650144,0.19237955865145115,0.12556525935184476,0.06521413224245289,0.02357440928673806,-0.00039410952975233327,-0.026560966869021492,-0.06794726743564922,-0.11784545445832569,-0.15699942480253953,-0.16179970120406179,-0.09506658062820877,0.0856367056325862,0.3270299288012429,0.5041383963838463,0.590759132976918,0.614601613896671,0.581284067721193,0.4773952451393262,0.29437970140813,0.08520930899990663,-0.029663583278388788,0.00819022230269743,0.16368081869231021,0.3604159183112418,0.54306162645658,0.680079742085491,0.7538301851858397,0.7553676475097064,0.6540394875462177,0.43067369817938156,0.15110660130272915,-0.16098035073753805,-0.3201097212583758,-0.1943714018547337,-0.10074592642044888,-0.04653670552592338,-0.028337283824980464,-0.05659680256853907,-0.15104459009061413,-0.29577885796401565,-0.4204923450720396,-0.48752899513242615,-0.5052534200389582,-0.49589815970549556,-0.47417123511123704,-0.44585382913161553,-0.41613673936588486,-0.38336354838073605,-0.34841149876009103,-0.31375389527640757,-0.2745592290756813,-0.2287163250913022,-0.17483374329132415,-0.1194355665795777,-0.07095665956790981,-0.03426109213236655,-0.00474824172536934,0.029228564356321658,0.0861292090592901,0.17227278092744544,0.27967883991590003,0.38446703260444276,0.4549340845768853,0.452720584694707,0.3609541157268601,0.23407090385953866,0.1316667428499833,0.05659697204483312,0.0032183536945261286,-0.02850660283616826,-0.029393460069034184,0.009258946975348504,0.08985163855159799,0.20465648714454873,0.32928369195703816,0.42110273628866723,0.4582796878865451,0.4547369034544233,0.434458380091047,0.4091286136701074,0.3875520159360844,0.3769034590842485,0.3789482358232847,0.39808914582921334,0.432100338012366,0.4652215332846556,0.4790391505274074,0.4706148734486118,0.44392665896839717,0.40665359173421833,0.36668608622216753,0.325291023337544,0.2676223933017718,0.1921684040380842,0.13706669385575587,0.1168997456615284,0.11580252514897155,0.12497670711806963,0.13767670367038426,0.1476439814893575,0.15629188158185256,0.16412683284989596,0.1813532245812678,0.1872115423600123,0.12412091104273112,-0.0007013856758825874,-0.10293912529482754,-0.1912761000961281,-0.27034891411907763,-0.2533295812493182,-0.19892473362956653,-0.20554244841979155,-0.2796988458023452,-0.4884583444208439,-0.4893800649824446,-0.192901927990997,-0.0711740604599627,-0.003909242942985825,0.04265373191745882,0.07739143112112458,0.10386370200379279,0.1182193958774936,0.10175515304204193,0.007834665043459973,-0.18029087236439015,-0.319095900714997,-0.3499003362738083,-0.32478098961581003,-0.2709119552871664,-0.20194767311781506,-0.13780448514815824,-0.0955249172058784,-0.06753099908933514,-0.03732344521676955,0.008855731960952925,0.08464158066190013,0.18841442103395986,0.24724642629395355,0.17221671205149283,-0.07784278553883903,-0.38841755407007106,-0.4008395607606863,-0.34612342368477705,-0.30501703680381,-0.27977619146076105,-0.2632064147781983,-0.24598637473838267,-0.21240444105217127,-0.14234150435325138,-0.0075578642602944935,0.18098666136842215,0.3887985161318451,0.5808238256034606,0.5079081848960693,0.30694864163242874,0.18443314620838616,0.12137369159054763,0.10158292072734829,0.11288598690995505,0.14695101962253487,0.19499434554658865,0.24432078386920053,0.2870332987502133,0.31757161710364623,0.34485570579062,0.3686822577646135,0.36473245306226576,0.3095352710405771,0.22284526485426448,0.15011167993493316,0.1102762894802776,0.11165728542251335,0.16317051143478528,0.25093523023201164,0.3127951212045925,0.31538728400254434,0.29471464570911315,0.28202409799851813,0.2649749138597764,0.21135412985297028,0.11034008841642029,-0.017081390475424264,-0.08595944604699915,-0.03913359165037324,0.09439729707225715,0.2204561989321829,0.29284583298269234,0.30996640231024486,0.26825076641786505,0.14795299451552968,-0.0823760060255691,-0.3372626690774873,-0.4452657868696884,-0.3970065496319617,-0.28313164998038226,-0.19225426117943412,-0.14043171989068665,-0.11791065575072612,-0.12535955380599703,-0.16519532885728458,-0.22520598311658332,-0.28808912467127434,-0.30980182382455385,-0.32145942166892844,-0.37239132715402024,-0.4611177236224169,-0.5630154419238527,-0.6399087111556703,-0.6680329403079673,-0.6472857332993831,-0.5813391217741409,-0.46293890139219784,-0.27347569133887895,-0.04331709332647591,0.14906669193299976,0.2909201469184702,0.4085350621318564,0.5143373923878203,0.6211164725699917,0.7234380675020317,0.8108467595859239,0.8734280495868741,0.9080565383119499,0.9185652899449119,0.9063108497727693,0.8686951968520578,0.7882708591839419,0.6147474606001344,0.31045020308813914,0.04285937406425389,-0.009466000648388373,0.10782026691988246,0.24964318032350263,0.33263361613955383,0.3497162425497293,0.32400409461814267,0.2760001633501343,0.21384782618287618,0.15796010238488922,0.12400663740769424,0.11706773261446123,0.1302091721221362,0.1576113182289653,0.1902758592837088,0.22740596055338472,0.2729071267816818,0.312194595427855,0.33641001450943253,0.3418972998009437,0.3338801621565794,0.3228264873147235,0.32721698322297627,0.3580881441287568,0.4187409903801726,0.48311523160254827,0.5116403718890586,0.5012368764876722,0.4775301415244959,0.41900192580751594,0.2106924714747182,-0.11550018729333485,-0.27553904820666936,-0.29559110147283446,-0.24803881375766143,-0.16474344021418458,-0.0870054035732908,-0.07488916995318662,-0.14646353075082416,-0.24280456453450888,-0.30763269809892807,-0.3135034989857962,-0.2652100767912244,-0.1931987357907447,-0.1305440096448404,-0.09851843753727633,-0.08710217891845216,-0.07342006981760728,-0.04789647671405756,-0.00999753307477472,0.03300793428691825,0.05639639570858987,0.026206429389740212,-0.05587284106845033,-0.15318151391516815,-0.2184057650765224,-0.22969905907877342,-0.1950239078364728,-0.1341206318181927,-0.04921486116140244,0.06108526107077242,0.17495926259540137,0.24993284265685212,0.27556502081166484,0.26596347773260254,0.23000328274960305,0.17260368522776098,0.07477745220594106,-0.1247172621440879,-0.4305515373444705,-0.6539781012345725,-0.7519604281422974,-0.792251628132501,-0.7998262482268196,-0.7768663123092414,-0.7125844345622224,-0.5812066317568749,-0.2927935072266281,0.3158079603971941,0.6257034519750492,0.5812940372810123,0.46209169360701907,0.3142790404495764,0.1796091346742944,0.09574796313772213,0.06488463218964982,0.08323169995438215,0.15706997626172423,0.2895475871262781,0.44541071789636044,0.5650422909644149,0.6263634536949721,0.6396511498824241,0.6130769568166878,0.5551095564267842,0.4798868563283954,0.3973801633642525,0.30598458932982187,0.18459981704809317,0.041793638570506116,-0.08892144828708336,-0.1868572066603154,-0.24913940872977972,-0.28681999748552667,-0.31839268209626415,-0.36898726919188185,-0.4602039612667513,-0.5712233957002805,-0.6559623582659477,-0.704437152936972,-0.7293109288533605,-0.73291117256437,-0.6810876194757582,-0.45341646651225864,0.1229255293872121,0.6692956122257673,0.8768324245168388,0.9338230651540693,0.9405560638568297,0.9269024146587032,0.9035795069026571,0.8731246019385338,0.8248344677524834,0.7300240613463984,0.4993831655854385,-0.2485937217700124,-0.8010064083227588,-0.7338140037563284,-0.6061254430154163,-0.49205173019513715,-0.4157811484194765,-0.37703012158363286,-0.35270267083590123,-0.3266296307692042,-0.2985581459376909,-0.26817907736472846,-0.2387436491562933,-0.2202533350055307,-0.21371653217104394,-0.21004716142926597,-0.19992937129833477,-0.1887901391324827,-0.18592016670432363,-0.1978889675520911,-0.22337133370549225,-0.2606008938976096,-0.3032430797214781,-0.34233158339836905,-0.3657293859659042,-0.35903922903877533,-0.3179205354395003,-0.2238352616612845,0.49599942168432487,0.28314448724288344,0.22120929488874944,0.17511814676270132,0.13701724828266124,0.10949386034814197,0.09324185049355499,0.08838398030049333,0.09970949658199361,0.13859617222067985,0.22936668967763918,0.3887094248995704,0.5427560642517397,0.6054054588226297,0.6192256590023535,0.6176399479067558,0.5845793131136714,0.44778575075963956,0.22893775889834517,0.07517386784696799,0.01689436775877426,0.022938557082739144,0.03573664285272982,0.013981256936004667,-0.026037464733712497,-0.04407523592283279,-0.024955969659921595,0.02379147266991694,0.0924313131952242,0.16804329900544704,0.2502763247063934,0.35434019764086583,0.43750724113786177,0.2947922146546319,0.17168268043169646,0.13035176517549946,0.13338579527262406,0.1651804185747289,0.22868279150008367,0.31636330254144884,0.39235618991566895,0.42421004600199813,0.41608045882898714,0.37989105336458523,0.33156255515108274,0.27883159279255787,0.2180683524910248,0.1445431724400818,0.031086081164257665,-0.1293198523819467,-0.3058260495247207,-0.43436125925670016,-0.4937451788243499,-0.5004451485256044,-0.47580681332886204,-0.4455624248318247,-0.41494311571554776,-0.36510872838075187,-0.3099508617633518,-0.2649880105463703,-0.22545467934547347,-0.19245581657789934,-0.1694324297701155,-0.15560974799462424,-0.13630884161196358,-0.026347812194226515,0.062001144613874105,0.10353797912286761,0.13579475980003433,0.16440931055965438,0.18733367509178572,0.20481419266853182,0.22787520177970652,0.28313421349833634,0.35634388069402656,0.3995957320759527,0.4035878471020169,0.3557092985417017,0.2757992851221924,0.1908997471158879,0.10874627139246178,0.0037552329794135818,-0.37234648932823416,-0.3219350390112033,-0.18429863172509625,-0.13327443329304234,-0.0938884884298199,-0.02996005591505731,0.10528282395655424,0.2961571130150112,0.39347120127273516,0.4385883137113682,0.4649001578675634,0.47187307449408156,0.4594987861015665,0.44087250341308615,0.42786868017288193,0.4213154887371125,0.41232845793022643,0.39400172092225483,0.3623095600502198,0.3134104585214161,0.24305341479072326,0.16381374531038548,0.09345703651570178,0.047775219376242586,0.029323091038189343,0.03542720612202357,0.058135008657560744,0.09058790990493434,0.12441829654719772,0.15208245931021697,0.16937633246053355,0.18317304300402465,0.2010975490091885,0.21516332374296382,0.2071060366031197,0.16041894892337472,0.0729375868255855,-0.02861537175618841,-0.10993054716559236,-0.1561419661360985,-0.17918443504544046,-0.1980546163748205,-0.2373152471467823,-0.34454680581384445,-0.36152072552161596,-0.08996787865925228,-0.0075794634001477845,0.021052610986287714,0.022748160554475393,-0.006558006849115803,-0.0860243828010214,-0.23799126417696684,-0.42032577174645447,-0.5018395920446939,-0.46139409388653324,-0.3556740081489851,-0.23611923534341775,-0.1266055005452902,-0.037190655626233325,0.025818457957700613,0.0547268509944128,0.03968767484095561,-0.013614903955991294,-0.08283502634389517,-0.12872114343264862,-0.12197483701867483,-0.07225083943113385,-0.009182169483645407,0.030890455848188492,0.019373444157394313,-0.04364046175684474,-0.12534494295315587,-0.19037807977199755,-0.21691615802094416,-0.1917327694779342,-0.10651472128648654,0.047058549460148424,0.19779955937261431,0.2646737320693895,0.20159879707231346,0.08247842344583972,0.0036651684069284487,-0.03779136514696989,-0.06228988779996597,-0.08805355458905316,-0.11429268851322691,-0.1216770589351366,-0.06360042089835813,0.10049683562616993,0.25106003631155016,0.32384161491628616,0.35472121830264525,0.3682930196696338,0.3785724343352818,0.3919090563299996,0.4057094036743103,0.418519999977521,0.42743438976770803,0.4269127687794362,0.41850911394157975,0.4089930385932347,0.4014142819483322,0.3964224661222835,0.3931264248873738,0.38898490128403185,0.3821667752048589,0.3659982378739759,0.315134247809927,0.22260834263386203,0.12492814219342235,0.03553540340515057,-0.04836873915383989,-0.12581551769591584,-0.1859357474635365,-0.217907368751776,-0.1982806244105145,-0.10602953340979193,0.04020446254842975,0.1855323844402794,0.2922094650001984,0.34751971533984477,0.3621478169007782,0.34290685545352056,0.31845865795936873,0.3382074692712761,0.44296073264061414,0.6020502699326564,0.737203767827947,0.8200985909959049,0.8635740279902926,0.8838040323503896,0.8885344328123455,0.878860894436794,0.8456638567415384,0.7588175782933784,0.5357865045773725,0.0628639840214897,-0.44321271534213647,-0.6916671074014494,-0.7488839077449989,-0.7173229750295885,-0.6653141498921812,-0.633615946471227,-0.6348809158568547,-0.660648792334453,-0.694346168055286,-0.7306724156153063,-0.7693529743538268,-0.8165061316036624,-0.8740499710234024,-0.9263766542106819,-0.9376062626166862,-0.8991919174464451,-0.8414570847979758,-0.7921950689450116,-0.7582703739898689,-0.7309818269457647,-0.6886610129356285,-0.5947362618786423,-0.44425205540738005,-0.27810490135958305,-0.1040613982686955,0.12404077102455595,0.41370217366384227,0.561308247883653,0.5063367870702186,0.40669441492916714,0.3485323970938971,0.3715498048850581,0.4514697715021056,0.5268126799097167,0.5715252213656079,0.591652713065078,0.6039701668516972,0.6210863546716231,0.6519969212696439,0.6983833242754072,0.7429016106033467,0.7628232585687702,0.7605364801998937,0.7574287501294139,0.7607566299130596,0.754943165492934,0.7272277983462019,0.6984121370425467,0.6863291605121955,0.6668843888462723,0.6045597965264298,0.5323916113977304,0.4845644311417169,0.45464101530550494,0.41508155702202165,0.3217844213319098,0.1132100454613054,-0.1640726204442433,-0.30219514449892293,-0.23927194095989268,0.0560674912294276,0.4046437737856906,0.5737606471579613,0.6268776295981636,0.6344466445317389,0.6255361059744206,0.6242799448113439,0.6397925531511642,0.6591709153130476,0.6690357647449446,0.6014348585613314,0.2502204227774727,-0.2626317147597104,-0.49359641509406477,-0.5622327174981172,-0.5494628668245187,-0.4638152789743686,-0.2995544481487681,-0.10485323288329665,0.037946507740048645,0.11446119279925461,0.1532990817876394,0.18158608674562218,0.20295354885196298,0.20546496275615475,0.18491339220065559,0.1493584859375075,0.1207394358161724,0.11062591830063036,0.11417432852181064,0.11409137396269194,0.10873802906046329,0.10220432040569935,0.10019749072918815,0.10619242051755323,0.11389079239816202,0.10327236813555032,0.06564098490456469,0.030798669850991393,0.00880858386999735,-0.003393748074151294,-0.0026608820632290577,0.022256982875373272,0.06691551359354314,0.09014800919002214,0.06459741913632427,-0.026922451058496926,-0.10851268122425653,-0.15582130175066455,-0.17034663168390926,-0.14511860127856144,-0.06507225671708214,0.06297822860941694,0.1730807291262118,0.21733864313109946,0.21204314109321687,0.19173873068545594,0.1822844161106491,0.1924321716429139,0.21821539462337997,0.2482840870933569,0.27501987904370756,0.2855469808262642,0.26523755565302004,0.2032827023095392,0.10175587948830904,-0.018347545494363345,-0.13163450031139887,-0.21402802597781134,-0.2582738632064474,-0.27014528784232156,-0.2627358378456579,-0.2449966965059509,-0.21754060001894593,-0.19332357485414042,-0.18356237314774748,-0.18366932676183437,-0.18525776957931783,-0.16511635809880038,-0.08308224857627125,0.06551887377501205,0.24447499563265923,0.40044926624922145,0.5172615440629588,0.6347056945784006,0.8243605168113637,0.7845538675509657,0.44959913539684443,0.30110441403722676,0.24069917534957183,0.19345563881028777,0.12042738565940582,0.008461415403652679,-0.12899567964096703,-0.2621207530554748,-0.3656993744818914,-0.4347347821127077,-0.4755054973967653,-0.4946913593229157,-0.4989180648351247,-0.4956157642989695,-0.49010484355869394,-0.4819383495000478,-0.4622825996348095,-0.43772455139648203,-0.42099754610044765,-0.4141596960706727,-0.4071837940655893,-0.39854332990320174,-0.3853844465501633,-0.36289035333525616,-0.3246531545159614,-0.27358265096310175,-0.21655600628537447,-0.16442939953289773,-0.1244688625451815,-0.10501050969430371,-0.12119022063593415,-0.19724599337985058,-0.32354718117115155,-0.4644273866717562,-0.5747848281211314,-0.6354759046834421,-0.6429499079630232,-0.5597531032089998,-0.2950798401909444,0.10647409983384831,0.35841202608165107,0.4290598671471544,0.4118657038683089,0.36531994022894043,0.3231212502932442,0.30510128022004757,0.3072828892889756,0.30769229313045,0.28460892607737426,0.23019532764959158,0.16074320078112586,0.10240361813994642,0.07202123799659212,0.07978365433595778,0.14996823508503387,0.2996014951514201,0.4636558919626498,0.5638619732801602,0.6227760537561732,0.6688125994688121,0.7135406648947965,0.7613032613731946,0.8044527629429785,0.8248172984419934,0.8080979294617936,0.7576329698168304,0.6935286870030255,0.6292586425848802,0.5634084489607647,0.48563897325588307,0.38040384165903224,0.235863359041953,0.08361003256415218,-0.044447303223908066,-0.14524821222812223,-0.22280003175608507,-0.268874540272258,-0.278900134417844,-0.23967985677365455,-0.14138092524764684,-0.0034236717880943824,0.12501452379587227,0.21511036828722202,0.2603975137039638,0.26339353574129093,0.23532959340343568,0.18483772839735288,0.12038038884380567,0.044555374001661395,-0.046703484853163134,-0.1497117334366435,-0.2544620654517867,-0.3504820094370917,-0.44653519362781113,-0.5273240821454928,-0.5559496018322966,-0.5259047285764573,-0.46472574215991325,-0.38780333822490776,-0.30724166409924786,-0.25470832578560426,-0.24840434706138295,-0.29086258814445687,-0.4107210217739673,-0.7068797707556025,-0.5616075376274183,-0.2699893344723237,-0.15284628561724098,-0.09139489764435486,-0.046071885496097746,0.0032078624315755597,0.0791324632612016,0.2148082603660751,0.4222023642133857,0.6212589330585114,0.7342666835318005,0.7544886682011341,0.6691205025455587,0.5033499910116853,0.33831764794214925,0.21180211979698985,0.12140066239845512,0.05875614465772232,0.01838370887129585,0.03962439059607039,0.06058322244080897,0.07539737282394908,0.09281414988639297,0.11720503267758624,0.16438634915556088,0.24049013124373392,0.2830097649291185,0.2509884276754282,0.12601284740645105,-0.16185594432809744,-0.5085608259299643,-0.7012173554276364,-0.7628533944861223,-0.7438554827303856,-0.6659047264857083,-0.5399454075035708,-0.37874957491793043,-0.2001384210610271,-0.008270521750027264,0.2091770839968533,0.4379819405298207,0.6348353492381084,0.7656851713410976,0.8306771980772485,0.8490894792644736,0.8350010227696919,0.800197071415131,0.7566479557555152,0.7037554705425871,0.6298029301129415,0.5764778992159578,0.5783803906113442,0.6305523241997869,0.683995876519875,0.3971945403683623,-0.017089948033488636,-0.20542180698505824,-0.3068332625934351,-0.380320495463715,-0.43867090685625165,-0.4529157737784684,-0.32376671491721376,-0.16837776437288304,-0.11193589571781377,-0.12976425681226003,-0.16993228058847254,-0.19466551693374518,-0.2004205209074876,-0.2077792328522467,-0.23471273198813628,-0.2893264903638355,-0.35667595377522854,-0.4056754691560463,-0.4095418466704154,-0.3696015289599913,-0.3306877725968606,-0.33179809586776415,-0.37876917600168014,-0.44792143205180274,-0.5107496884093654,-0.5439353914921257,-0.5368162936632636,-0.4914819057971134,-0.41013811257763044,-0.2855634028965384,-0.09680039424341515,0.14690161449175362,0.39951849183057603,0.5929586093503117,0.6982646972130945,0.7435662192073387,0.7632594842140148,0.7729759485906011,0.7626997476350068,0.7133811205184194,0.6304478129777938,0.5562212834456777,0.5168924183624537,0.4923730430102828,0.44288085695656976,0.38394973495429974,0.3598227696681228,0.3647929381042903,0.3787183684558054,0.3859952102306266,0.39233688867904637,0.3994753530599511,0.40466810994168834,0.40960085271559976,0.428530742716387,0.4660941010222609,0.5064041178988927,0.5277799572437226,0.5161642644310939,0.4767960527161633,0.42374987578685647,0.3739756130067729,0.33660283728614654,0.31409630185951937,0.3008354067638359,0.2833011328311422,0.23305029520560172,0.13440942409965728,0.009435552760300395,-0.11357851030045912,-0.21820971346950793,-0.3037096757114179,-0.37137876259426933,-0.4237807019028552,-0.46784338718572566,-0.5089950207258729,-0.5536397060534645,-0.567723934146501,-0.2889197053942653,0.005655514783645711,0.09262876603053384,0.10466323623078232,0.09264827759233854,0.0752323138017899,0.04920930282322803,0.009882908348314727,-0.04708217771260793,-0.12640877677678622,-0.22160461517026164,-0.31250460693086224,-0.37338915520748717,-0.3912218938241407,-0.37001363348917937,-0.32341583029027954,-0.2770974282583699,-0.24310090720770874,-0.22433637177586668,-0.21386319204125298,-0.1995465357952891,-0.17441379847666075,-0.1408090637612697,-0.10777661630173409,-0.07383578318935421,-0.04333078649037757,-0.023902865799253242,-0.015739931571035603,-0.006043879042100496,0.022992030598003844,0.08996061394647344,0.18941007189558098,0.2861659780628984,0.34838678185691796,0.3477302419806697,0.23522064942054025,0.03230008280638217,-0.16824950886370552,-0.3439466290630177,-0.49533192695020273,-0.5932995379905374,-0.6224414315695617,-0.5955631224725044,-0.5656823963066815,-0.5674197797273565,-0.5975726605575703,-0.6366100981242114,-0.6715108371600307,-0.6758056869811866,-0.6034084575012695,-0.436322363984517,-0.22218651358740238,-0.04559018589149479,0.04624540372987012,0.06656132490777093,0.06009935365034138,0.058624069842260436,0.08321361814826714,0.15181085506819267,0.25085984474656847,0.29990535345998137,0.2943932170293557,0.2739106810908648,0.2585011563821,0.2658206016386604,0.30899742985700895,0.3866099709643184,0.46550273779950163,0.5232692153458416,0.5651121874255385,0.6105465415195914,0.6795057629598346,0.7673439808679804,0.7475405580160038,0.5935092670467828,0.4973327365021606,0.48319795797391074,0.5116198586451145,0.541653210161993,0.5423068534341907,0.4815566098741132,0.29967163551291687,-0.06575210603326657,-0.4369129805182246,-0.6093524514006857,-0.6395522930763852,-0.5890702563893865,-0.4864513876317228,-0.33822305944719266,-0.15673095180512048,0.029668844400865677,0.18690935493962313,0.299311773144781,0.36455875145417294,0.3716207551297219,0.31907155658043235,0.22101572749318185,0.108794213953105,0.0072866841298850895,-0.07507229122180319,-0.1282965431407759,-0.14635180020457378,-0.1302467462694544,-0.09352671536153874,-0.05570536103261541,-0.05081618238460183,-0.09335792899080464,-0.183726750620968,-0.2909638748604687,-0.36498905906915624,-0.3948291383070324,-0.3868655046888048,-0.35281694752986553,-0.30536407694491186,-0.27233615297391495,-0.261154667291424,-0.2700251242551242,-0.2839093488727635,-0.28859229416801824,-0.27806857085533604,-0.2582652196160594,-0.23245630657740166,-0.19130702580810266,-0.12200701206449638,-0.006956042542272395,0.1679239409313671,0.35519074497154973,0.4665607515191938,0.4942588751373164,0.4730220221411571,0.41525835598191196,0.3305464959323321,0.2353061081230866,0.1394999304784642,0.04980012662110586,-0.028053115238843504,-0.08545587102290397,-0.12162815515342376,-0.14720519881890748,-0.1810796177850411,-0.2641017284119604,-0.29229300571222844,-0.05587739422079583,0.008999536163832101,0.03573571227526971,0.052877398465952345,0.06757005505374308,0.08191853217208621,0.09221602419497031,0.08251182657275685,0.038742154741701895,-0.0194151065545849,-0.05318658382457171,-0.04589706667012731,-0.0044284836975430255,0.04813416762086241,0.09652425502471858,0.13095067069599733,0.13526595385646548,0.08280008530505782,-0.05762593487586889,-0.27484719860185697,-0.474903797612353,-0.6214419281003268,-0.7181023802559823,-0.7810016792744541,-0.8130974514742549,-0.7892624129623667,-0.6585331219544368,-0.4415540077286301,-0.24060577045062248,-0.1102335749309662,-0.03505088914225508,0.009909014177219172,0.055122955854303435,0.11868189706873736,0.19114126640942763,0.2575356659444747,0.31201397335252024,0.3469674450193782,0.35474849433351696,0.34408277876000026,0.3250079779366199,0.2986680822850729,0.2524822958578604,0.16489997454669933,0.04426225380213278,-0.05201500780212623,-0.08593167640450892,-0.056891043265783744,0.03713992128805242,0.1960402393972724,0.3906144325281354,0.5524204016990453,0.651386984876244,0.7008262120101159,0.7174844708644482,0.721568831347416,0.7312880203137291,0.7556874799494908,0.7834062626695625,0.7828732089063295,0.7078937317610527,0.5372890775898417,0.3859124670347769,0.3690570552398137,0.4815022399718321,0.6199096247115023,0.7125974110534048,0.7579534052589759,0.7720352224252955,0.7740182123243536,0.7671006220365817,0.738732510583566,0.6800650374612746,0.6056918948447328,0.5408813551117195,0.4891516199834084,0.44029452269068947,0.38295092935238045,0.2878958115774734,0.07943850179818003,-0.2823786374941424,-0.5430416335885893,-0.6113992010485402,-0.5919300207682401,-0.5332007705205736,-0.4639762098483147,-0.4047922132224385,-0.3645162055922733,-0.3400444537324678,-0.31448080735528183,-0.2674401682720249,-0.20954884856791023,-0.2301013457786186,-0.39831766934096796,-0.6341968823062759,-0.8030275769309584,-0.8894287317273581,-0.8996751428248687,-0.8620932568055866,-0.8129956494280924,-0.7686195580012986,-0.7199798099182321,-0.6462179557930456,-0.5161704286656891,-0.3059796187744965,-0.038648028114629585,0.20735317961295363,0.3745893531874586,0.4722971812975085,0.5272533492105742,0.5473114932253605,0.4446920162336876,0.11139723203963635,-0.14870592052448597,-0.2841445828963915,-0.3646131261982093,-0.4076598367502044,-0.40919847109102664,-0.3700793823445095,-0.32598354006751984,-0.297535918712474,-0.2582811570680395,-0.21106225162034817,-0.1737072561186171,-0.15153332032479838,-0.14712419951723255,-0.171581627339264,-0.2638285174380503,-0.04213870064871831,0.030248469635630756,0.072134324957853,0.1233984668047301,0.20941933111157715,0.35735030582598154,0.5760135479075074,0.7875189209190565,0.9020472054523099,0.9447107680932495,0.9558910370580759,0.9460582298802841,0.9019333954495167,0.797916702863814,0.6320549346296244,0.44257515528565977,0.2795507665410157,0.16919828921040747,0.10027971650594869,0.06575951644681315,0.07447955271008452,0.1622889880928581,0.3594066642573225,0.4466295143564269,0.44212468405972577,0.4565146594818485,0.4926182469576599,0.5347707265016383,0.5694458505005217,0.5906434934300517,0.5979192583662128,0.5847343735579225,0.5308504512898731,0.42298480617549283,0.27256530850457883,0.12089741776501713,-0.006710370988458753,-0.1265380133313821,-0.25919397341500783,-0.40537246641287455,-0.5382701798257074,-0.6138724851859951,-0.6170437476406474,-0.5831875534840308,-0.5653452472120947,-0.595424432390208,-0.6843929524770801,-0.7890858719348469,-0.8489138302803939,-0.8517039149154586,-0.8207836640932306,-0.7735797174568094,-0.7211045540743697,-0.6600161068674597,-0.5886979283945084,-0.5103543050290649,-0.42950448101046257,-0.3480953857543458,-0.2629894463237047
