0.003982508740021536,0.0018241523358446846,-0.0004914354814268051,-0.0022352734272426352,-0.0028784923633708055,-0.0021923918120441673,-0.001349060729597699,-0.001349060729597699,-0.002435385573560933,-0.004550861244514125,-0.007123736989026806,-0.00966802263814102,-0.012583946012392594,-0.016171678418170805,-0.02001670051513983,-0.022975505504589874,-0.023690196151314978,-0.02163189626128468,-0.018058451847407234,-0.014585076295323659,-0.012140841868507146,-0.010625706164408083,-0.008838983957469359,-0.005608598639003316,-0.00014838538215844756,0.006469623018086899,0.012129949479619836,0.015260280929863751,0.015088754469069878,0.012072771052772515,0.006855554026973877,0.00028042715372951846,-0.006409048988226126,-0.012140841868507146,-0.015757159077834978,-0.01660049457015549,-0.014513609876575575,-0.010382713284866125,-0.006080292878287231,-0.003221541757059316,-0.0017349917384846777,-0.0012632983811755713,-0.0015491728759159966,-0.002278155042441103,-0.002449679739285359,-0.0010917728023565072,0.002038558647887408,0.006483916301836515,0.011315207610597027,0.015603333851451495,0.018948073377687752,0.021420892608053882,0.022978909927351413,0.023550658916832265,0.022878858705053712,0.02152094383035158,0.019777103238611326,0.017189935974298645,0.013359210688978473,0.008370691495022559,0.0025388403366453658,-0.002807023298698295,-0.00635187408927804,-0.006823567446587147,-0.004164930235627146,0.00015178336650388438,0.004397028080357366,0.007370128999481452,0.00828492914660043,0.007084254504741026,0.0047829599712191535,0.0016669209227500462,-0.002435385573560933,-0.0072237926211985515,-0.011883552177316337,-0.015499878206392256,-0.017615347703521786,-0.017986985428659147,-0.01677202103094936,-0.014785187559667146,-0.012498182781995656,-0.01043988289196536,-0.00885328076911821,-0.007981361355222892,-0.008181474383515998,-0.009196333690705957,-0.01085440223230119,-0.013412984693064255,-0.01670055461220128,-0.019545002747956678,-0.02098867203330766,-0.020717094350216084,-0.01934489148361319,-0.017143658756086724,-0.013913267263797019,-0.00952508980064485,-0.004879617354453018,-0.0006200792686524391,0.002753246648688089,0.004825840704442813,0.005640585219390047,0.005626291053665622,0.005183184263855749,0.004940191384313792,0.005411884741622898,0.0066697351644051965,0.008156286064954643,0.009657130249253708,0.011458140448093197,0.01405960452405473,0.01773310016022988,0.02243574574142018,0.02792454838808367,0.03391363360547992,0.04070317269999823,0.04865049776537899,0.056869418153347506,0.06282991856719414,0.06384477170056045,0.05781280486796572,0.04441954995137184,0.02700974647701507,0.010500456921826131,-0.0010345979034084222,-0.005837299116770466,-0.005265549245314806,-0.0033787740521287633,-0.003721823445817274,-0.007409611483767231,-0.013412984693064255,-0.019587884363155148,-0.02416188509875004,-0.026763349174711574,-0.02789255916177251,-0.02810695841801677,-0.027635269470581706,-0.026591822713917704,-0.02540544311975753,-0.024176181910398893,-0.02243234131865864,-0.020045285318689446,-0.016986429106941703,-0.013941852067346636,-0.011712034536270552,-0.01085440223230119,-0.011826382570217104,-0.014971010832109872,-0.019216246638017787,-0.022375171711559404,-0.022646749394650976,-0.019473536329208594,-0.012998465352728424,-0.00380758667621421,0.006641146832956345,0.016789713445611667,0.025308787500473287,0.0315694592207092,0.034742672286151584,0.035100013199640095,0.032727254011319755,0.027953133191633287,0.022235634477076688,0.017804566578977964,0.01707558794035209,0.021235069335611156,0.028496297377564518,0.03537159970247976,0.03900221372345644,0.03778724050599857,0.031269287914319925,0.020777668380076858,0.009314077327665963,-0.0007487230558780732,-0.00899621360661438,-0.016529028151407405,-0.02447635321678817,-0.032337915051772,-0.03821264341547362,-0.040513936185045875,-0.03865574755935906,-0.03326700495474136,-0.025705614426146807,-0.017729695737468337,-0.01106881030829353,-0.006895036511259657,-0.005408486492685018,-0.005994530529865105,-0.007552548731137444,-0.00832441163088621,-0.007423905649491657,-0.004750973390832423,-0.001163241867029018,0.002038558647887408,0.0037681024279788127,0.004368440630883323,0.005083128631684005,0.006784084962301367,0.009013914841024772,0.010300345657482644,0.009471306976810983,0.006655440998680771,0.0029104780617827276,0.00025183970425547594,0.00036618967854660785,0.003782396593703238,0.009457018984910219,0.015417510579008772,0.020205919390596006,0.02270733224425984,0.02176393670989354,0.016360897293626983,0.007212897586386813,-0.002907079812844848,-0.01106881030829353,-0.015642811043888424,-0.015814337504682297,-0.01179779776666749,-0.0042363984183248484,0.005483353806295408,0.015217399314665283,0.022735917047809456,0.026552345521480773,0.026409412683984605,0.022821680278206392,0.017147054359100175,0.01122944438020009,0.007284366651059323,0.0065410912007846005,0.008470748891143921,0.01125802918374971,0.012973284971940348,0.012487290393108346,0.009857241513597197,0.005897872264656431,0.0021529084457835783,-0.0005057292943613073,-0.0019065173173037416,-0.002321035775664763,-0.0019636922162518263,-0.001148948583279401,-0.0006629605310609839,-0.0009917171701847628,-0.0019065173173037416,-0.003021429610741018,-0.0038504674094378697,-0.004179223519376763,-0.0042221051345752315,-0.00403628627200655,-0.003879054858911912,-0.00392193647411038,-0.004679505208134721,-0.006666336033492508,-0.009596556219392935,-0.01246959797844604,-0.014399253022880934,-0.014699424329270211,-0.013455866308262721,-0.011597677682575913,-0.010425594900064594,-0.010611409352759232,-0.011997909031010978,-0.013527341546758892,-0.014370668219331317,-0.013999030494193957,-0.012555361208842977,-0.01029695005446919,-0.007809836658378636,-0.00570865515314987,-0.004350748216221018,-0.0038647606931874866,-0.003907642308385954,-0.004122048620428678,-0.003836173243713444,-0.0029928421612669754,-0.0021066294636220397,-0.0016206419405885074,-0.0013061791143992307,-0.0009631297207107202,-0.0002770291693840816,0.0005805959905893312,0.0014239271612332802,0.001967090465189706,0.002338727308352259,0.0028104215476361743,0.0036108710148841745,0.00544047219109694,0.008513629624367578,0.012701698469100686,0.01707558794035209,0.0205346755005349,0.022635857005763666,0.023207614814992603,0.022521508971817115,0.020820549995275325,0.01857643565255039,0.01691835829120707,0.01638949091692469,0.016561017377718562,0.016318015678428516,0.015374628963810304,0.01385949325971124,0.012044186249222901,0.010157412819986474,0.008313516596074473,0.006655440998680771,0.005011659567011493,0.0035108153827124295,0.002038558647887408,0.0006806522401434419,-0.000734429331141052,-0.002435385573560933,-0.0045079796293156565,-0.006937918126458126,-0.009096273648660167,-0.01043988289196536,-0.010897283847499658,-0.010797232625201957,-0.010640002976056934,-0.01003966036327838,-0.008653167740825104,-0.006952211410207743,-0.005923061465192593,-0.005394192326960593,-0.004593742859712593,-0.002807023298698295,0.0009665270876737909,0.0072557783196104736,0.015245984118214899,0.023779354984725366,0.0305260124640452,0.03249854912367856,0.028853647110801114,0.02114930610521422,0.012444408777909878,0.005111716081158047,9.460837935831843e-05,-0.002549736253431912,-0.00350741713377455,-0.0036074736479211034,-0.0037932925104897843,-0.005451368107883487,-0.009081976837011316,-0.014427846646178638,-0.01995952208829251,-0.02400465544960502,-0.02487657574547515,-0.022032118789971657,-0.016057330384224255,-0.008653167740825104,-0.0019636922162518263,0.001967090465189706,0.0026103094013178764,0.00016607717943838653,-0.004122048620428678,-0.0090533920334617,-0.013270051855568083,-0.015528463009941871,-0.015071062054407574,-0.012426716363247573,-0.008838983957469359,-0.005651480254201785,-0.0035931794821966777,-0.002549736253431912,-0.0017778733536831458,-0.0007201355182065497,0.0005805959905893312,0.002081440263085876,0.003553696997910898,0.004425615529831409,0.0045399653277275786,0.0042540908329871535,0.0041540343188406,0.004597141108650472,0.005697760118338132,0.007198603420662388,0.009156847678520942,0.011200850756902388,0.012973284971940348,0.014388360633993624,0.01483146477787907,0.013659381995367752,0.011186562765001623,0.008013347935609623,0.004111152703642131,-0.000920248105512252,-0.007666899411008424,-0.01529975812230068,-0.02140319137364349,-0.023904604227307318,-0.022060712413269363,-0.0168577842613463,-0.01029695005446919,-0.004293574199247742,-0.00023414790697553694,0.0015382778411042594,0.0014811020601813655,0.0004948334657722419,-0.0003770854189381923,-0.0004771417566897838,0.0007521209520260291,0.0038395714926513233,0.009171144490169793,0.01706129112870324,0.02710980651906086,0.03828752307673133,0.04949383325769951,0.059027778085423595,0.06410205257200317,0.06300143620823993,0.056026082661026995,0.0446339492076161,0.0315694592207092,0.019419762325122814,0.009871538325246048,0.0032678216211956637,-0.0006057855439154179,-0.0025354420877074864,-0.0032787175379822096,-0.0036074736479211034,-0.003979111373058466,-0.00472238594135838,-0.006166056108684168,-0.008352999080360253,-0.011154573538690466,-0.014670839525720595,-0.019316306680063573,-0.025333976701009446,-0.03203774374538272,-0.03811259219317592,-0.04212913193119073,-0.04345845318259515,-0.042029080708893024,-0.03826982184232094,-0.033224123339542895,-0.02803549199926868,-0.022975505504589874,-0.017672526130369105,-0.011626271305873617,-0.004650917758660678,0.003010533693954472,0.011129384338154302,0.019648467212764007,0.028153253275724863,0.03588617026511329,0.042904405427524696,0.04977970775243993,0.0552113319722561,0.055668732927790406,0.04759276301681423,0.03031160438805286,0.008542217073841622,-0.01051135813046153,-0.021760541106880086,-0.02404753706480349,-0.019373485106910893,-0.011011640701194298,-0.00286419819764638,0.001981383748939323,0.0022672591256545573,-0.0008916606560382095,-0.004650917758660678,-0.0060945870440116574,-0.00350741713377455,0.002581721069869025,0.009928707932345281,0.01627513406323005,0.020205919390596006,0.021106424490015752,0.01971993363151209,0.016946943094756688,0.013344913877329622,0.009028202832925537,0.00403968452094443,-0.0017492859042091032,-0.007652606127258806,-0.012112257064957532,-0.014399253022880934,-0.014570779483674808,-0.012641124439239914,-0.009510792988995998,-0.006623455300268849,-0.005051142933272083,-0.005322724144262891,-0.006937918126458126,-0.009425029758599062,-0.012040790646209446,-0.014699424329270211,-0.01760105971162102,-0.020817154392261873,-0.023561551305719575,-0.024562116447185107,-0.0233900248449257,-0.020631331119819147,-0.01677202103094936,-0.012083672261407915,-0.007023680474880252,-0.0017206984547350607,0.0036394593463330255,0.008728035936410302,0.012673113665551069,0.01463135351353558,0.01483146477787907,0.01405960452405473,0.013416389115825792,0.013073336194238049,0.012573053623505281,0.011758311754482473,0.010557635348673452,0.008785210835358388,0.0062409225403197485,0.0021386151620339613,-0.00437933654766987,-0.013784622418201616,-0.024333411559543914,-0.03250944151256587,-0.03542536488681745,-0.03253802631611549,-0.0260343705360857,-0.019687944405200938,-0.016185975229819658,-0.01638608649416315,-0.018387216777094213,-0.01924484026131549,-0.017486702857926383,-0.013798919229850467,-0.010125423593675317,-0.008295824181412169,-0.008495937209705274,-0.009196333690705957,-0.00878181258642051,-0.006680630199216934,-0.00392193647411038,-0.0019065173173037416,-0.0006057855439154179,0.001381046428009621,0.005597703604191579,0.012515884016406048,0.021592410249099664,0.031326466341167244,0.04016000851406699,0.04710677725773031,0.05136630987528708,0.05245263824714955,0.05049439839916503,0.04583462561342512,0.039502496294189206,0.03278442361841899,0.026795338401022727,0.02189258155548894,0.018018974654970304,0.014759998359130985,0.011558200490138984,0.008513629624367578,0.006755497512827324,0.007455891347903579,0.010857806655062729,0.01588920834619192,0.020734786764878388,0.023665006950778816,0.023507777301633795,0.020263097817443326,0.014731413555581368,0.008542217073841622,0.0029676529607308125,-0.0017492859042091032,-0.005751536768348338,-0.008953340811164,-0.011511914452178976,-0.013184288625171148,-0.013798919229850467,-0.013127110198323827,-0.011097403931591233,-0.00828153089766255,-0.005551423740055232,-0.0030500170602150607,-0.0006343729933894603,0.001795564886370642,0.004368440630883323,0.0069556096591456215,0.008985321217727068,0.00997158954754375,0.010100234393139155,0.00909966925167362,0.006855554026973877,0.0031963525565231526,-0.0021495110788205076,-0.009496496177347147,-0.018444386384193445,-0.027406573402688598,-0.03362435468797796,-0.03522525362247396,-0.03206632854893234,-0.026005785732536084,-0.01930200986841472,-0.013641689580705446,-0.009553674604194465,-0.007195205171724508,-0.005951648914666635,-0.005337017428012508,-0.00460803614346221,-0.0031929543075852732,-0.0013061791143992307,0.0007521209520260291,0.0026246026850674934,0.004111152703642131,0.005097421915433622,0.005812109034259494,0.006441035568612856,0.006855554026973877,0.006912728925921962,0.007141428521714303,0.007827529073040941,0.009342670950963665,0.011844074984879409,0.014988703246772176,0.018018974654970304,0.019877163280657112,0.019891460092305965,0.018247679542611497,0.01590349633809269,0.01391667168655856,0.01323056584338307,0.014245427796497453,0.016618186984817793,0.019162481453680092,0.02012015616019907,0.018519257225703068,0.014231130984848604,0.007927585587187494,0.0012809899138630674,-0.00392193647411038,-0.007123736989026806,-0.00885328076911821,-0.010196890012423403,-0.011597677682575913,-0.01232666514094987,-0.010840114240400425,-0.005722949318874296,0.0034250530342903023,0.015431807390657625,0.027395681013801288,0.03565747419722018,0.037915885351593966,0.033684928717838736,0.024165289521511583,0.011958423018825963,0.00025183970425547594,-0.00855311210865336,-0.014113378528140508,-0.017200828363185955,-0.018658794460185785,-0.01900184738177353,-0.018901787339727746,-0.018644497648536935,-0.018587328041437704,-0.019259128253216254,-0.02146036980049081,-0.025905725690490298,-0.03209492217223005,-0.03858428114061098,-0.04378720929253404,-0.046260028522900176,-0.04577403394406817,-0.042900992185015065,-0.03865574755935906,-0.033752999533573365,-0.027906847153673277,-0.020345456625078723,-0.010654290967957699,0.0007807085778950334,0.01174401494283362,0.019891460092305965,0.024994328202183242,0.027853081969335586,0.028882231914350732,0.027738733935389028,0.02462269047704588,0.020649023534481455,0.017047003136802477,0.014431242249192091,0.012673113665551069,0.010886391458612346,0.008356397329298132,0.0046829034570726,0.0006663585154064206,-0.0018922231515793157,-0.0016063477748640817,0.00130957736333711,0.005726347567812175,0.010085937581490302,0.013487855534573878,0.01531745935671107,0.015374628963810304,0.01411678295090205,0.012387239170810645,0.01065769539071924,0.009314077327665963,0.008613685256539324,0.008227754247652345,0.007498772963102047,0.006097984410974728,0.004397028080357366,0.0033107032363941316,0.0032821157869200894,0.004068271970418472,0.005111716081158047,0.0062409225403197485,0.0072557783196104736,0.008141991899230218,0.009356958942864431,0.01107221473105507,0.013144802612986135,0.014902940016375241,0.015117348092367583,0.013330625885428857,0.009914419940444516,0.005955048045579323,0.002324434024602642,-0.0006343729933894603,-0.003521711299498976,-0.006666336033492508,-0.010182602020522636,-0.013999030494193957,-0.017729695737468337,-0.020559864701071063,-0.02194635555957472,-0.022060712413269363,-0.021303140151345788,-0.020374041428628337,-0.020145345360735235,-0.02106014727180383,-0.02364731453611651,-0.027092105284650465,-0.029850799009757022,-0.03025103035819209,-0.027635269470581706,-0.022360874899910555,-0.01551416619829302,-0.00816718109976638,-0.001349060729597699,0.004239796667262727,0.008113404449756176,0.010257464042284175,0.010614813775520772,0.009113966063322473,0.0058549915314327705,0.0017669774368965997,-0.0015777603253900392,-0.003007136326991401,-0.0021066294636220397,0.0009951145371478334,0.00592646059610528,0.011844074984879409,0.017818863390626816,0.022993206739000262,0.027238451364656267,0.03051171565239635,0.032670075584472436,0.032712957199670906,0.029625507364625454,0.024551224058297797,0.0196198735894663,0.016332312490077366,0.015217399314665283,0.014674235128734048,0.013016157767390728,0.009599951822406388,0.005126009364907664,0.0009522338039241739,-0.001391942344796167,-0.0006772542557980051,0.0026103094013178764,0.006798379128025792,0.009485603788459834,0.00962854544570409,0.0077417667246188135,0.005183184263855749,0.0033107032363941316,0.0032821157869200894,0.00536900312642443,0.009199729293719408,0.01345927073102426,0.016804010257260516,0.018276264346161114,0.017504404092336775,0.014917228008276006,0.011615378916986305,0.008699447604961452,0.006112278576699153,0.003653753512057451,0.0011094652170188122,-0.0013204732801236562,-0.0031643677400860397,-0.0039505239235844225,-0.0035645920327226355,-0.002306742491915146,-0.0009917171701847628,-9.12103950128816e-05,0.000809296027369076,0.002024265364137791,0.003782396593703238,0.005111716081158047,0.005140303530632089,0.003539402832186472,0.0007235335025519866,-0.002249566710992252,-0.004436511446617955,-0.005522836290581189,-0.005737242602623913,-0.005322724144262891,-0.004593742859712593,-0.004250692584049274,-0.004393629831419487,-0.004865324070703401,-0.0055943053552537,-0.006623455300268849,-0.008224355998714466,-0.010582824549209615,-0.013670274384255063,-0.01737235482397983,-0.0207456791537657,-0.02238945970346017,-0.02141748818529234,-0.017958400625109533,-0.013427281504713104,-0.009339266528202125,-0.006437636437700168,-0.004936792253401104,-0.0043650423819454436,-0.004436511446617955,-0.004993967152349189,-0.005980236364140678,-0.007180911887974891,-0.008210061832990041,-0.00843876231075719,-0.007809836658378636,-0.006580574567045189,-0.005337017428012508,-0.00403628627200655,-0.0026497918856036562,-0.0012918858306496138,-0.0003770854189381923,0.00013748964176686312,0.0006949460530779441,0.0017240958216981313,0.002996240410204855,0.004497084594503919,0.006069396961500685,0.007513066246851665,0.008699447604961452,0.00977147828320026,0.010471872118276515,0.01045758412637575,0.010328939280780347,0.010857806655062729,0.01240152716271141,0.014917228008276006,0.018490672422153454,0.022578687398664435,0.026195004607992265,0.028682120650007244,0.02958262574942699,0.02886793510270188,0.026723871982274647,0.022978909927351413,0.01769021854503141,0.011643963720535921,0.006155160191897622,0.002581721069869025,0.0019385021337408547,0.0038967463915994087,0.007384423165205878,0.011286613987299323,0.014888643204726389,0.0174329288538406,0.01869078368649694,0.018905191762489285,0.018633605259649622,0.018133322688916858,0.01727569920469558,0.016403778908825453,0.015817741927443837,0.014974406435123324,0.012715995280749539,0.008799504119108004,0.0037538091442291957,-0.0022066859777685926,-0.009753785868537956,-0.019673647593552085,-0.031880514096237704,-0.04465912076865609,-0.055408021174341876,-0.062383374721554814,-0.06531359490745524,-0.06519924687350868,-0.06366981435776077,-0.06161151446773047,-0.058967168776570475,-0.05530796995204418,-0.050233686645716515,-0.043601386020091316,-0.0358684690307029,-0.028078373614467148,-0.02151754822733813,-0.01677202103094936,-0.013341518274316169,-0.010154008397224934,-0.006551987117571146,-0.0022638608767166775,0.0029390655112567702,0.0089424396025286,0.015331747348611837,0.02122078134371039,0.02612353818924418,0.030211553165755158,0.03331329981244945,0.03441391617621269,0.0324556675084801,0.027610089089793628,0.02160670706074852,0.016804010257260516,0.014902940016375241,0.01586061472289422,0.018462087618603837,0.02114930610521422,0.022793086654908687,0.0230789699693972,0.022907443508603326,0.023193318003343753,0.023650710139129966,0.022978909927351413,0.02037744585138988,0.016489542139222386,0.012730283272650302,0.010543338537024601,0.01065769539071924,0.013159099424634984,0.017204232785947498,0.021306544574107328,0.023965178257168093,0.02420817113671005,0.022364279322672095,0.019834281665458645,0.01790462662102375,0.01706129112870324,0.016975527898306305,0.017189935974298645,0.017261411212794814,0.017161351170749028,0.017032706325153624,0.016718247026863583,0.01593208996139039,0.014002434916955497,0.010872094646963494,0.007170015971188345,0.003453640483764345,0.00022325216658395248,-0.002135216913096082,-0.00350741713377455,-0.00403628627200655,-0.004565155410238551,-0.005365604877486551,-0.005980236364140678,-0.0063804615387520825,-0.006752099263889445,-0.007423905649491657,-0.0085102313754297,-0.01003966036327838,-0.01205507863811021,-0.014256320185384766,-0.01612879680297234,-0.017672526130369105,-0.0195021299525063,-0.022532401360704425,-0.026963460439055065,-0.0317518692506423,-0.035239550434122816,-0.03502514235813047,-0.02947916128461966,-0.01855873441814,-0.004179223519376763,0.010443287314726898,0.021706767102794306,0.027195569749457797,0.02633794626523652,0.020420327466588346,0.011858362976780175,0.0029390655112567702,-0.004322161648721784,-0.008910459195965531,-0.010640002976056934,-0.009925312329331828,-0.0077097810262068914,-0.005322724144262891,-0.004307867482997359,-0.0058515924005200825,-0.009953897132881443,-0.01551416619829302,-0.020316871821529105,-0.02234658690800979,-0.02078856076896417,-0.016228856845018128,-0.010525646122362295,-0.005122611115969784,-0.0007630167806150944,0.002896183896058302,0.007041372889542558,0.01241582397436026,0.018462087618603837,0.023579243720381882,0.026152122992793795,0.025208736278175586,0.02140659579640503,0.016003556380138475,0.010414702511177282,0.005955048045579323,0.0030962969243514085,0.0017669774368965997,0.0013524589785355783,0.001138052666492855,0.0007664147649605312,0.0002375458913209738,-0.0002627354446470604,-0.00041996676954421787,-0.000176972919829971,9.460837935831843e-05,0.0003518959538095866,0.0006949460530779441,0.0012238150149149825,0.0016383334732760035,0.0014811020601813655,0.0005520084529178078,-0.000734429331141052,-0.0020351603989495286,-0.003350185720679912,-0.004465098896091997,-0.005194080180642296,-0.0054227806584094445,-0.005351311593736934,-0.00513690528169421,-0.005051142933272083,-0.004822442455504933,-0.003636061097395146,-0.0011918293165030605,0.0024816654376972804,0.006912728925921962,0.011286613987299323,0.01510305128071873,0.017918923432672602,0.01971993363151209,0.020706201961328774,0.021020661259618816,0.021077839686466135,0.02090631322567226,0.020420327466588346,0.019333999094725877,0.017375759246741368,0.014031019720505111,0.009528485403658304,0.005097421915433622,0.00119522756544094,-0.001463410527493869,-0.0030643112259394864,-0.004136342786153104,-0.004993967152349189,-0.006037411263088763,-0.008210061832990041,-0.01209796025330868,-0.017115065132789018,-0.021760541106880086,-0.02463358286593319,-0.02491945736067362,-0.022703927821498295,-0.018844608912880423,-0.014656542714071743,-0.01085440223230119,-0.007438198933241273,-0.004836736621229359,-0.0027784358492242522,-0.0006343729933894603,0.0021386151620339613,0.005597703604191579,0.009328374139314814,0.01240152716271141,0.014016722908856262,0.013830908456161623,0.012215712710016771,0.010114531204788006,0.008127697733505792,0.0062409225403197485,0.0037538091442291957,0.0002375458913209738,-0.0038504674094378697,-0.007152324438500848,-0.008238649282464084,-0.006937918126458126,-0.00403628627200655,-0.0003342042447271285,0.003467933767513962,0.006712616779603664,0.008813797402857622,0.0099858863591926,0.010772043424665792,0.011658251712436686,0.013059039382589196,0.014745701547482132,0.01654672056606971,0.018119034697016093,0.019019539796435836,0.018805131720443496,0.01754728570753524,0.015617621843352261,0.01287322492989456,0.008499335458643153,0.0026817775840155783,-0.0037932925104897843,-0.009911015517682977,-0.014670839525720595,-0.017572466088323316,-0.01857303122978885,-0.018087045470704936,-0.01604304239232349,-0.01278406609648417,-0.009296384913003657,-0.006451929721449785,-0.004593742859712593,-0.0035645920327226355,-0.0031643677400860397,-0.00350741713377455,-0.004665211924385104,-0.006266111740855912,-0.007695486860482465,-0.00866746190654953,-0.008838983957469359,-0.008024242970421359,-0.006566280401320764,-0.004851029904978976,-0.003007136326991401,-0.0006200792686524391,0.0022386716761805146,0.005283240778002302,0.00794187887093711,0.009642833437604855,0.010286057665581877,0.009800063086749876,0.007770354174092856,0.0035965777311345575,-0.0029642547117929336,-0.011611974494224764,-0.020974384041406894,-0.02949345809626851,-0.03626869155938987,-0.04102851556742749,-0.04274376253587005,-0.04017089208320621,-0.03326700495474136,-0.023375736853024937,-0.0127411844812857,-0.0035931794821966777,0.00305341530915294,0.007513066246851665,0.01174401494283362,0.0177902785870772,0.026680990367076177,0.037958766966792436,0.05013704866592844,0.06171499657203398,0.07079154044422377,0.075022497077979,0.07302136679504793,0.06451658073208709,0.05056586481791312,0.03319894295875482,0.015388925775459155,-0.0009631297207107202,-0.014299201800583234,-0.022646749394650976,-0.023347143229727235,-0.01547128458309455,-0.0008344855806951626,0.016189379652581198,0.030383070806800944,0.03921662179944878,0.042918702239173545,0.042818642197127756,0.04027435654801355,0.036457919254594136,0.031869621707350394,0.02622358941154188,0.019434059136771667,0.012129949479619836,0.005211772595304601,-0.0010488920691328477,-0.0069236239607336995,-0.012498182781995656,-0.017258006790033274,-0.020288278198231403,-0.02140319137364349,-0.02124596172449847,-0.02080285758061302,-0.02090291762265881,-0.02161759944963583,-0.022703927821498295,-0.023690196151314978,-0.024076130688101195,-0.02386172261210885,-0.023018387119788337,-0.021560429842536595,-0.01981658925079634,-0.018144223897552256,-0.0170864803292394,-0.01677202103094936,-0.016743436227399745,-0.016843487449697447,-0.01692925068009438,-0.017200828363185955,-0.018058451847407234,-0.01961647798645285,-0.021388903381742725,-0.022761097428597533,-0.02349008488697149,-0.02327567681097915,-0.022003533986422043,-0.01980229243914749,-0.016986429106941703,-0.013841800845048933,-0.010725757386705784,-0.007924186456274806,-0.0061088803277612735,-0.005522836290581189,-0.005580011189529274,-0.005408486492685018,-0.0045079796293156565,-0.002721260950276167,-0.0008058980430236392,0.0005948897153263525,0.0015239836753798337,0.0018670339510431528,0.001781271602621025,0.0017098025379485144,0.0019385021337408547,0.002924771345532344,0.004968777951813026,0.007884703971989026,0.010929273073810815,0.01323056584338307,0.014717116743932515,0.01590349633809269,0.01728999601634443,0.018948073377687752,0.020892016414023412,0.022735917047809456,0.024393994409152776,0.025823366882854904,0.026966864861816604,0.02766725869689286,0.027795903542488263,0.027538613851297453,0.027152688134259327,0.026495175914381542,0.02545172915771754,0.024108111094664264,0.022292812903924007,0.019834281665458645,0.016475254147321625,0.012544468819955665,0.008770916669633963,0.004954484668063409,0.0007235335025519866,-0.003821879959963827,-0.00813859276831753,-0.010782935813553104,-0.010825817428751572,-0.00881040003589455,-0.006065998712562806,-0.0037932925104897843,-0.0029785488775173584,-0.0035645920327226355,-0.004922498969651487,-0.0063947548225016995,-0.007481080548439743,-0.007952773905748849,-0.007967068071473274,-0.007766955925154977,-0.007266674236397019,-0.006437636437700168,-0.004993967152349189,-0.0032787175379822096,-0.0017349917384846777,-0.000977423004460337,-0.0013347665638732732,-0.002421092289811316,-0.004407923997143912,-0.007352437466793956,-0.010568527737560764,-0.012455301166797189,-0.011583389690675149,-0.007409611483767231,-0.000548610556769852,0.006998491274344089,0.013044751390688432,0.016103616422184264,0.015803445115794984,0.013073336194238049,0.009285492524116345,0.005626291053665622,0.0027103650334896214,0.0007092397778149653,-0.0010774795186068904,-0.003021429610741018,-0.004993967152349189,-0.006266111740855912,-0.006065998712562806,-0.0042363984183248484,-0.0014919979769679116,0.0006377709777348972,0.001495396225905791,0.001509689509655408,0.0016526276390004292,0.002324434024602642,0.003010533693954472,0.0029819462444804295,0.002167202611508004,0.0013238715290615358,0.0015954527400523443,0.0033249965201437486,0.006155160191897622,0.009271195712467494,0.011958423018825963,0.01370226361056622,0.015031584861970645,0.01650383895087124,0.018076153081817623,0.019691348827962477,0.02100637326771805,0.02156382544555005,0.021235069335611156,0.0199772233227029,0.01857643565255039,0.017761684963779494,0.017961805047871073,0.01907670940353507,0.0204346242782372,0.021277950950809626,0.021478062215153113,0.0215781222571989,0.021749648717992776,0.02114930610521422,0.018733665301695412,0.014302597403596686,0.008342104045548516,0.0014525154926821316,-0.0052941366947888485,-0.01116887035033932,-0.016071627195873107,-0.019745122832048254,-0.02161759944963583,-0.021488954604040423,-0.01980229243914749,-0.017029301902392085,-0.014370668219331317,-0.013184288625171148,-0.014084793724590892,-0.016729139415750893,-0.019645062790002468,-0.021960652371223573,-0.02349008488697149,-0.023375736853024937,-0.021131613690551915,-0.016786309022850124,-0.011583389690675149,-0.006337579923553615,-0.0020208671151999117,0.0005520084529178078,0.0013238715290615358,0.00032330841613806315,-0.0023925048403372734,-0.006480518052898636,-0.011226039957438552,-0.015271173318751063,-0.01784405259116298,-0.018858905724529276,-0.018887490528078893,-0.01887320253617813,-0.019830886062445194,-0.022260823677612854,-0.025762784033246045,-0.029036057140734213,-0.030879948954772172,-0.030908542578069874,-0.028864530679940343,-0.02510528063311634,-0.02043121985547566,-0.015814337504682297,-0.011640559297774382,-0.00790989317252519,-0.004407923997143912,-0.0013347665638732732,0.00043765847862667595,-0.0001626791950929497,-0.003221541757059316,-0.006952211410207743,-0.008867577580767063,-0.007095149539552763,-0.001634936106312933,0.005140303530632089,0.010300345657482644,0.01182977817323056,0.009328374139314814,0.005054540300235153,0.003167765107049111,0.006798379128025792,0.0162894308748789,0.028896528725999585,0.04127492168947908,0.05038004154547039,0.054253657265737124,0.05180942283892061,0.04406220021813525,0.034170923296670735,0.025709018848908347,0.020062986553099838,0.016975527898306305,0.015260280929863751,0.01405960452405473,0.012287179128764857,0.009471306976810983,0.005611997769916005,0.001738389987422557,-0.0003342042447271285,0.0008235897521060972,0.006112278576699153,0.01590349633809269,0.029125224793892693,0.043461866425104786,0.05618331231017201,0.06390194130765968,0.06365894842811771,0.05432512368448521,0.03780153731764742,0.019005242984786983,0.0034250530342903023,-0.005580011189529274,-0.007952773905748849,-0.005937355630917019,-0.002321035775664763,0.00045195220336369723,0.00130957736333711,0.00013748964176686312,-0.002721260950276167,-0.006451929721449785,-0.009796667483736423,-0.012583946012392594,-0.015414114975995317,-0.018816024109330805,-0.022718215813399063,-0.026220184988780343,-0.02876447945764264,-0.030236733546543233,-0.030937127381619495,-0.030865660962871407,-0.029464873292718893,-0.02613443057813149,-0.021388903381742725,-0.015914397546728087,-0.010968759085995828,-0.007938480621999231,-0.007481080548439743,-0.009239215305904424,-0.011440448033430892,-0.011883552177316337,-0.009496496177347147,-0.004965380584849955,0.0003376022290725653,0.004597141108650472,0.006969902942895239,0.007498772963102047,0.006655440998680771,0.005511941255769451,0.0046543160075985576,0.004011097071470388,0.00373951497850477,0.003953922172522302,0.004883015603390898,0.006812672411775409,0.00961424863405524,0.012858928118245707,0.015989259568489622,0.0184763756105046,0.02002010493790137,0.0204346242782372,0.01954840717071822,0.01753298889588639,0.014845761589527922,0.012344357555612176,0.010772043424665792,0.010071649589589537,0.00955707020720792,0.008256341697126388,0.005426178025372515,0.0005520084529178078,-0.0063947548225016995,-0.014099090536239743,-0.02057415269297183,-0.023790256193360768,-0.022889742274192937,-0.017958400625109533,-0.010339831669667657,-0.0025354420877074864,0.003367878135342217,0.006441035568612856,0.007098547788490644,0.005955048045579323,0.0033107032363941316,-0.0002627354446470604,-0.0037932925104897843,-0.006723510932440594,-0.00885328076911821,-0.009953897132881443,-0.009868133902484507,-0.0090533920334617,-0.008453056476481615,-0.008796105870170125,-0.010211186824072254,-0.011812085758568252,-0.012455301166797189,-0.011712034536270552,-0.009996778748079912,-0.00809571203509387,-0.006852155778035998,-0.0063804615387520825,-0.006294699190329955,-0.006008823813614721,-0.00525125507959038,-0.004579448693988167,-0.004436511446617955,-0.004822442455504933,-0.005322724144262891,-0.006008823813614721,-0.006823567446587147,-0.007381024916267998,-0.007109442823302381,-0.005537129574330805,-0.0030643112259394864,-0.00011979793268440501,0.0024959587214468974,0.0041540343188406,0.0046686092913481745,0.004740078356020685,0.004940191384313792,0.006255215824069366,0.008599391972789708,0.011715430139284007,0.01530316254506222,0.018633605259649622,0.021063542874817282,0.02239286412622171,0.022507212160168266,0.021392298984756176,0.018490672422153454,0.013259159466680772,0.005826403199983919,-0.00206374873039838,-0.007881304841076337,-0.009153452075507487,-0.005394192326960593,0.0016097460238019613,0.00925690772056673,0.015974971576588858,0.020649023534481455,0.022664441809313287,0.022407160937870558,0.021120721301664605,0.019920044895855582,0.019062421411634306,0.018290561157809967,0.017032706325153624,0.014745701547482132,0.011558200490138984,0.008642272706013365,0.007084254504741026,0.006912728925921962,0.007398716448955494,0.007784647457842473,0.007141428521714303,0.005140303530632089,0.002395903089275153,-9.12103950128816e-05,-0.0017921666374327628,-0.0027641425654746352,-0.0031643677400860397,-0.002721260950276167,-0.00164922939006255,-0.0005771980062438945,-0.00021985418223851569,-0.0007916043182866179,-0.001992279665725869,-0.003421654785352423,-0.0048939115201774444,-0.006494812218623061,-0.007881304841076337,-0.0085102313754297,-0.008152886934041955,-0.007238086786922977,-0.0058515924005200825,-0.0035788861984470607,-0.0004914354814268051,0.0026960717497400044,0.004611434392400089,0.004111152703642131,0.0008521772897776207,-0.004193517685101188,-0.009625141022942551,-0.014327786604132848,-0.01762964451517064,-0.019101898604071233,-0.018701676075384255,-0.017115065132789018,-0.015028180439209105,-0.012955583737529957,-0.011511914452178976,-0.01092587747079736,-0.01116887035033932,-0.0122551899024537,-0.013827504033400084,-0.01495671402046102,-0.01495671402046102,-0.014170556954987827,-0.012555361208842977,-0.009925312329331828,-0.006451929721449785,-0.0024925613544838267,0.0015811585743279186,0.0051974784295801746,0.007555946980075324,0.008242048413376772,0.0077417667246188135,0.006655440998680771,0.006040809512026643,0.006498209585586133,0.007970466320411153,0.010057352777940686,0.01255875681185643,0.015374628963810304,0.01806185627016877,0.020277385809344094,0.02152094383035158,0.021320832566008092,0.019105303026832773,0.014602768709985964,0.00787041068823941,0.0001946646289124291,-0.006680630199216934,-0.010840114240400425,-0.011283218384285872,-0.007952773905748849,-0.0019065173173037416,0.005297534943726727,0.011815490181329795,0.0162894308748789,0.01876225010524503,0.020091571356649452,0.021392298984756176,0.022878858705053712,0.023750770181175752,0.0236364221472292,0.022635857005763666,0.02126366295890886,0.020062986553099838,0.019162481453680092,0.018562138840901538,0.01809044107371839,0.016460957335672773,0.01162966690888707,0.0026960717497400044,-0.00952508980064485,-0.022075000405170127,-0.03113723864596298,-0.03465350463299311,-0.033224123339542895,-0.02893600591843651,-0.022946920701040256,-0.01620027204146851,-0.00988243071413336,-0.004522273795040083,0.0005377147281807866,0.006298097439267834,0.013201981039833452,0.021478062215153113,0.030983413419579497,0.03970260755853269,0.04411937864498257,0.04117486164743329,0.03012578993535822,0.01287322492989456,-0.00628040502460553,-0.02250381655715481,-0.032523729504466636,-0.035811299423603664,-0.03339564980033677,-0.028207018460062554,-0.022875454282292172,-0.01918766183446817,-0.017486702857926383,-0.017358066832079064,-0.018287156735048424,-0.019673647593552085,-0.020717094350216084,-0.02048838946257489,-0.019101898604071233,-0.017543881284773702,-0.016843487449697447,-0.016271738460216595,-0.013956148878995487,-0.008681755190299147,-0.000920248105512252,0.007698885109420346,0.014988703246772176,0.019634170401115154,0.021449477411603496,0.020820549995275325,0.019062421411634306,0.01731858081989405,0.0157319786970469,0.014316894215245539,0.013187684228184601,0.012372942359161792,0.012015601445673282,0.012029889437574048,0.01198700782237558,0.011715430139284007,0.011157977961452006,0.010271760853933026,0.009328374139314814,0.008971033225826304,0.009714308676101027,0.011815490181329795,0.014588471898337112,0.01774739697187873,0.02090631322567226,0.023450598874786475,0.02506579462093133,0.025437432346068687,0.023950881445519243,0.02094919484087073,0.01717564798239788,0.013373507500627326,0.009457018984910219,0.005569116154717536,0.0022386716761805146,8.845863360977136e-06,-0.001148948583279401,-0.001692111005261018,-0.002321035775664763,-0.003636061097395146,-0.005622892804727742,-0.007838424107852678,-0.010025372371377616,-0.01216943549180485,-0.014442134638079402,-0.016671960988903573,-0.018944668954926212,-0.02140319137364349,-0.024404886798040086,-0.028321375313757193,-0.03288107041795515,-0.03666892290782494,-0.03822694022712247,-0.03698338220611498,-0.03305260569849711,-0.027535218248284005,-0.021546133030887746,-0.016328916887063914,-0.012826947711682638,-0.011183158342240084,-0.011097403931591233,-0.011469041656728596,-0.010940165462698125,-0.009024807229912083,-0.005951648914666635,-0.002435385573560933,0.0007521209520260291,0.0032964090706697063,0.00525465332852826,0.0062695099897937916,0.005640585219390047,0.0034107588685658766,0.00029472087846653974,-0.0025068546382334437,-0.004164930235627146,-0.004465098896091997,-0.003650354381144763,-0.0014777046932182947,0.002367314757826302,0.007355834833757026,0.01288752174154341,0.018519257225703068,0.023850830223221542,0.028624942223159925,0.03251284593532742,0.03492848673884622,0.035242954856884355,0.03196968174939618,0.024122407906313113,0.01323056584338307,0.003453640483764345,-0.0004771417566897838,0.0038967463915994087,0.015817741927443837,0.031226406299121455,0.045377233477638904,0.05438230211133253,0.05616901549852316,0.05116619861094359,0.0416608474065172,0.030297316396152095,0.01903383660808469,0.009113966063322473,0.00130957736333711,-0.004465098896091997,-0.008395880695558721,-0.010840114240400425,-0.012140841868507146,-0.012512479593644509,-0.012040790646209446,-0.01106881030829353,-0.009839549098934891,-0.008538818824903743,-0.007509667997913786,-0.0063804615387520825,-0.005279842529064422,-0.004021992106282125,-0.002692673500802124,-0.0019636922162518263,-0.002706966784551741,-0.005122611115969784,-0.008524524659179317,-0.011869264185415573,-0.01407049691294204,-0.015156825284804509,-0.015499878206392256,-0.015714286282384596,-0.015828634316331146,-0.015542759821590724,-0.014427846646178638,-0.012412428371346809,-0.009982490756179149,-0.007766955925154977,-0.006323286639803997,-0.0059659430803910615,-0.006580574567045189,-0.007566842896861869,-0.007967068071473274,-0.007280968402121444,-0.006023117979339147,-0.004822442455504933,-0.003721823445817274,-0.002078042014147997,0.0004233646656921738,0.0032249400059971953,0.005554821988993111,0.006812672411775409,0.007041372889542558,0.006355272338215919,0.004997365401287068,0.003553696997910898,0.0027246591992140462,0.002581721069869025,0.0031105902081010254,0.004382734796607749,0.006369566503940345,0.00809911028403175,0.00817057934870426,0.005797815750509876,0.0018813272347927696,-0.0013633540133473159,-0.002006572949475486,0.0003376022290725653,0.004711490906546643,0.009371255754513282,0.01240152716271141,0.012944691348642644,0.010972154689009282,0.007112841954215069,0.002653190134541536,-0.001349060729597699,-0.0042363984183248484,-0.0053084299785384655,-0.004550861244514125,-0.0025926169866555713,-0.00011979793268440501,0.0022386716761805146,0.003653753512057451,0.0039968029057459616,0.0033535839696177913,0.002081440263085876,0.0012095208491905568,0.0014382213269577059,0.002738952482963663,0.0045399653277275786,0.006183747641371665,0.006898434760197536,0.006612559383482302,0.005712053402087749,0.004625727676149706,0.004011097071470388,0.004282678282461196,0.004854428153916855,0.004940191384313792,0.004625727676149706,0.0045399653277275786,0.00491160305286494,0.005454765474846558,0.005897872264656431,0.006026516228277027,0.006369566503940345,0.0070556670552669835,0.008084816118307324,0.008413572228246216,0.0072557783196104736,0.004597141108650472,0.00119522756544094,-0.0022638608767166775,-0.005265549245314806,-0.007166617722250466,-0.007867011557326721,-0.007638311961534381,-0.006937918126458126,-0.005908768181442976,-0.0046366235929362525,-0.003435948951076848,-0.0025068546382334437,-0.0018493424183556565,-0.001277591664925188,-0.0005057292943613073,0.0005805959905893312,0.002167202611508004,0.0038824531078497917,0.004868721437666472,0.004354146465158898,0.0021814967772324297,-0.001163241867029018,-0.004693799373859146,-0.007495373832189359,-0.008981925614713615,-0.00911057046030902,-0.008038537136145784,-0.006451929721449785,-0.004908204803927061,-0.0033644798864043376,-0.0016206419405885074,0.0005234210034437654,0.002395903089275153,0.0031820592727735356,0.0021100277125599186,-0.001349060729597699,-0.007138030272776423,-0.01454219468012519,-0.021860592329177787,-0.026834824413207746,-0.027606684667032085,-0.02393318903085694,-0.01724370997838442,-0.009496496177347147,-0.0021495110788205076,0.0037681024279788127,0.007627416926722643,0.009142550866872089,0.008928151610627835,0.007698885109420346,0.0058549915314327705,0.0036966342452811104,0.001252402464389025,-0.0012347109317015286,-0.003407361501602806,-0.004708092657608763,-0.004436511446617955,-0.0017635791879587201,0.0030962969243514085,0.008656566871737792,0.01338779549252809,0.01736146243509252,0.021749648717992776,0.0277816155505875,0.03638645283584605,0.0483217416554401,0.06353030358252232,0.07958220100192505,0.09206070692593885,0.09749226058777033,0.09391885145288523,0.08089723426142871,0.06058578658497304,0.038087411812387846,0.017504404092336775,0.0001803709041754078,-0.014041912109392424,-0.025791377656543744,-0.03436763013825268,-0.039127445326542214,-0.04015659527155736,-0.03868434118265677,-0.03625440356748911,-0.033681524295077196,-0.031094357030764515,-0.028650131423696084,-0.026377414637925364,-0.024176181910398893,-0.022203645250765534,-0.020845739195811487,-0.020131048549086383,-0.019859470865994808,-0.019516417944407064,-0.01887320253617813,-0.018458683195842297,-0.018501564811040764,-0.019073313800521616,-0.01971652920875055,-0.01987376767764366,-0.019487833140857447,-0.018701676075384255,-0.01758676289997217,-0.015814337504682297,-0.01371315599945353,-0.01165485610942323,-0.009896727525782212,-0.00836729236410987,-0.007123736989026806,-0.006180349392433785,-0.005222667630116338,-0.004150636069902721,-0.002921373096594465,-0.002078042014147997,-0.0016206419405885074,-0.0010774795186068904,0.00012319591702984184,0.0025674277861194084,0.005812109034259494,0.008885269995429367,0.010557635348673452,0.010014471162742218,0.008270635862850814,0.007284366651059323,0.008313516596074473,0.011200850756902388,0.014674235128734048,0.017718803348581027,0.018848013335641962,0.017147054359100175,0.012444408777909878,0.005497647090045026,-0.001520585426441954,-0.005722949318874296,-0.0051654927311682525,-0.0004485542190182604,0.006355272338215919,0.013430677107726559,0.01914818464203124,0.022635857005763666,0.02323619961854222,0.021092136498114988,0.01747581046903907,0.014359775830444005,0.012644528862001453,0.011886956600077879,0.010686280194268856,0.008313516596074473,0.005712053402087749,0.004196915934039068,0.004968777951813026,0.00809911028403175,0.012029889437574048,0.01405960452405473,0.012544468819955665,0.008084816118307324,0.0028104215476361743,-0.0009917171701847628,-0.00206374873039838,-0.0003913792318726944,0.002367314757826302,0.004339853181409281,0.004196915934039068,0.0017526841531469827,-0.0024639730230349758,-0.007423905649491657,-0.012755472473186464,-0.01764394132681949,-0.020102463745536765,-0.01855873441814,-0.01319858543682,-0.005780124217822381,0.0012381082986645995,0.005426178025372515,0.005812109034259494,0.003453640483764345,0.00013748964176686312,-0.002435385573560933,-0.003721823445817274,-0.004279280033523317,-0.004951086419125529,-0.006223231007632253,-0.008052830419895402,-0.010311246866118041,-0.013184288625171148,-0.016529028151407405,-0.019287721876513956,-0.020245396583032937,-0.018887490528078893,-0.01578575270113268,-0.012455301166797189,-0.009911015517682977,-0.008067124585619827,-0.0063947548225016995,-0.004193517685101188,-0.0014348230780198267,0.0008950589049760889,0.0016097460238019613,0.0001089021040953397,-0.0027641425654746352,-0.0052941366947888485,-0.0055943053552537,-0.002678379335077699,0.0032678216211956637,0.010900688270261196,0.018333442773008433,0.023807948608023072,0.026295055830289966,0.026295055830289966,0.02486568335658784,0.023179021191694904,0.02183541194838971,0.020720498772977623,0.018876598139191583,0.01516022970756605,0.009371255754513282,0.0030962969243514085,-0.00164922939006255,-0.0030643112259394864,-0.0007487230558780732,0.004168327602590217,0.0099858863591926,0.015074466477169113,0.018347730764909198,0.019333999094725877,0.018705080498145794,0.0173328776315429,0.01567480027019958,0.014145367754451665,0.012916106545093028,0.011801193369680942,0.010529050545123835,0.008928151610627835,0.007241485035860856,0.005654878503139664,0.004425615529831409,0.003853865658375749,0.004096859419892514,0.00544047219109694,0.00805622866883328,0.011701133327635154,0.01531745935671107,0.01753298889588639,0.01769021854503141,0.015989259568489622,0.012715995280749539,0.008213460963902729,0.002924771345532344,-0.0027498483997502095,-0.00855311210865336,-0.013913267263797019,-0.018087045470704936,-0.020416923043826807,-0.021331724954895402,-0.02167477787648315,-0.021960652371223573,-0.02296121751268911,-0.02507668700981864,-0.028006907195719067,-0.031294468295108,-0.03441050293370306,-0.03666892290782494,-0.03744078316164928,-0.03661174448097762,-0.03419610367745881,-0.031051475415566045,-0.02782108392327634,-0.024676464481131657,-0.021503251415689276,-0.018744557690582725,-0.016829190638048594,-0.015857219119880764,-0.015985863965476167,-0.016586197758506636,-0.01620027204146851,-0.013412984693064255,-0.007924186456274806,-0.00014838538215844756,0.008728035936410302,0.01710417274390171,0.023422014071236858,0.027367096210251667,0.02942539610028197,0.030182959542457453,0.03012578993535822,0.029997145089762818,0.029997145089762818,0.02953974413422852,0.028496297377564518,0.027038340100312776,0.025508907584564863,0.023979475068816942,0.02256439058701558,0.021678173479496604,0.02176393670989354,0.023150436388145283,0.025223033089824435,0.027538613851297453,0.029225276016190394,0.029282454443037714,0.027209857741358562,0.023221902806893367,0.017647336929832943,0.010629101767421536,0.0024244905387491955,-0.0060945870440116574,-0.01272688766963685,-0.015171122096453361,-0.012841235703583403,-0.007566842896861869,-0.0022066859777685926,0.0017526841531469827,0.003853865658375749,0.004582846942926047,0.00422550338351311,0.0029390655112567702,0.0009951145371478334,-0.0009917171701847628,-0.002664086051328082,-0.0038504674094378697,-0.0045079796293156565,-0.004808149171755316,-0.004908204803927061,-0.005008261318073614,-0.005379899043210976,-0.006609162016519231,-0.00866746190654953,-0.010754351010003488,-0.011854967373766722,-0.011769204143369785,-0.011040225504743912,-0.010454179703614211,-0.010497061318812678,-0.01108310711994238,-0.01216943549180485,-0.01314140700997268,-0.013598807965506977,-0.013527341546758892,-0.013069940591224594,-0.012240901910552935,-0.011111691923491998,-0.00952508980064485,-0.007352437466793956,-0.004836736621229359,-0.0024782671887594015,-0.0006486668063239626,0.00020895844184693125,-0.0002627354446470604,-0.0019065173173037416,-0.004307867482997359,-0.007095149539552763,-0.010382713284866125,-0.014027615297743573,-0.01752958447312485,-0.020159642172384085,-0.020974384041406894,-0.018973253758475826,-0.012955583737529957,-0.0024067981240868904,0.011915541403627494,0.028110371660526393,0.043862088953791754,0.05658354365860708,0.06385905969246121,0.06471669199643057,0.059528051836408274,0.04942236683895142,0.036243519998349884,0.02237856731457286,0.01024317605038341,0.0011523459502424719,-0.0045079796293156565,-0.007009386309155828,-0.006709217648690976,-0.004450804730367572,-0.0015920544911144647,0.0009665270876737909,0.0030391211434285144,0.004082565254168089,0.0038967463915994087,0.0027818340981621316,0.0017098025379485144,0.0013381648128111528,0.002024265364137791,0.004368440630883323,0.008370691495022559,0.0135450339614212,0.01919106625722971,0.024508342443099327,0.02865352702670954,0.03078330215523601,0.030383070806800944,0.028239016506121796,0.025551789199763326,0.022249931288725537,0.0173328776315429,0.00977147828320026,-0.0005914917309809157,-0.012269486714102553,-0.022932623889391403,-0.03037967520378749,-0.0338101691406726,-0.034696386248191574,-0.03428186690785575,-0.03286678242605438,-0.03053690485293251,-0.02777820230807787,-0.025119568625017106,-0.023018387119788337,-0.02163189626128468,-0.020531279897521446,-0.019273425064865103,-0.018187096693002634,-0.017858340583063743,-0.018601616033338465,-0.01993093728474289,-0.021045850460154978,-0.02121737692094885,-0.020202523787582555,-0.018301453546697277,-0.01630032326376621,-0.014599373106972511,-0.013270051855568083,-0.012240901910552935,-0.011368981614682807,-0.010597121360858467,-0.009810964295385275,-0.00871034263977319,-0.006952211410207743,-0.004622329427211827,-0.002321035775664763,-0.0007630167806150944,-6.262290144009862e-05,0.00013748964176686312,0.0003376022290725653,0.0008807648274491441,0.0018813272347927696,0.0033964655848162596,0.005383297292148855,0.0075988294772486005,0.009928707932345281,0.012215712710016771,0.01427401260004707,0.01604643799533694,0.01757587051108486,0.018647902071298475,0.019162481453680092,0.019176769445580857,0.01923394787242818,0.019948629699405196,0.021092136498114988,0.022064108016282818,0.022349982511023242,0.02199264159753473,0.021320832566008092,0.020491793885336434,0.019362592718023583,0.01816191631221456,0.017404344050290985,0.017304292827993284,0.017504404092336775,0.017861745005825283,0.018204797927413027,0.018276264346161114,0.018419197183657282,0.019062421411634306,0.020263097817443326,0.02189258155548894,0.023450598874786475,0.024722750519091667,0.025723315660557203,0.025894833301602988,0.02486568335658784,0.02256439058701558,0.019062421411634306,0.014231130984848604,0.007956173036661537,3.74333657535082e-05,-0.009039104041560936,-0.018115630274254554,-0.025434027923307147,-0.029293346831925023,-0.02947916128461966,-0.02700634205425353,-0.023347143229727235,-0.019602181174803997,-0.01630032326376621,-0.013427281504713104,-0.011254633580736254,-0.01035412848131651,-0.011511914452178976,-0.015085358866056426,-0.020617034308170298,-0.026863409216757363,-0.03185192929268809,-0.033567176261130635,-0.03150887637110034,-0.02700634205425353,-0.0221464756436663,-0.018330038350246894,-0.016714842604102043,-0.017986985428659147,-0.02098867203330766,-0.023675899339666125,-0.02384742580046,-0.020516983085872596,-0.014299201800583234,-0.007252380952647401,-0.0007773105935495965,0.004082565254168089,0.006855554026973877,0.008070522834557706,0.008928151610627835,0.010886391458612346,0.014259715788398217,0.018848013335641962,0.024451164016252004,0.03051171565239635,0.03594334869196061,0.039473911490639585,0.03980266760057848,0.03611487515275448,0.029411099288633114,0.02114930610521422,0.011758311754482473,0.0012809899138630674,-0.009253503297805188,-0.017115065132789018,-0.019359188295262043,-0.014699424329270211,-0.0047795608403064654,0.005597703604191579,0.012001304634024431,0.013059039382589196,0.011558200490138984,0.011872659788429028,0.01613220122573388,0.022907443508603326,0.0290251647518469,0.031326466341167244,0.02802459961038137,0.019362592718023583,0.007370128999481452,-0.005051142933272083,-0.015228291703552594,-0.020917205614559575,-0.020774272777063407,-0.014756602756117532,-0.005008261318073614,0.004983072117537451,0.011572497301787835,0.012330060743963325,0.007498772963102047,0.00036618967854660785,-0.004908204803927061,-0.005665773537951401,-0.002349623225138805,0.0021243209963095356,0.005054540300235153,0.005097421915433622,0.003153471823299494,0.0010522894360959186,0.0005091271905092632,0.0016383334732760035,0.002896183896058302,0.0027246591992140462,0.00016607717943838653,-0.004593742859712593,-0.01035412848131651,-0.015714286282384596,-0.019373485106910893,-0.020245396583032937,-0.01855873441814,-0.01615739042627004,-0.014971010832109872,-0.016243153656666977,-0.020131048549086383,-0.025762784033246045,-0.030994305808466807,-0.03305260569849711,-0.029264762028375402,-0.019173373842567405,-0.004922498969651487,0.009056787636475154,0.018390612380107665,0.021349417369557706,0.018862310147290815,0.013473558722925025,0.007670297659946303,0.0031820592727735356,0.0007950023026320548,0.0003804834032836291,0.001066583601820344,0.0021814967772324297,0.002738952482963663,0.0018956214005171955,-0.0002770291693840816,-0.0029785488775173584,-0.004836736621229359,-0.004936792253401104,-0.0031929543075852732,-0.00019126664456699225,0.003553696997910898,0.0075988294772486005,0.01142955564454358,0.014731413555581368,0.01773310016022988,0.021678173479496604,0.02782448834603788,0.03647221606624299,0.0462634417654098,0.054024961197844015,0.05726964068203448,0.05518274716870648,0.04846468331268435,0.03928808821819686,0.03015437473890784,0.02292173150050409,0.018862310147290815,0.018747953293596176,0.02276450185135907,0.02959692256107584,0.03688673540657882,0.04224689320764691,0.04370485930464674,0.04054593423110512,0.033184646147105964,0.022821680278206392,0.011515318874940518,0.0012952840795874931,-0.006294699190329955,-0.01076864782165234,-0.01256965802049183,-0.012812650900033785,-0.012555361208842977,-0.012441013174896423,-0.012984177360827659,-0.014270608177285529,-0.01588580392343038,-0.017415236439178295,-0.01810134228235379,-0.01784405259116298,-0.01712936194443787,-0.01718654037128519,-0.018844608912880423,-0.022046415601620514,-0.025905725690490298,-0.029393398054222725,-0.03182334448913847,-0.03309547849394749,-0.03355288826922987,-0.03386734756751991,-0.03442479974535192,-0.03529672004122204,-0.0359971138762983,-0.03591135064590136,-0.03512519358042817,-0.033710117918374895,-0.031923395711436174,-0.02996515586345166,-0.028264196886909874,-0.026834824413207746,-0.025519799973452172,-0.024018952261253872,-0.022117882020368594,-0.01961647798645285,-0.016629079373705103,-0.0132986366591177,-0.01043988289196536,-0.009096273648660167,-0.009239215305904424,-0.00988243071413336,-0.010154008397224934,-0.009582259407744083,-0.007180911887974891,-0.0027784358492242522,0.003010533693954472,0.008885269995429367,0.013888078063260857,0.017118469555550558,0.018404909191756517,0.01810473788536724,0.016489542139222386,0.014674235128734048,0.01375944203741354,0.014073901335703581,0.014917228008276006,0.015274577741512604,0.014960109623474474,0.013973841293657793,0.0126302320503526,0.011143681149803155,0.009214026105368261,0.006741204229077706,0.003653753512057451,-0.0002770291693840816,-0.005079730382746125,-0.009996778748079912,-0.013841800845048933,-0.015271173318751063,-0.01314140700997268,-0.007123736989026806,0.0017526841531469827,0.011029333115856603,0.018662198882947328,0.024122407906313113,0.027910251576434814,0.03116922787227414,0.034742672286151584,0.038144581419487074,0.03923090979134954,0.03595764550360946,0.027810200354137116,0.016561017377718562,0.0058692848151823875,-0.000920248105512252,-0.002549736253431912,-6.262290144009862e-05,0.004954484668063409,0.010557635348673452,0.014888643204726389,0.017375759246741368,0.01814761950056571,0.017418640861939835,0.015403222587108007,0.012244297513566389,0.007970466320411153,0.0032249400059971953,-0.0008201918559581413,-0.002692673500802124,-0.001692111005261018,0.0015525711248538761,0.00536900312642443,0.00775606000836843,0.0076131227609982175,0.004940191384313792,0.0003518959538095866,-0.0054370739421590614,-0.011454744845079743,-0.0168577842613463,-0.020774272777063407,-0.022661046206299832,-0.022232230054315148,-0.019687944405200938,-0.015857219119880764,-0.011840679381865957,-0.00813859276831753,-0.0051797860149178695,-0.003407361501602806,-0.0025354420877074864,-0.0015777603253900392,-0.0004914354814268051,8.03146281620529e-05,-0.0004771417566897838,-0.001935104766777784,-0.0035645920327226355,-0.004822442455504933,-0.0053084299785384655,-0.004679505208134721,-0.002721260950276167,0.0006520647906693994,0.005068834465959579,0.009599951822406388,0.013645085183718899,0.016961239906405537,0.01954840717071822,0.021349417369557706,0.021692470291145453,0.020034392929802133,0.016189379652581198,0.01125802918374971,0.007012785440068516,0.004525672043977962,0.0037681024279788127,0.004196915934039068,0.004825840704442813,0.005097421915433622,0.0054690596405709835,0.006512503751310557,0.00802764121935924,0.010057352777940686,0.012544468819955665,0.01567480027019958,0.01919106625722971,0.022278516092275158,0.02420817113671005,0.024937158595084007,0.024222467948358903,0.022078404827931667,0.019162481453680092,0.015989259568489622,0.013216277851482305,0.011686845335734388,0.011886956600077879,0.012973284971940348,0.013830908456161623,0.013402092304176943,0.010829213031765025,0.005611997769916005,-0.0025354420877074864,-0.01365597757260621,-0.026620416337215402,-0.03874151960950409,-0.04721770322941915,-0.05060532437085388,-0.04914736709360213,-0.044073083787274474,-0.03728355351250426,-0.03040826000733711,-0.02459070125073472,-0.02098867203330766,-0.02017393016428485,-0.021703362680032767,-0.02421906352559736,-0.02587714088694068,-0.026348829834375743,-0.026020073724436852,-0.024890872557123998,-0.023418618468223407,-0.02157471783443736,-0.01847298000749115,-0.013670274384255063,-0.0075954303463359124,-0.001391942344796167,0.003467933767513962,0.0065410912007846005,0.008256341697126388,0.009928707932345281,0.01230147594041371,0.015346044160260686,0.01806185627016877,0.01956270398236707,0.019262532675977793,0.017204232785947498,0.014145367754451665,0.011129384338154302,0.009071084448124005,0.00809911028403175,0.0076131227609982175,0.006212335090845707,0.003153471823299494,-0.0011203602518305498,-0.004908204803927061,-0.006051704546838381,-0.0033215982712058692,0.0021529084457835783,0.008013347935609623,0.01247300240120758,0.014574183906436347,0.014574183906436347,0.013988138105306644,0.014588471898337112,0.016789713445611667,0.02002010493790137,0.022678738620962136,0.02316473319979414,0.02114930610521422,0.018247679542611497,0.01660389899291703,0.01809044107371839,0.02332196284893916,0.03175527367340384,0.041360676100127926,0.049222246754859846,0.05215246694076027,0.04932229797715754,0.04171802583336452,0.03072612372838869,0.01816191631221456,0.006655440998680771,-0.0017492859042091032,-0.006223231007632253,-0.007666899411008424,-0.008210061832990041,-0.009796667483736423,-0.0127411844812857,-0.015971567153827318,-0.01847298000749115,-0.019459239517559745,-0.018844608912880423,-0.01691495386844553,-0.014413549834529787,-0.012383834748049105,-0.011554796067377443,-0.011840679381865957,-0.01231236832930102,-0.012069375449759062,-0.01108310711994238,-0.010196890012423403,-0.010339831669667657,-0.011611974494224764,-0.013455866308262721,-0.014999595635659488,-0.015985863965476167,-0.016514731339758552,-0.01661479138180434,-0.01630032326376621,-0.01558564143678919,-0.014399253022880934,-0.012869829326881107,-0.011368981614682807,-0.010282653242820338,-0.009696616261438723,-0.009625141022942551,-0.010811529436850806,-0.013770334426300851,-0.018001282240308,-0.021589014646086216,-0.022661046206299832,-0.020674212735017617,-0.016071627195873107,-0.009953897132881443,-0.0035788861984470607,0.001381046428009621,0.004068271970418472,0.0045399653277275786,0.0036251651806085998,0.002353021474076685,0.001509689509655408,0.001681215088474472,0.0031820592727735356,0.0058835780989320045,0.009514188592009452,0.013473558722925025,0.016846891872458986,0.019276829487626646,0.021106424490015752,0.022364279322672095,0.022507212160168266,0.02079196519172571,0.016932646283107835,0.011758311754482473,0.006140866026173196,0.0014096338774836632,-0.0013204732801236562,-0.00164922939006255,0.00016607717943838653,0.0031820592727735356,0.006198040925121281,0.008542217073841622,0.009642833437604855,0.009528485403658304,0.009013914841024772,0.009685715052803325,0.012172831094818303,0.015274577741512604,0.01710417274390171,0.016804010257260516,0.014545590283138645,0.011472437259742048,0.008999618029375921,0.007827529073040941,0.007813234907316516,0.008084816118307324,0.007927585587187494,0.007041372889542558,0.00544047219109694,0.003382171419091834,0.001066583601820344,-0.0011918293165030605,-0.003107191959163146,-0.004522273795040083,-0.005394192326960593,-0.005823004951046039,-0.005994530529865105,-0.00570865515314987,-0.00472238594135838,-0.0030786045096891034,-0.0011346544175549753,0.0004948334657722419,0.0012381082986645995,0.0007378273154864887,-0.0010203046196588053,-0.0034788296843005074,-0.005665773537951401,-0.006766392547639061,-0.006780686713363487,-0.00635187408927804,-0.005622892804727742,-0.004593742859712593,-0.003335892436930295,-0.0024067981240868904,-0.0021495110788205076,-0.0030786045096891034,-0.005151198565443827,-0.007781249208904593,-0.009953897132881443,-0.010225483635721105,-0.008081417869369445,-0.004007698822532508,0.0007092397778149653,0.0046543160075985576,0.006755497512827324,0.006569678650258643,0.0038967463915994087,-6.262290144009862e-05,-0.004193517685101188,-0.00779554337462902,-0.01035412848131651,-0.01076864782165234,-0.008381586529834296,-0.0036074736479211034,0.0021386151620339613,0.007798941623566899,0.01225859432521524,0.014788583162680601,0.01531745935671107,0.014416954257291326,0.012687401657451833,0.010929273073810815,0.009900123128795664,0.009714308676101027,0.009800063086749876,0.009599951822406388,0.008985321217727068,0.008213460963902729,0.007798941623566899,0.00802764121935924,0.008885269995429367,0.00955707020720792,0.009714308676101027,0.009585663830505622,0.009457018984910219,0.00955707020720792,0.010028767974391069,0.010371820895978814,0.010000183170841453,0.008999618029375921,0.008127697733505792,0.007570242027774557,0.007012785440068516,0.006298097439267834,0.005168890980106132,0.0038109840431772807,0.0026246026850674934,0.0018384465015691103,0.001509689509655408,0.0015954527400523443,0.0014668087764317485,0.00039477721621813125,-0.0017635791879587201,-0.005036848767547657,-0.008910459195965531,-0.012769769284835317,-0.016000151957376932,-0.01815851188945302,-0.018644497648536935,-0.017215125174834808,-0.013941852067346636,-0.009639437834591402,-0.005079730382746125,-0.0003627917823986519,0.004354146465158898,0.008485042174893537,0.010857806655062729,0.010529050545123835,0.006812672411775409,-0.0002627354446470604,-0.010068253986576084,-0.020831442384162638,-0.029307634823825788,-0.03268095915361166,-0.03050831122963481,-0.025705614426146807,-0.021860592329177787,-0.02117449530575038,-0.023618729732566898,-0.02752092143663515,-0.02999374066700128,-0.029193286789879234,-0.025219628667062895,-0.019587884363155148,-0.014156260143338978,-0.009810964295385275,-0.006766392547639061,-0.004136342786153104,-0.0012204167659771031,0.002953358795006387,0.009028202832925537,0.01567480027019958,0.020406030654939494
