0.6782020905390773,0.5847358744967938,0.38540028820147565,0.06129983406349155,-0.22857666729073564,-0.4005004023954431,-0.5144843231986448,-0.5887431647311798,-0.6322125513179843,-0.6457403925885742,-0.6276084430906842,-0.5754388245252688,-0.496325637897188,-0.4149556065906523,-0.35757657440774443,-0.33965566457932633,-0.36407688370223384,-0.4214132927618619,-0.5154512758595791,-0.6592208274769162,-0.7652762041665689,-0.5816372865200542,-0.3554327002230151,-0.22238493256602815,-0.15224926387027665,-0.12334681616855442,-0.12562801383574612,-0.15338054377442553,-0.2061635955978409,-0.24076191463814423,-0.19872204078613478,-0.12771637297312632,-0.07029462108743886,-0.029769435598894858,-0.008713500663392718,-0.005029248033394284,-0.015619933057670312,-0.04336935788104164,-0.08839279215578255,-0.15735512509427024,-0.2491621891464229,-0.349684259975347,-0.4281951161549277,-0.4512083578523063,-0.3876259349973957,-0.21963668387474583,0.015075248844825535,0.2453235005010136,0.42358411397263684,0.547078472066983,0.6274711235036592,0.6758106419883916,0.6998613928784503,0.6997736062139087,0.6807070579444088,0.6563338029947116,0.6360891729304102,0.6221770921477642,0.6130621589776691,0.6054984934002934,0.5822032764102354,0.48735860710925705,0.31875858562379933,0.19115344681925303,0.13345049174568663,0.12201643759225335,0.12978705760201445,0.14122343086643413,0.16308047283442617,0.21755580386981965,0.27175077362340194,0.23557296636355207,0.2137769287649799,0.22128823185792265,0.24845120268230192,0.287852815224087,0.32972017297884476,0.35731485606244257,0.3541970373853188,0.3466064414070701,0.3976599643807344,0.3119195193711771,0.058946676597288084,-0.020040654162647283,-0.0587869096261588,-0.09053145761467192,-0.13180451007551033,-0.22837272701907926,-0.6107710396663413,-0.13714168042637429,-0.052799939909182636,-0.0266992035088851,-0.019591791958826345,-0.025203729428412976,-0.048078735070202196,-0.10172194108649484,-0.1986989834954062,-0.2890058410107055,-0.31956806698954116,-0.3369048489856848,-0.3580951434767675,-0.37175239864439297,-0.36328846457725855,-0.3226239134151467,-0.2536970096229411,-0.17815776554758367,-0.1185587703413928,-0.0833427729644247,-0.06811498604498628,-0.06805849197026673,-0.07235031322954838,-0.07218319186793312,-0.05049845295691326,0.024672929240052405,0.20142758635277938,0.3514118661523839,0.4539019724062866,0.5781984925173369,0.7621026084351475,0.9224862053244632,0.8258663318712158,0.6303487997835652,0.5046840863930386,0.4347195013823025,0.39442560813980304,0.33407884117863357,0.17272367875526434,-0.007510245652038427,-0.16748515094920788,-0.3143007809741916,-0.42080072644362304,-0.4390395733852009,-0.36204303885997996,-0.23597364880791663,-0.11310114225128581,-0.010127652468772052,0.08051057288623387,0.16455407143299963,0.22649980938048658,0.24445063469345255,0.23621856756529092,0.22717152732587723,0.23302818734430017,0.25787900949900594,0.29362797310571104,0.3114545725102072,0.2803849287257336,0.21245367524958805,0.1330352647570539,0.04860013783690989,-0.07426688728663139,-0.22484978869913672,-0.29185750776609226,-0.2289320788483335,-0.12771299143114379,-0.04042230330335306,0.020174306208720804,0.05660591821374533,0.056938586379926735,-0.013517022771334037,-0.19183453486171528,-0.43212968214247655,-0.5800556303891273,-0.5963157055916505,-0.5428611776663281,-0.4671865055443842,-0.40974972698520173,-0.3961404109193581,-0.4368040307873661,-0.5017107846321042,-0.5588976080489961,-0.5946425428464639,-0.6107127428134128,-0.6109269361345614,-0.6047951861427439,-0.598194845501004,-0.5982502341269456,-0.6082882291051126,-0.6179530253315118,-0.6052359250692797,-0.5340595985783732,-0.3354230359177068,0.08521346517026497,0.539969383263051,0.7645647940922482,0.8449028216694046,0.8670190829018836,0.8585577230174931,0.8209587951254326,0.7404869727842207,0.5955355252960757,0.40747110315804397,0.2744220008860284,0.26984868514094534,0.38125433407200365,0.5318057886895079,0.6465551570498134,0.7217891562987881,0.7713320824451343,0.774320156583019,0.7290542321841708,0.6561334046550164,0.5886590886890177,0.5422246533704606,0.5107676369639862,0.48679844321096766,0.4722892226631097,0.47403681255027624,0.5063617536218133,0.5722915100384759,0.6439122848499176,0.6727770625705999,0.6719774453795959,0.6799760944535763,0.6971751790341668,0.7062770894859659,0.6813068304063252,0.5825333311471739,0.3631269803792479,0.0693152194651857,-0.1529424732751283,-0.24140578198174076,-0.225198699906528,-0.1409716435209117,-0.034070072697826706,0.043919954746949944,0.056410914712843874,-0.0031267158043509426,-0.12995397456425767,-0.28573559788587805,-0.4107531095638938,-0.46770099562326606,-0.4769729544480795,-0.4735054526416856,-0.4737863795490987,-0.5020815790817509,-0.588791440718865,-0.7622415294292472,-0.8287864301923294,-0.5460513921661004,-0.34972533219266677,-0.2653029965801395,-0.24807383883675763,-0.2924150211906838,-0.43618954742004834,-0.6291730907150485,-0.5140422859178674,-0.38998036156221655,-0.3426880931529667,-0.33698438545283654,-0.3642930318267708,-0.43694024053583297,-0.5426921705648954,-0.44072868859371617,-0.23619341555638151,-0.12550709260082657,-0.06966234232152081,-0.04563475495174983,-0.04930116802382637,-0.08286702256579119,-0.14874334666952116,-0.23590708814669858,-0.30400081722545,-0.3058987256228369,-0.25710536502436593,-0.20409306780512673,-0.18995269180082122,-0.21727131392062768,-0.26153404389272866,-0.2946544330499894,-0.30100360971541273,-0.26946979430839607,-0.1959853515201811,-0.08698852769961608,0.05393422573258515,0.23211488591390939,0.4573582216835119,0.6807841348848911,0.8300679762221002,0.8990447857817886,0.9092744812527764,0.8790915298685522,0.8223558726446409,0.7677353470987597,0.7441817314250538,0.7616314720473528,0.7889750715724397,0.7773840549884,0.7181630457907637,0.6223550294397521,0.48586085645501875,0.3459781611273484,0.2409913385150888,0.16957764660593488,0.1143204115963584,0.06716353189866989,0.029723977175255125,0.0044674402775453596,0.016447942463498018,0.07549927062086034,0.08689431432032388,0.09763804433043867,0.10514743025442365,0.10710091850182497,0.09959544641433327,0.07657294503225,0.032077391299000196,-0.03256524099444563,-0.10074774768589209,-0.13664104365255283,-0.12310420195866849,-0.07794598223068591,-0.0454307313968652,-0.04637295887245282,-0.08190370963977854,-0.13523549874484578,-0.18655567429153647,-0.2442214097450391,-0.3457384928558259,-0.5172305043883879,-0.6758313980040818,-0.6226958891167661,-0.5013479914906676,-0.41686887779635134,-0.37303023228250787,-0.3592908707520185,-0.3648830451538461,-0.38567545546986204,-0.4403283376201834,-0.556371633064603,-0.7185505077270439,-0.47729745580628186,-0.15300777885508163,-0.006235597266219748,0.05904405182468093,0.08082093769971144,0.08059518029156144,0.0788034200982318,0.09214692874428802,0.10702560699583805,0.10371052357478658,0.11139292423878022,0.1295931152537999,0.15693967439597914,0.20184164294251586,0.27265220832412135,0.25395039820770265,0.11589414799511377,0.042555714795882216,0.014945324846474838,0.016677006089478356,0.034259591792527966,0.03749879477522078,-0.017692822960506407,-0.13612864366600827,-0.28169215531270514,-0.3984534389455649,-0.4558703577040055,-0.45193297745652516,-0.3847728981945634,-0.2553541410382086,-0.08035716983927711,0.10299837742525163,0.256752825079775,0.3674288046188075,0.4431381108280999,0.48437290139003336,0.48256309498736244,0.4322808483455947,0.34238009738428965,0.24205486710439378,0.16983396374256837,0.15125437990156299,0.18634333075626988,0.24796813101600737,0.30247663715048895,0.3321310716690603,0.3364586768366701,0.3260398664184691,0.320883011834264,0.32937212938339305,0.35488784422273834,0.38500537153392994,0.3798484546668308,0.29878489361972554,0.1425300463059915,-0.02776713703551251,-0.15504268429268817,-0.26007652242961016,-0.3902138105685659,-0.5101885876651723,-0.23221143989958787,-0.034961830381283435,0.05801988449042365,0.11494321484969033,0.15923547919320163,0.20129911086227945,0.2394953324082993,0.23414617479083394,0.09747997173119112,-0.2883455274660464,-0.7297420043039663,-0.7098088195935022,-0.6493168203511439,-0.6159115844184386,-0.5980475712503924,-0.5762733719994835,-0.5463605048259057,-0.5001439043509136,-0.4430908825508077,-0.3838356032507324,-0.326636698663828,-0.26642996456361623,-0.20278628565082749,-0.1378527721377555,-0.07963099194097949,-0.03742898914082418,-0.02735357841649203,-0.0655474781322535,-0.14897493349321697,-0.2610493530946186,-0.35649494701800616,-0.4082041781476284,-0.40886135858295336,-0.3707327811769181,-0.30701122985151996,-0.23078593504516035,-0.1369127593542452,-0.012528455276518727,0.14974560868370052,0.34165784616558503,0.5287799005840866,0.6440862541913959,0.6862369614852128,0.690384901248923,0.6834982254434334,0.6826062944782594,0.700226347312188,0.7526942174144672,0.8572875246545556,0.9814134905849415,0.9221642208495475,0.6754723210222853,0.4817651904740676,0.3662292023965353,0.3047630529737957,0.2894832950760385,0.30018311561913674,0.24605800838075387,0.08884357391063302,-0.08000740953017507,-0.2412810071343162,-0.3737366961144363,-0.45645709442964166,-0.5086641833159067,-0.5578936205134328,-0.6048254838261777,-0.6443191351114338,-0.6694542995299178,-0.6571790464966242,-0.534024093666307,-0.27398195370294964,-0.04723400864837313,0.06441922851503781,0.09073110825044772,0.06104801022380392,0.010600390294924716,-0.01706723714454446,0.01333456793891953,0.04366942543295849,0.03466170262433295,0.0032250711646570093,-0.03736884884431166,-0.0959413738734794,-0.252810870804621,-0.19472245245772477,-0.06248389575333429,-0.017783973234369317,0.005663107077974247,0.01945132633245038,0.024327092171271786,0.013514933417085049,-0.031442326575931705,-0.14323116068190944,-0.3338291252758208,-0.5290609262773875,-0.668802510656842,-0.7564867208244311,-0.8030076384486965,-0.8158124087464291,-0.797278659112874,-0.741814924461882,-0.6455452403343932,-0.5149895127139666,-0.3840624381270878,-0.28639941056365553,-0.22217640239365757,-0.17976558883638713,-0.14714205480077172,-0.12230739657673904,-0.09478877671111367,-0.06257228839041178,-0.025243666653562986,0.015454732843791404,0.05748387000701312,0.10417799766759094,0.16125034262460375,0.23440251976743828,0.3242981387837572,0.4187360282441265,0.5101402420692184,0.5936993847298285,0.6653917668341516,0.7231194737491616,0.7677175115628552,0.794885138228096,0.7993765686155442,0.7790722603732382,0.7501755733762444,0.7360395235526168,0.7404080599259573,0.731615167831979,0.6447028490474311,0.33777791576574573,-0.15270714856465759,-0.4013713653372967,-0.42674407024249206,-0.33322661590603236,-0.1495695261635814,0.06653304311186532,0.2400531644792031,0.3382355164426028,0.38119203147309016,0.3999942170689998,0.41278957883768175,0.43308998838054885,0.46353775910627654,0.49917550549782286,0.5312091971492044,0.5397961267437524,0.505937706758731,0.42541356818407494,0.3124862615205736,0.18938287241905366,0.06978663350920056,-0.045317209445318175,-0.16113757520881322,-0.2773704323326825,-0.3651377616753315,-0.39253999744243845,-0.3848507004731798,-0.37892945898761016,-0.39052263159147343,-0.4342751350705787,-0.5221794417998791,-0.6531684508855315,-0.7899395233201634,-0.8769923540024113,-0.912094136272808,-0.9115873112179791,-0.8659977284640427,-0.7599737861837662,-0.6069693388061449,-0.45855256005013034,-0.35400441278240224,-0.3014966804173717,-0.31005222012653444,-0.3722141840926796,-0.4153804653706925,-0.3263673119168515,-0.18903576682746429,-0.07044974012953473,0.023540495843671346,0.10185683226667709,0.17395528702073354,0.24261694934928754,0.30114699070642553,0.33691904108112714,0.33764145520903777,0.30709888535514845,0.26009646476978765,0.2167508363263706,0.18215829709164796,0.15412408725591628,0.13665733882697537,0.1288685490820588,0.1288588734211134,0.11598580634050662,0.09384679946161813,0.07478802063311393,0.06762646998725055,0.08502863667366303,0.1870102640167317,0.3072912578132749,0.20114655044917557,0.17070623888450914,0.16356912110361177,0.16912108788503755,0.19384286444659268,0.2509675185766198,0.3575922885242318,0.4201864143073418,0.38866729486858154,0.4185407351029529,0.4643427113386298,0.48595036848064566,0.48047463776794425,0.4577713807673524,0.42687030828223504,0.39835446015795595,0.37262343836622847,0.345339143673445,0.31240448356899475,0.2643882224115858,0.1845179331430626,0.042789334968063884,-0.15725660872125338,-0.3486744713004937,-0.45712448660815225,-0.4695816806893124,-0.4058194870151976,-0.2891790803946145,-0.15882172951358933,-0.064968186149067,-0.029656927223461763,-0.03705277237949473,-0.0568557515490378,-0.06588034921484971,-0.05439992727516311,-0.028109925011226552,-0.0032534333251062427,0.005006838989680423,0.003994037810383991,0.05650398420022078,0.07791999033177792,0.08834357352471037,0.1047136795468837,0.12614931782877178,0.15229504329802201,0.1622492688692029,-0.1688027986646743,-0.4362239438769539,-0.5858241178622761,-0.20863881286015848,-0.08255060890195601,-0.02951895915857635,-0.005672931456410195,-0.0007814283318288053,-0.02446785902012276,-0.11437689908009785,-0.3356083491053864,-0.4382773517924031,-0.41051028088093605,-0.3805265987394407,-0.3473784476126714,-0.29908247205969996,-0.2089358432625629,-0.09972291149972166,-0.019377613223024576,0.029299182260932158,0.050869049739473246,0.03118468928475379,-0.01570934318048561,-0.049117344151302235,-0.07415329232351799,-0.10657217792991068,-0.1575469213794276,-0.24316019520230817,-0.21694883803271656,-0.05937793002900542,0.01673237303799326,0.0642898743766081,0.10420127722458382,0.1465496720965773,0.20411815448454085,0.27655694538496867,0.3252812463806199,0.3313331048418893,0.31103046132421486,0.2778713838865292,0.24158700406385444,0.20600492442331256,0.17034033618714814,0.13022471283939724,0.09054295690358738,0.053860980330637034,0.031005018698657055,0.034208002719621565,0.07268833589062343,0.13046206318379067,0.17500684383115248,0.18500675180931608,0.16076465317743424,0.10015418329402823,0.007093410423516084,-0.0935222537300668,-0.16050238070651657,-0.16852492138230168,-0.12129301715595818,-0.032263503172918664,0.0809655804661033,0.18645327984047833,0.2514579877752015,0.2684158249098735,0.23999530911377018,0.17890431531762585,0.09959401188931695,0.024334980969561527,-0.028369947493061463,-0.04505467534486789,-0.020437725985574,0.029159202449148342,0.09954498096846534,0.18417783874610213,0.2851885770449219,0.4004438622935063,0.5161670462542144,0.6147427511505061,0.6909873759795984,0.7558985121225913,0.8141058116197943,0.8594435193232571,0.8851957403457575,0.8831290421080256,0.8311076387689694,0.6825738425378438,0.37170545037681113,-0.052789124893032974,-0.3989443064179673,-0.5912625760746073,-0.6694228815580051,-0.6871022559648409,-0.674941908079986,-0.6550034175037506,-0.640950503888709,-0.6355684893444514,-0.6359025411213073,-0.6311348720213924,-0.6208981837380559,-0.6045763107773415,-0.5770282118538698,-0.5440951848624491,-0.5035448710674164,-0.45049874011351443,-0.392603198054119,-0.3500328145977913,-0.3388439972183184,-0.3595870135079978,-0.3969421904240788,-0.4299018598318555,-0.42840083372476506,-0.3451907596608219,-0.2311075314643428,-0.15140888893963142,-0.10617197660395045,-0.07947669690427843,-0.06857602395824142,-0.08816285648764673,-0.1778511020159542,-0.35488730080283704,-0.48748853598056485,-0.4753732134721057,-0.293125890014566,0.041523609836415745,0.31796720564800346,0.4501639310058165,0.49981952101405974,0.5071635868430365,0.5026973434348507,0.49892500685208563,0.49597169877934144,0.49803169648569173,0.5068051611926132,0.5255212412716066,0.5490595756757746,0.5675414774741108,0.5720506703749692,0.5540800999391811,0.5050018510687543,0.4312009737925299,0.347132452270414,0.25895931560582525,0.16605173424471956,0.07186155046151246,0.0034168022038023713,0.022259076053511104,0.11869781118032297,0.23893721840401558,0.35385881841231714,0.44310069180384665,0.4954861266889747,0.4918156497796504,0.4284844104429949,0.3318909623400814,0.24937770956344663,0.24073780906083553,0.3115841825864097,0.407586355673242,0.44362715975848344,0.432439861712173,0.39009146539977646,0.3153153932932493,0.21380512036052754,0.09937193407465036,-0.022902963752586367,-0.1330815863250676,-0.22290904173991677,-0.2864199885943857,-0.3276386022506471,-0.3529807833510012,-0.3689922865385298,-0.3756748401812651,-0.39135491716201287,-0.43339249547655506,-0.4987085946246077,-0.5655378351897355,-0.6137863464963279,-0.6317003056531302,-0.6226942465061037,-0.5981842910012188,-0.5679565885527494,-0.5360422827781273,-0.5062240018539932,-0.476055298614176,-0.4448400312341043,-0.42333812172097984,-0.4190948121503119,-0.43885053389393647,-0.4511709946514251,-0.3967155165217721,-0.19762754568578048,0.19478252317343847,0.576040959232765,0.7682756131125075,0.8470727563248909,0.8764402229277374,0.88315415162779,0.883113927212165,0.8914507970958667,0.9171918749676508,0.9561044197996882,0.9813358664019078,0.9859108436992249,0.976390252428397,0.9191782093815632,0.7448598618516415,0.5177601518945006,0.3483556164055063,0.24931351682105127,0.17923977158765364,0.023425964170066923,-0.0070642617344641055,-0.027170704159945616,-0.09863680859819654,-0.30186760095427007,-0.6444266282772283,-0.7580713150683756,-0.7438950536019914,-0.7247531697443429,-0.6953017586051599,-0.6414017652294135,-0.5679425137336781,-0.49391298667061584,-0.4369126456147702,-0.40192804764154283,-0.38594248107820256,-0.37896053682361214,-0.38128690269016285,-0.39026729095239343,-0.39147686701182277,-0.37894680232977024,-0.35752275568196024,-0.3339191465248268,-0.3017028095283558,-0.23247088701033908,-0.11153386717895956,0.008593238578085015,0.09376038884122767,0.15115907153005007,0.19421625790749944,0.22006358472147747,0.21275816272392117,0.1346214958933612,-0.03139525997209038,-0.13080038548634812,-0.18849477906415496,-0.24449098799359822,-0.3193259250361502,-0.4211986049424981,-0.5454622222340921,-0.6070168118088621,-0.5374054395424898,-0.4377909697102937,-0.36494294220626694,-0.31341725695243267,-0.2693184488560516,-0.22704447464170452,-0.18218228446323248,-0.1371763536550686,-0.09479577558252236,-0.05360071477800487,-0.0123404111437089,0.011544102699251567,0.01039194824761635,0.005129218308197583,0.001904734977207821,-0.0050075869246409095,-0.01757025143187675,-0.034543568714057164,-0.05545803243639288,-0.08588295282217846,-0.15436374236402026,-0.7872784702536462,-0.05631366990371903,0.014578872904405292,0.04747490778620985,0.07082478344769334,0.09179112023817367,0.11529551758600705,0.1456633001333067,0.18936345575799482,0.2617505377415122,0.38744041023249903,0.5067449292029294,0.4767744860420543,0.42632518802414066,0.40734665465707887,0.39639975045781056,0.38724390247306306,0.37851248483021765,0.37970926750065587,0.39427720042541,0.42200552947734815,0.4510140005889812,0.4688461278992823,0.47202614894568473,0.46551502737252143,0.4498364927520539,0.42961470506251503,0.407680501201171,0.3861741831128428,0.36229561398143395,0.3365949487453772,0.30202392598007577,0.26329945771068164,0.22317138844252515,0.18349929803579731,0.15348621423557102,0.14589014323094784,0.15332448793838177,0.15611219352479827,0.14615493824834985,0.121624682270764,0.09212001461378709,0.0415639768364086,-0.04954288502105859,-0.1697478457147273,-0.2866286085815354,-0.38746039609399874,-0.449768203391035,-0.4843279506467508,-0.510276918868691,-0.5260216134328481,-0.5118361848008779,-0.4858917494784201,-0.4604666639978064,-0.4394370027436123,-0.423878232106095,-0.4153227944702057,-0.4217232259815269,-0.4309253553258421,-0.4271035608565185,-0.4008478936012997,-0.3584349331402808,-0.3087260401444892,-0.26870822415354656,-0.24677318088891712,-0.2292372908094518,-0.20341474644827462,-0.16842306663957457,-0.1311130595313539,-0.1117132937415567,-0.12097954882887688,-0.15629939838101278,-0.19687682349646318,-0.216212859678255,-0.1966476951717922,-0.13399584499199405,-0.040217398792479035,0.03748508306002846,0.05513596570853829,0.002830676998245446,-0.10028196321475902,-0.21723379339837312,-0.3041052464967058,-0.33115258802392744,-0.2138762815434174,0.24187697807801914,0.5532640510013215,0.4871444694694277,0.2998946588398446,0.18906538335802112,0.1661094440839834,0.2230093931053404,0.3474456210067671,0.4438593138104909,0.4106537091656146,0.2798226796941386,0.16246647985912355,0.09105169485920349,0.051705186385053226,0.03007487324145663,0.020413517740715436,0.02762483508529229,0.03690892213763595,0.02432584202529847,0.022932521983021883,0.023420666824568056,0.024621340929848624,0.02686256747824605,0.033806752292517124,0.04883190508636684,0.07333482123246825,0.09702813271038184,0.11044118475144064,0.11007773176410357,0.0857268542780401,0.02780797969450981,-0.04060579281534082,-0.07527678608791546,-0.09114436210348756,-0.11126039280592916,-0.1421534578645453,-0.18293640513151174,-0.24171496157749167,-0.3857414342059407,-0.4145800640387949,-0.023153207055725614,0.06614164886085938,0.11118012041224729,0.1404819345739282,0.15748021258078485,0.15233212636204074,0.10058418609411256,-0.05998811506401243,-0.29316067305070864,-0.42569992620599906,-0.4831490758873085,-0.5142690900380058,-0.5350621507134474,-0.5482776771574546,-0.5552351586647388,-0.5512348690060115,-0.5142910201020675,-0.4308659814373492,-0.30373170332683214,-0.1581593187439689,-0.0230846536970777,0.07475943868029117,0.13203603576694992,0.15583913971244137,0.16409230463284522,0.17196744721509077,0.19488475644551673,0.22073365878617676,0.22018344818038335,0.20276793470950763,0.1961903421167939,0.21317372734439388,0.26387982904223406,0.3408926977762051,0.4037560064445422,0.4021952956949208,0.3228988303541904,0.12456022124034426,-0.19666348809447975,-0.4559091546817445,-0.5635969179352417,-0.5874908826902059,-0.560710311213565,-0.491764597107276,-0.37786123267542127,-0.21914676912283348,-0.013979745799534616,0.2070302350527457,0.3864275228242011,0.5066340310296537,0.578789474796294,0.6155868292548123,0.6208980696653118,0.595758755681742,0.546447606849967,0.49751320956940753,0.4624824577564772,0.4520509882656127,0.47288475511400263,0.5214698167869829,0.5697086802319518,0.6067627277752143,0.6348558032467787,0.6472445012489103,0.632877274890915,0.5953202766550337,0.5505409291676016,0.5142225962424103,0.48039128326504693,0.4177321037605709,0.28593902725551995,0.07122722328761279,-0.17645319132353474,-0.3437395672753239,-0.34117882222622165,-0.17247417770173407,0.04404608461114366,0.1895738138403368,0.2497128068936246,0.25020828104774623,0.20970278358507813,0.14770810051028582,0.09418519783940113,0.06251170088950231,0.04111061449905736,0.018101960078567528,-0.012253809430370388,-0.04566618939200353,-0.0803615598424184,-0.13046417569792304,-0.19131258240474008,-0.22744372568839594,-0.26097095964827616,-0.2842638091677765,-0.2732722501952363,-0.23778291453899594,-0.19805530692555107,-0.17080752509292102,-0.166579334921251,-0.19315708057140268,-0.256874067651099,-0.352568629358428,-0.4545698957239695,-0.5381250641530896,-0.5911646210109899,-0.6123656432289097,-0.5985133305821445,-0.5581263401042713,-0.49862654934794454,-0.42282308969313,-0.3485037506780821,-0.2887472343745861,-0.23581780108321915,-0.17250582849392937,-0.11001121061991974,-0.08073425189913233,-0.08373102825021685,-0.116705194076468,-0.17916176279679838,-0.2513542391695656,-0.30330236841135966,-0.32025444661936786,-0.29696708197968935,-0.23284454578097424,-0.13729113365792753,-0.024782986344334595,0.09423893219130854,0.20361275589519304,0.2920471556446956,0.3549177314810081,0.4051377329619299,0.4530861318169216,0.4844015166189895,0.48285858902887985,0.45398981078988837,0.4101226431818184,0.37483704513953775,0.36436225694390545,0.37836952421944936,0.4047363116241977,0.4333289656112439,0.46583814220753417,0.501316211027794,0.5322385438449555,0.5534081587624903,0.5662324975681202,0.5745306469631952,0.5812523852474979,0.5853691698862573,0.5809368039575815,0.5670320109731335,0.5425987455313115,0.4972400159677976,0.4057574549600096,0.2250335621314555,-0.08909945879817466,-0.4326121064201419,-0.6459270315738496,-0.7433482484897748,-0.7805942510567655,-0.7871482087558118,-0.7714093395927978,-0.7404259645578708,-0.7049331609944807,-0.6768518510975524,-0.6556386745965567,-0.6335946251565368,-0.6092803089803391,-0.5794909936564451,-0.508685637942871,-0.3620009774502382,-0.2244629389999368,-0.15835485347062128,-0.16553210850633274,-0.22271852254764737,-0.27518469959511166,-0.2811253214957034,-0.2388456846773732,-0.17442261018162028,-0.1172879643893559,-0.075546381428588,-0.04921549698716118,-0.02549896877130048,-9.389514360178145e-05,0.028389922108789142,0.060432127361835376,0.09069676136504853,0.11485550264972666,0.13592093004468545,0.16284007728051278,0.20169104678106525,0.24542968016748162,0.273839768973729,0.2670074778988311,0.22236063986103252,0.18038521269838348,0.15721264270879418,0.12382780426468008,0.07075165567886785,0.019351253018686978,-0.018828538437399563,-0.045517550422428894,-0.06366878393963546,-0.06333769360988621,0.13555760980265774,0.14310037498304926,0.16632877953496072,0.19951573689114793,0.24976611136583307,0.329628272748977,0.4567052970314462,0.6252777462549872,0.7124743115325619,0.6306652992100498,0.49795457925574255,0.38809586431433274,0.3073926100377938,0.24794360829693673,0.20956938233497863,0.1901701550472538,0.17795662269768944,0.16434006920065017,0.15157394589101142,0.14443875112382956,0.1477093676026181,0.16273515652573992,0.17979504555896247,0.18663633658829515,0.17482203513651157,0.1414092807648927,0.09452167228405052,0.04485413707425261,-0.008142139857146721,-0.07844942393644436,-0.18727471950706642,-0.20757804842376332,-0.09683756557826033,-0.02203795813502858,0.027387882561168343,0.051728827291904866,0.03991468827456823,-0.021841234262897878,-0.12367745014042845,-0.1987745164242331,-0.2110461292026403,-0.18294836984480548,-0.14913315680354555,-0.12971502739238505,-0.12712059624135674,-0.14339468790442794,-0.17605193491896085,-0.22506551211988232,-0.2783770408507362,-0.31058880697564034,-0.30888097405881676,-0.28204294673032615,-0.24321573605633007,-0.2071069089405003,-0.19580431444801089,-0.21647998257006895,-0.2625703138401354,-0.3213255480073569,-0.36750594444220425,-0.3917649755793703,-0.3962866312315214,-0.38698867214416977,-0.382435584415905,-0.38423355168120676,-0.3830462030013521,-0.3739311462024864,-0.35375968247310174,-0.31600700233274137,-0.26867107129035,-0.22233536272287413,-0.17926822439238752,-0.12549170657206304,-0.04800572578103886,0.04283961093090659,0.12621903868286352,0.18358920290977876,0.2182180459003715,0.22556300568364368,0.21163936219611687,0.19066964956454996,0.18166646581266185,0.18792508170634098,0.2083767414490933,0.24368453590301886,0.28380480082658377,0.31981208571933334,0.34420183994039133,0.3628661697727573,0.37068594814512457,0.36576844358136656,0.3455660640729673,0.3190828587601284,0.3049513991952671,0.3101185294378589,0.3262928706184831,0.3465413555888619,0.36362052169779563,0.37802909541831453,0.3933681215588397,0.3998332944347751,0.3771024272040381,0.3151614431214136,0.19143602829319775,0.030149054997172374,-0.07585178172853842,-0.15047446773802767,-0.23903831482184876,-0.4102680828676475,-0.395063360723883,-0.12767784103041163,-0.02522382903719968,0.029402298380476612,0.06902895488141503,0.09696732086876611,0.08766447055223271,-0.0009353787645554955,-0.14470046651982077,-0.23818576637088457,-0.2662901104424966,-0.27880358543845224,-0.32107699768585873,-0.41882471034850427,-0.5567689550734551,-0.6156462521484304,-0.5949317713915229,-0.5480528371305239,-0.49514696339848324,-0.43299474820473066,-0.344845262180978,-0.21268035990344672,-0.028464583774168273,0.18382147541102925,0.3747233509922962,0.5085247391178795,0.5753255629223178,0.5809721202353316,0.5326079792058568,0.4288083467246442,0.28710451662414976,0.14488981222562738,0.03121159342470217,-0.043364076091290046,-0.09252435789257031,-0.13595585408878935,-0.18248713411292283,-0.22239724153991636,-0.14979771764998523,0.3236205359925458,0.41335292678139796,0.4535929333866569,0.4753319909666027,0.4721963718682216,0.42037808541241556,0.2612304741974726,-0.08963804574882374,-0.42737268504075554,-0.49752982280342917,-0.4835635333531533,-0.6464532674670184,-0.04568600502599185,0.018230813180378554,0.013088010617833724,0.00685314471085684,0.0922429344381955,0.08561861749531645,0.0775760208130023,0.08057641116700326,0.08777885243605435,0.09857884874455708,0.11445947816973112,0.06791207909726121,-0.09165927443961806,-0.1322272434519529,-0.17796507599974803,-0.26622542494823176,-0.4173294798260919,-0.22411436743286292,-0.12151310520127677,-0.10320076140762917,-0.13740648678774647,-0.22972384794517356,-0.379784515588138,-0.5414600538983868,-0.6296612606227873,-0.6211580729613434,-0.5433419354179143,-0.39680492767399594,-0.17037442412608622,0.1012305159391968,0.32470027607744256,0.45028690398339255,0.4887076425443028,0.45583168325241835,0.37646546897851624,0.2885554025660555,0.2337539289474729,0.23344424556855267,0.2884880791945549,0.3828061044400688,0.44305615175411656,0.41975572588275795,0.3378017701571861,0.2759953250194969,0.24764436289598757,0.22917272107185271,0.19197120216522934,0.12640555853984572,0.05256296762195513,-0.0035597263749306005,-0.03600512674473264,-0.050243272082613755,-0.04896007793692062,-0.03540372609220025,-0.013303771171533115,0.023541847945944,0.06718600870911778,0.1055362511459861,0.12955246347222552,0.13258762185645537,0.12168539485924423,0.11115345224628857,0.11280269531012685,0.1268619050871704,0.13681806128010301,0.12121294270563558,0.08174831991956136,0.03529987170765034,-0.013762877035544054,-0.07020061604030256,-0.1372800027479316,-0.22682030258616556,-0.3526009129224679,-0.2998820275459256,-0.08887528094685021,0.013052145297576888,0.07082913279023066,0.11540622577333527,0.15995817727814798,0.22301492723379132,0.28880075262527993,0.29603328714833915,0.27098205486613725,0.2567493400385238,0.27366855916539534,0.32660252407478446,0.39317395498900226,0.45004148942174266,0.4921960487008897,0.5122212221570865,0.5062030331024526,0.4819753800699769,0.44231137849883,0.3881266562910957,0.32522246807282096,0.2585196724032134,0.2041060671507111,0.16601172616609364,0.15138401248079095,0.16520363372275199,0.19516750170169722,0.23545145318991845,0.275190577062251,0.30568281820870663,0.31834930281264684,0.30408890411788925,0.2604493694928154,0.1997840001203887,0.13760877164463545,0.07007178026900465,-0.020163243978285568,-0.16113248258556193,-0.3291318481741771,-0.4428265325078556,-0.4768761387954,-0.42567509339146875,-0.32227345318371803,-0.24150131864034102,-0.18207643214209587,-0.13268851265964596,-0.09664105546800922,-0.07516659431953181,-0.06355150713399013,-0.04576351225873123,0.0021914524552871435,0.08144547596850257,0.17489892493580528,0.2656109618054207,0.3330829035754466,0.37288781129453147,0.3867064553150131,0.3843563506013375,0.3714167341124175,0.3366767779563842,0.2421474551187327,0.03604687345156368,-0.2679814347016779,-0.5224408323936188,-0.6588679272628802,-0.7114897122564021,-0.7172320394068238,-0.6973303280821668,-0.657019597933672,-0.6035100265719416,-0.5503930104636776,-0.5077571332002062,-0.47525567268454616,-0.44500527119935995,-0.4128133529218922,-0.3692437336191183,-0.2935094977571504,-0.17306221921252565,-0.022367722201767165,0.11422619214049017,0.1936644546886459,0.19652540666321272,0.12263000177673632,-0.0002304733373262711,-0.1307551467779738,-0.21991742667868755,-0.23463046682572633,-0.1581720099528333,0.00904598670023926,0.2194275431933898,0.38508096152101684,0.4645063520210043,0.4886289487446093,0.48139483609819456,0.45759285316278614,0.41680508117188114,0.36708579449507084,0.3203804081127339,0.2945702944627659,0.31078881101672823,0.3625767687329676,0.4354522687799722,0.5050399242757739,0.5622688767603756,0.6033808039005581,0.6245433572683258,0.6205788160364091,0.5943991788585841,0.5605285345507872,0.528485074479905,0.4984506020242221,0.4668787931755577,0.42228867031497824,0.3622433060169615,0.2913275529060515,0.2436038167159748,0.2638259246304134,0.3591783144960499,0.5034324054025621,0.6185533729686356,0.6701543486944039,0.6787946210375516,0.650219352265879,0.5778046510692899,0.42209778150342864,-0.05627221057185379,-0.7666820462738994,-0.7899303405018059,-0.725479086725139,-0.6385174011501232,-0.5273304335516253,-0.41589971538194787,-0.3430370900497545,-0.3253337326269401,-0.3690557867809628,-0.5161951046040925,-0.8874036465699183,-0.5396022198310764,-0.25917184240730196,-0.15987225261616084,-0.12449266149990751,-0.1287464777362157,-0.17733985744460568,-0.28547201716168114,-0.43069758652465434,-0.5170195052599227,-0.5008618123608959,-0.40884542326493634,-0.2841320335425313,-0.16127600007071063,-0.05637879348662398,0.018417446715190588,0.027909833984437686,-0.006707270805251172,-0.004071950762748833,0.07986206268780968,0.21960055608510093,0.35163119711800195,0.4985346520809809,0.6833153411425122,0.8452925569496472,0.8664293632173102,0.8014238943540493,0.740573051719267,0.7024243931427401,0.6813637801073694,0.6704379600664321,0.6655359780281885,0.6591456248177411,0.6450752804414025,0.6216058649828579,0.5915168799498336,0.5606129809035408,0.5346992505371982,0.513515681331683,0.4889012400604449,0.45775160574004403,0.4265274909909363,0.40287855448731297,0.38847534511447274,0.38333874268362256,0.378032135218156,0.363621402495504,0.3263334439150382,0.2607189781097251,0.18114581731375196,0.11765526707907373,0.10201395755832594,0.1461114360955995,0.23426013699076229,0.3234359766576346,0.38549975629745814,0.4145446867157821,0.42168975594151803,0.4081953524636601,0.3623496553302212,0.3101890802170494,0.26712602487724685,0.22129362391403998,0.15250484930251018,0.013269722536753372,-0.3161771263802832,-0.8025767453418267,-0.9065610022954266,-0.8302175940155297,-0.7294506596061043,-0.6151225120095533,-0.4972310014866165,-0.38849214610053256,-0.28857698668936216,-0.17450990848959236,0.01323080027643223,0.32219055418019893,0.5542975004943544,0.5992131762962707,0.569526029507593,0.5167999817100756,0.4520768887252878,0.375087059806114,0.28436426220412864,0.18059479582358132,0.07046928471251715,-0.039970860602185,-0.14563356120786747,-0.20120740839728302,-0.19768016990941525,-0.19081084774337012,-0.21158996875891706,-0.27229770993312996,-0.36110925473671246,-0.35749166853463693,-0.31535962551729324,-0.3251374685563916,-0.3951236628011275,-0.5316276843321863,-0.7193214813371623,-0.8776656572539718,-0.8895344285834417,-0.7619051220295432,-0.6030832938149943,-0.4855767085323455,-0.41918876454638015,-0.39402950542507065,-0.3950598666105178,-0.41082790744453757,-0.43237230151805295,-0.46473998574910247,-0.5166904691543744,-0.4446580174583799,-0.1875841967998339,-0.048989201209522375,0.017076643237444785,0.05986110894057723,0.09872053259105029,0.15179731555234022,0.22566878397192064,0.3002133238150402,0.39208579827823853,0.4786383789010873,0.5299868079732156,0.5536614456386946,0.565375681530244,0.5819726586914843,0.63855431720324,0.7765944075800852,0.8113200481846196,0.5244074325737542,0.3336631870467771,0.24231950410150552,0.19737248591798823,0.1737118297938454,0.15653793242355463,0.1325586087730202,0.09754370947932811,0.06522827110567259,0.04460243737931767,-0.004589912011862024,-0.13204929200379475,-0.33501119313257977,-0.5599587368460445,-0.7533146485895531,-0.8130623192294373,-0.7718032592280727,-0.7543249642472382,-0.7953522024961612,-0.8692087784612196,-0.9021630054416044,-0.7772538641880139,-0.5502428540623774,-0.3689887895102527,-0.2770003355076088,-0.2425417591669337,-0.20969457731989877,-0.13227521180934948,-0.024466451013899427,0.07249308045232544,0.15082827159487477,0.21314561327925924,0.25486132880816914,0.2630659298061123,0.22435377884435914,0.12762678171995503,-0.04841960716649797,-0.1785891791254273,-0.22709254507396812,-0.271540884292099,-0.3672836278365834,-0.5601627752877443,-0.4815175703566524,-0.3096106625037874,-0.24851979364463891,-0.24674976064680604,-0.3008957976718489,-0.32943673987477257,-0.21760561228316946,-0.166261388567031,-0.15890953436305622,-0.18080685627407933,-0.21770184587099095,-0.24716683442702392,-0.24742465803939376,-0.21368262737925928,-0.15930449939099797,-0.10115586640905437,-0.045467356634613806,0.0005159174992702995,0.03407448036235443,0.06102870234462368,0.07761805982928763,0.08466208001567255,0.09259592024126563,0.10670411133913939,0.12377407476593094,0.14525653865441562,0.17009256359420197,0.19848210171116812,0.24174456237493266,0.29715451496091283,0.3413974443981528,0.35966970249018904,0.3501890515177446,0.3195108998493087,0.285137181354546,0.28107684215901063,0.3290964777494368,0.4022604544789085,0.4644479907239736,0.49953142925119426,0.5036561627664426,0.4824050311256975,0.4531450674938966,0.43262264883609364,0.42590018416982683,0.42606431843273657,0.4274360880843516,0.42919318250377164,0.433465669079646,0.4394661746391359,0.44623809399303244,0.450200963243896,0.44719788965651713,0.4361485927290563,0.41051295027513124,0.3492249707596711,0.2522419163602942,0.1581871855220296,0.12126272105909117,0.13534922779827585,0.17379278885917043,0.2224610106895619,0.27499369601316265,0.32963953957814535,0.3882529555750131,0.43118326679830854,0.41093042079654724,0.2943804551743232,0.13005460992874276,-0.008663954738267622,-0.10175324212186136,-0.15291806764294166,-0.1754270055449003,-0.18127375974430862,-0.17846527015189584,-0.11228140355111099,0.10618237271162474,0.1318741095166052,0.13824655429345278,0.14112153293126714,0.14279538649373752,0.13959761298931078,0.11196012800586984,-0.008115089631418791,-0.3311695753473979,-0.5965037025643981,-0.6693473079007307,-0.6777626895695857,-0.6558455976119758,-0.6107677559825174,-0.5536827778483159,-0.4948228437433498,-0.4329857963407942,-0.36635804838905073,-0.30076599856389036,-0.22952550174974867,-0.1409881216537899,-0.04970071146437197,0.03148769885421547,0.10377533502915462,0.15850395521862445,0.1706412699483596,0.1278745652612443,0.06533407918786667,0.016357991528066943,-0.009574956730785225,-0.0025926929197277824,0.08800611096433344,0.21997998332595445,0.2007812078386556,0.17323023852420152,0.1435944762545367,0.10199507755200925,0.044217970156897664,-0.0032750864832807934,-0.010612564500592161,0.020987795078944188,0.0636702326283355,0.10136511068372979,0.13203733776047025,0.14973436609022803,0.15423477461610774,0.15518319920950532,0.16243786088549986,0.17649846084852033,0.17892649811231026,0.1525600681750541,0.09023390466144153,-0.0194427535400308,-0.16543042316797332,-0.33514305309966086,-0.5016027744777469,-0.6476344183485073,-0.758156942031927,-0.836949239686223,-0.8924306306317407,-0.9103543446756187,-0.8952048216325887,-0.8736934661201655,-0.8576581533340164,-0.8296283487984564,-0.7605089438489689,-0.6549630293893316,-0.523989071745149,-0.3818592843294212,-0.26297070168153663,-0.18934528589104352,-0.1559052680011333,-0.15202410684762585,-0.18940559797273818,-0.289314716029661,-0.13682554712553913,-0.05893692338791662,-0.024328027968794828,0.004299504534555333,0.038553068142880294,0.08566250335158003,0.15183985374892217,0.24053375454720216,0.20418067575248647,0.10547783830151392,0.07246683717486371,0.12206665226010409,0.32366292933401813,0.5534088998610515,0.5875518807503187,0.5930168857082156,0.6156257027915227,0.6575355023676496,0.7211183115210877,0.7374987458131682,0.4516028115469989,0.2009340713642438,0.10087255272817834,0.05499700749482555,0.019886536332624903,-0.019121438699051082,-0.06141127417047405,-0.11800195130326878,-0.16399913495862245,-0.01776491172137451,0.02528940827765579,0.05583247857527345,0.09588056053461247,0.15964824945759462,0.26467201964637316,0.37444983032072476,0.34450031322509167,0.2443328523771868,0.14663014324430138,0.05267783780961192,-0.030330741644717257,-0.09054734558660064,-0.11301796232113397,-0.07229373432374622,0.038063545735671826,0.16173132989119296,0.24483295818690604,0.2729506631359378,0.2551350124385341,0.2166372935617814,0.17380369416420527,0.13298193195918573,0.1045575707267845,0.10718647780890914,0.2115116127900376,0.38228856625405605,0.2856132021156148,0.26576061119473765,0.27247060093472353,0.2893964170861591,0.30894561155310585,0.3196107389106768,0.2968351130285623,0.20000996744433647,-0.008050987010731524,-0.3804537776342106,-0.7881067492734058,-0.9047905737928614,-0.9336116982711293,-0.9557035799775188,-0.9696450183328522,-0.9660300143467182,-0.9344325947917291,-0.8685989479029118,-0.7840310927042623,-0.7088318240372338,-0.6473605171399995,-0.5910763697031708,-0.537526819696753,-0.4768488193329597,-0.40498067447922764,-0.3282310242567802,-0.26795668293123964,-0.23567560461293388,-0.22175711198776718,-0.2170724408242941,-0.2184859707832643,-0.2229343858760115,-0.23404981422347684,-0.2632324586950769,-0.2807089800547536,-0.21713966096266554,-0.12099746533447844,-0.04332327960633929,0.016974314965667734,0.07249942359938341,0.13249442397878314,0.1901171885401345,0.24421174045772143,0.30245146905429615,0.35661265443740053,0.39352293957983364,0.4202828220455681,0.4686362682796318,0.5556668644740377,0.6795819269451531,0.704642325377551,0.5971368395295636,0.5230976458794194,0.48390976692389365,0.44199410249737026,0.3940697969316203,0.3605041969377904,0.3656304332784877,0.40373199215436073,0.4497700711107938,0.49187805140554064,0.5254595509863298,0.5449559207724027,0.5410566583609566,0.5057191816005889,0.4397967269954799,0.35089054721475077,0.26793048626552257,0.2172071706172901,0.2095899322476119,0.2392915779107716,0.2818392862213341,0.3205336183571846,0.34274835713173984,0.3477694467233365,0.3471653965885503,0.35327875845224455,0.3698331142185004,0.3996045454876398,0.443301241961958,0.500609102769181,0.5709760036839958,0.6469921701781307,0.7203551808207199,0.778431899433522,0.814245318510302,0.8279582679969996,0.8286935379116491,0.8263942480472506,0.8178133480104345,0.7968957480913769,0.7543201093483269,0.6529118079580414,0.3447848076053984,-0.15912096144094132,-0.28903585277831984,-0.2781513126475309,-0.2536322012372954,-0.23508443868702775,-0.2316190675634327,-0.25820720565788824,-0.36010700360578624,-0.6298289110914462,-0.4181765240296568,-0.23918689260760018,-0.17908385531402624,-0.16228101934729477,-0.17331025700821687,-0.21507946804835523,-0.3070581994066035,-0.47328406554253316,-0.6240107822385123,-0.6292271684781567,-0.5925695324740731,-0.5692932252764746,-0.552305021037763,-0.5347059010095289,-0.525754204852463,-0.5329309316767742,-0.5286894410106058,-0.4731583848322409,-0.3767100830066954,-0.2803558077105141,-0.19686390247530436,-0.11811660429974315,-0.026723319641030144,0.08398756533692299,0.20831034015229702,0.3465184507619871,0.48191287419725876,0.5895480120669156,0.6692821055436544,0.7245149976221091,0.7533490976913811,0.7559785838088348,0.7305250898763344,0.6790833689199197,0.6113921105830381,0.5371660485743448,0.4698466796817118,0.4257159050637373,0.41327257488791647,0.4386100372857184,0.47832967530241166,0.501554725388455,0.4966700005155151,0.47625934843890017,0.45509506077361583,0.4390409811292356,0.41566615133870427,0.364182699652715,0.2849573901872251,0.20458314612667824,0.1483222672694935,0.13248676107712817,0.17579585508788273,0.2553608919374102,0.31337096225947875,0.34970185251857694,0.3682830410089327,0.366352773193884,0.352009849517374,0.3278995459291825,0.2875231704681554,0.2249148263242616,0.14479307386191814,0.057586437954491664,-0.041300842629598204,-0.13854125436754877,-0.21617482566306356,-0.2381644744968362,-0.1929128739879031,-0.12151647878467647,-0.06665735952468445,-0.05067110104225819,-0.08577010205183608,-0.17150544214621377,-0.27159538664047994,-0.35706225396726116,-0.4337915814125313,-0.5102782330247111,-0.5802565712834412,-0.6290067386007158,-0.6410096124987875,-0.6116241715842381,-0.5447111178492468,-0.4599930849562168,-0.37609526992779957,-0.30473450739049723,-0.2556632726614627,-0.22777934374936637,-0.2181237372887639,-0.2090395766355827,-0.1571546843643208,-0.13216464724078736,-0.14581052044179552,-0.18173826695264358,-0.23901667902842763,-0.33582227437083617,-0.1499907767182392,0.049555463623390944,0.11890982345375609,0.16084600128717644,0.19309613060301184,0.21751525307520617,0.22254165492918082,0.16716405788141123,-0.05223073718502729,-0.45054462824120695,-0.5057039351364927,-0.41929121466949726,-0.3207038869832613,-0.22255106904845628,-0.13260908344085484,-0.06950806596310101,-0.03696557710923817,-0.0304067200033242,-0.038605395835815834,-0.053893919880676315,-0.07658229426359678,-0.12694639550670103,-0.0941915466688285,0.017813489965826462,0.04834471430662177,0.06904281870496085,0.09275085989684857,0.12896994994299218,0.1974361518752066,0.31445945259327834,0.3284555428334208,0.24388318961723052,0.1832708070728399,0.14322318966352562,0.12477289157793929,0.13464008492379081,0.1818463781842952,0.2371633006046221,0.25539025047951924,0.2526359753535155,0.24863671363061565,0.2526167228794563,0.2731208796442688,0.3193032773893785,0.39886893773461646,0.5174459377430851,0.6554891179851853,0.7755937866573757,0.8595688492823773,0.9104005093523042,0.9428963446823452,0.9668993838373493,0.9847262575629605,0.9935509104046691,0.9935247940236261,0.9886992153349481,0.9814313851642115,0.9688303362945206,0.9389180478025541,0.8448614625561924,0.5389793357154415,-0.03504169914091371,-0.42932622052915004,-0.5962606996816956,-0.682269016101849,-0.7624036631153502,-0.8674130298200404,-0.9443388431078595,-0.8600219553188654,-0.6971503479342926,-0.5752890100752436,-0.4984367261497751,-0.4437785603923474,-0.38730161116704437,-0.2985120759929104,-0.15273859325856298,0.04679442427573471,0.24186466681082205,0.37086391050548884,0.4216837592234992,0.4070794181073434,0.32036853797888726,0.15473542564411888,-0.06912089018735117,-0.29762708031870055,-0.4812339265577519,-0.557655819319349,-0.43403768463418974,-0.1349713108663936,0.16134352214458306,0.31530676206578806,0.3106900971811947,0.2365518967687317,0.15477436159713415,0.08986395265450844,0.04550557581703806,0.017104923265057005,0.000864156826075966,0.002487215159966979,0.0433182424139198,0.23218354550917913,0.3406657618196448,0.2758746486493827,0.25775843855940433,0.2588816496316685,0.27576936390348245,0.31003043065602254,0.35324837392819347,0.36411179356280393,0.3228728160391414,0.26399914657049783,0.19567103337750763,0.11933740627464899,0.04107266162232955,-0.016685789317181454,-0.03967228432754467,-0.030501703149135265,-0.0110662059819756,0.0020584509276908433,0.0017515624074085612,-0.012586913743182415,-0.042422786170604555,-0.07072047101665219,-0.07235014686111639,-0.05199811089200389,-0.031344996131935636,-0.025486566142021758,-0.043091511499465406,-0.08327335141865916,-0.14979931557008913,-0.14745963873850657,0.05208878857720101,0.13285265217504652,0.18943269121774545,0.23581782583072292,0.26276666287218653,0.24573029492497706,0.1434720634614293,-0.05631746119630973,-0.269385945364121,-0.4021216346778275,-0.4311487367751214,-0.3786095367698857,-0.2885066651445852,-0.2081344564121208,-0.16001770811025126,-0.14507139196398494,-0.15337096485711343,-0.16769714532051488,-0.1772749033298991,-0.17730083629501042,-0.16911914349559498,-0.16055584476518603,-0.1461844022812605,-0.12087938870639485,-0.10532252895745091,-0.1217804837061257,-0.167143946648867,-0.21947108933857123,-0.25901869939163696,-0.26966076658364346,-0.23749638924387853,-0.16958108649168335,-0.09514908488554841,-0.0503619421460812,-0.057240163272043544,-0.10583529245726635,-0.18152750480550123,-0.26428577476310366,-0.3013686939529687,-0.2322151388818136,-0.06889903631284332,0.1067356215524577,0.2262296700003372,0.26976497586790904,0.26989572245686105,0.27569945439333293,0.33549529794551314,0.4494167527412937,0.45150232368981635,0.405702372627873,0.39201689761148806,0.39339852764507316,0.4026911123792493,0.4139652059949812,0.42388617084669117,0.43751139876779815,0.461275066731345,0.4905849597055817,0.5149710997700959,0.5081562632661422,0.47122142250644805,0.4271354014967691,0.3884801323658578,0.3448119000935308,0.28731146729306084,0.22078440694532547,0.15170977403793273,0.08024186164654458,0.04614847646164184,0.049950410347773075,0.06542771181071924,0.08159692084244875,0.09237528616229215,0.09972774348083961,0.11522448690763636,0.15785399625262764,0.2381168997970909,0.19575841539954097,0.06545355242820437,0.0004446101638505819,-0.03769059857583123,-0.06673596464725606,-0.09528951681621745,-0.1383085334254922,-0.272291525569953,-0.32588081030163746,-0.06820228689192903,-0.01620732153423653,0.004184012837137792,0.01326233198121038,0.016339530247038377,0.0178806463490632,0.027215174499429288,0.035887900872693425,0.01701774082155394,-0.049743909546946324,-0.14884318812185976,-0.26331458450834927,-0.37476393644402123,-0.45442907885647615,-0.4835052222032919,-0.481875960798003,-0.4728363123328446,-0.46730656697800615,-0.46927474913610107,-0.47242678421875367,-0.464865680607242,-0.44344075188852267,-0.40378716065946546,-0.33872050282317046,-0.24783618661161988,-0.14875893573804386,-0.05564564032160543,0.015669523975346083,0.06828633957556517,0.11485929190164648,0.14222663660060253,0.14249459394728045,0.1298495848734658,0.12164508899924933,0.1345151971232288,0.16888192768465804,0.2204245741561762,0.27166645791692545,0.3052129507106128,0.3063433040429011,0.2907315734306058,0.2760466037352833,0.2672888784022864,0.2591274784144569,0.24882280036749416,0.23915097439732702,0.23292919215929148,0.23201605104684087,0.2393754010005776,0.2589524657341942,0.2810138149605156,0.31031593961217424,0.3512597275169976,0.3968054125771027,0.4306283109372517,0.4397191458411171,0.42261933491547915,0.3789900794848641,0.31900733561506817,0.2570407939115835,0.20788990410971034,0.17829801380073454,0.16442379591775994,0.14870733556027874,0.11756819259088201,0.0744755863409002,0.032089483701469586,-0.00023211062812368333,-0.024310345930843892,-0.056158897998202006,-0.09661730800160323,-0.11873725311765301,-0.11991717833758486,-0.11342046679671022,-0.11694752731569966,-0.13664062129006074,-0.15880412619039852,-0.19840034474625767,-0.28936039047044904,-0.46910162977548486,-0.6454766336276198,-0.47274774829896093,-0.2810709432425514,-0.19312181586213986,-0.16380543524987035,-0.16759446765786257,-0.19088889000939874,-0.22238709346735053,-0.2397524843361821,-0.24181411092298655,-0.2501580107559612,-0.21201621357073333,-0.09851743634526326,-0.03171937820536486,0.0016029137836713558,0.020399034639436923,0.03228227638733053,0.03744677050621631,0.035935532643364035,0.02714556405947687,0.013601595347012673,-0.004594223864598951,-0.034601999767177004,-0.06753906717311776,-0.0987590097779025,-0.11684478349693846,-0.10268037283607999,-0.02918658095164522,0.0906967552969126,0.1992554865290707,0.2629607685013404,0.2895128437330811,0.3008640226887692,0.3089913337366889,0.30294053601823334,0.29273256425385785,0.2923919068596977,0.30484878351497824,0.32003427702999304,0.32758817611753827,0.31849347151284974,0.3010958715814487,0.2935541983810728,0.29505203478593023,0.2980482544717244,0.2956324382228033,0.2858219627039775,0.2729144787138989,0.2656846812902754,0.2702282005323154,0.28972663567014917,0.31980985772300785,0.3467205932294,0.347486162420032,0.3100687209081327,0.23806514763485193,0.1530315301814408,0.0853120131818173,0.0613146882810647,0.0826670594943218,0.11895048478228366,0.1418757332317905,0.14325648746758687,0.12484524751221777,0.08999901390548744,0.03637389954967092,-0.02410757835374189,-0.07445075617673956,-0.11217218625451073,-0.13425386516370985,-0.14068819647621192,-0.1349961069032971,-0.12492915463630688,-0.11649260723245942,-0.10653697943852586,-0.08906787040203003,-0.08247002342236419,-0.11982152472535028,-0.22481212799858283,-0.3840608149206983,-0.5283979121194413,-0.6071304022907714,-0.646323746487061,-0.673818282325933,-0.6946989823417068,-0.70603742337197,-0.699772970707715,-0.6715046213793313,-0.6237151193735982,-0.5594998636016923,-0.48195668298005107,-0.3906417322463064,-0.29828382394005165,-0.2353595583618981,-0.2208926889445784,-0.23344678313866724,-0.24598342835148854,-0.2556747569727936,-0.2605433099146369,-0.2404675431345954,-0.17436654586099204,-0.04127856282564519,0.13445712196088294,0.2998201760099724,0.41519953369171736,0.47281999937765434,0.48265359526623525,0.46652505438536634,0.4457055263966212,0.4586287795318066,0.515422897272711,0.5919444992302876,0.6461748901774484,0.7063259727117368,0.8220226133314481,0.935102430220512,0.9676336751527093,0.9652349012731113,0.9596258041701904,0.9509863995011952,0.932139061768909,0.8907748517250309,0.8017457834610509,0.6069731939708916,0.28907392268376486,0.01806186413676039,-0.11148355345814516,-0.15430609808031637,-0.1642120588950126,-0.17541840225651545,-0.2057643065600169,-0.24483445722095526,-0.23420518297598536,-0.15752227297768334,-0.08298010847882091,-0.028879141474274887,0.009707183628392162,0.038190844300268055,0.06629455053795745,0.10474016577316989,0.14701254070667252,0.18029944905969852,0.19213547031067735,0.1891722105183995,0.1778380657303363,0.1613253604266728,0.11969339946384475,0.05685857967073355,0.012443253326347511,-0.017414942651338285,-0.05538815319557972,-0.1190862194246575,-0.2438209820472519,-0.5235538627148316,-0.9142240060024838,-0.796086052309199,-0.5975560874042084,-0.46550068806420664,-0.36569973680457846,-0.28410736199535686,-0.22213418695318393,-0.18802000179650474,-0.1896365179685287,-0.2328193497353345,-0.3160424897655411,-0.40425341773701545,-0.4424791515687121,-0.4043650552186765,-0.3068572929659938,-0.19890204651968366,-0.12107556928343453,-0.08407699985322728,-0.07241985747152226,-0.07117236365022765,-0.06416392811205612,-0.045620965663543206,-0.015251681580875014,0.017909759613383716,0.03880788490247493,0.02731471737099523,-0.013642125987642147,-0.052408847160605135,-0.08299509702972428,-0.11046273309148691,-0.13873435817201657,-0.15394418219444536,-0.008650634819511309,0.08960409440654754,0.1250070824528838,0.13356403024648938,0.11022839535684756,0.0759328517923743,0.05756067232157341,0.08511930651102807,0.4625151156786076,0.31928548986130384,0.25953846467766273,0.26828017235885965,0.29735810738835594,0.34100534254964965,0.3990806087057581,0.46356902403060846,0.49961336953225616,0.4647624309398787,0.38357550811821556,0.31000905950712687,0.26505763606174154,0.2480555915470057,0.24307092013632559,0.23968796398316894,0.23842292442179355,0.23535868982443386,0.2366704909087442,0.2470233326928998,0.266000970874177,0.28594138060905905,0.29702115716829014,0.2885757266939863,0.25953917151927797,0.2133525179502972,0.15673623668611314,0.10018514800164889,0.05686324838989851,0.03923259939810805,0.03745369372141564,0.04360629624082609,0.04203276464067625,0.017499138456999613,-0.027980475468319964,-0.05892228983663043,-0.06427735016002466,-0.06934487240549732,-0.08103211438953539,-0.10189250127074134,-0.15329991880291227,-0.3894409598768927,-0.16809374300339086,-0.04881174978021808,-0.017769326713950307,-0.009082361292907256,-0.012631253619040673,-0.027824814164859397,-0.05703898336736063,-0.10353391425861157,-0.15455806065836927,-0.1566934266143456,-0.11157912231202258,-0.07472971170582116,-0.06826064156627062,-0.10836012510338407,-0.1875442054418998,-0.2746094933386149,-0.3204187227651688,-0.29834044335810256,-0.2385896295318039,-0.1834451043067042,-0.14496882644213022,-0.1080562681366586,-0.053825301696349546,0.03652051486379806,0.17179792240705774,0.3112224207749792,0.3747144488275581,0.38508817800779327,0.3892519132568303,0.4226012792071735,0.4963780380201393,0.6002170098458499,0.698536883227265,0.7318139661761659,0.5892489977431763,-0.06467422523619042,-0.6227008788736971,-0.7262587059074924,-0.7015071611818375,-0.6216930885905596,-0.5143677856259923,-0.4038614266840568,-0.30422591336926286,-0.2186562554870307,-0.1452669843324761,-0.08598587871084931,-0.029571886798112845,0.031282301169353564,0.09733073751424108,0.1591550932373397,0.20274380258030839,0.22218767278164026,0.21887609994358004,0.19633114033442334,0.1691130759070713,0.1544721748109586,0.1713348179491206,0.225347174779251,0.3020090368251534,0.36698484140632864,0.39348119821450794,0.36959258987946003,0.29702727763896153,0.18925343848850276,0.07403585337877064,-0.016755934520557507,-0.055638486483613074,-0.05569836692055731,-0.04780082244361812,-0.054074989480021096,-0.08802946477057086,-0.14073662227230824,-0.20604991084927213,-0.2802227323750533,-0.3542992372662855,-0.40749483417814936,-0.4379552681467397,-0.4437525408511428,-0.43923802031642656,-0.4196895810504083,-0.39384121631529223,-0.36383311930027723,-0.3372160970064178,-0.31842534013820445,-0.3174182507768835,-0.3396782511720493,-0.3606518430414504,-0.3171003686330464,-0.22772830224796428,-0.14754051391557632,-0.09167227724718954,-0.06021176203484503,-0.04836320959609596,-0.059323924286001556,-0.0921421311087751,-0.12499265070459568,-0.13225941318423803,-0.11744230783068219,-0.10036936395145679,-0.08984533604561785,-0.09375210614935514,-0.11588492914917325,-0.17078395985806535,-0.3578826898543427,-0.22378024368728527,-0.06869907881086378,-0.01926980469152943,0.005381648228790676,0.02378440218000463,0.04200493985269316,0.06503396077769598,0.09070545691236535,0.12292582368926158,0.18826554708308393,0.286601626424134,0.39170356421329994,0.4487530814551018,0.4309975245229339,0.4290821654669534,0.4740363011782537,0.5430381701752877,0.6000292337559257,0.621762413643997,0.6134276289822239,0.5878265450658863,0.5654769093964489,0.5649947169348544,0.570473233315554,0.5602207415349578,0.5231306240731836,0.4675617445470305,0.4125533481652246,0.37093364835293097,0.34562388536249333,0.33094922498252155,0.3231300331676732,0.3198712057564451,0.3225053179305162,0.3313283518275098,0.31429169100870324,0.27008532702754434,0.24471050176120576,0.24445992351436918,0.25873914739242404,0.2728514807080382,0.2745064364137115,0.25542875132123927,0.22106869846822463,0.18209276041941863,0.1486184461787839,0.12045483958388965,0.09286589131735679,0.04232012052467592,-0.06635826481822966,-0.23893890951769997,-0.3708014279911482,-0.39680415426219456,-0.3371691900059001,-0.2754484500091278,-0.2848352828006142,-0.35539254034713097,-0.41697109783101255,-0.4626445061739872,-0.4952007200676942,-0.4580708283229539,-0.35288592175734,-0.2782774690154668,-0.2684551922934791,-0.28774788342557034,-0.31288721344817,-0.35931746511327406,-0.455779052080939,-0.5116335928514127,-0.2976815443227002,-0.15124438261399045,-0.087521557206008,-0.06167132371046109,-0.058021017333199636,-0.07412908338752648,-0.10518023451574335,-0.14165630666014578,-0.17815695571153287,-0.2162167269232406,-0.25607325562781014,-0.29334163633758237,-0.31934763215995426,-0.322762556065697,-0.29959043140116093,-0.2530917001854215,-0.1875863309191764,-0.11251125822268962,-0.033367673207403664,0.0489618464435377,0.1362657811664829,0.19566652005736562,0.19917491508899338,0.18306266874970892,0.1794665920602236,0.1956432894422704,0.20559498352497552,0.18555808808904753,0.14952312157992945,0.12044083609183363,0.10224999234647097,0.08290086236515831,0.04796367251931411,-0.018684509868465083,-0.05804237550375287,-0.042347387670797244,-0.024974154337156777,-0.027349887565214153,-0.046971622299557335,-0.06236966372273832,-0.02776577409810115,0.09736690362141075,0.30562523432684,0.528416516245331,0.7014022896997142,0.8083185524495144,0.864014825974852,0.8884804165193376,0.892524763946092,0.8776583359975929,0.8342893062311394,0.7405518943282576,0.5689643181471662,0.3109711375015497,-0.005645053404968394,-0.34302563128000957,-0.6395832630136011,-0.8221066213501644,-0.9026748678081824,-0.9377917060097004,-0.95702060260135,-0.9702533660149146,-0.9732711282105839,-0.9401506503881424,-0.8491792133381876,-0.7499383660839718,-0.7089639664843231,-0.7298703732543017,-0.7597126602718108,-0.7513815241394468,-0.700000373775234,-0.609339799944518,-0.48377087209006336,-0.35030392454926296,-0.23732280334319625,-0.1482148919037582,-0.08828091460445162,-0.05750940494826493,-0.048469485362740324,-0.05410876202206432,-0.07158799207599476,-0.10386442572681082,-0.15397648118924773,-0.23135233305729525,-0.20702259077880772,-0.05849349744614044,0.009628786072255022,0.04471355053837012,0.06437412195852514,0.0734393552739835,0.07431070400891411,0.06866380376442004,0.06264394760636241,0.0728042075981516,0.12416527130714435,0.18246556215678547,0.21293697396456568,0.2264725303454292,0.21151707696691702,0.2041900326345129,0.24012370471865596,0.29897141871126665,0.35493964848637316,0.3927678449887881,0.39577440364779537,0.3701627852810212,0.3253255299405033,0.26673364966744667,0.19962004352036494,0.12128422485694394,0.043387812740439985,-0.02252603610259219,-0.07020242896956944,-0.10534474992903824,-0.1302234454266466,-0.13798134334561737,-0.10059341172143121,-0.004140018703079693,0.11778630165520082,0.20839101309940103,0.24752173323524104,0.25398473175797176,0.2490628019278908,0.24284290352966037,0.2394308029751478,0.24560690341849198,0.2694043395093409,0.32488865666364386,0.4208548401369706,0.46447982825282846,0.3834387335355492,0.3128678723650659,0.28810358447775564,0.2983664684393843,0.3272910873371406,0.34613853604495937,0.34944958271400217,0.35058683548610464,0.3548043672406285,0.3596635555381279,0.367683074343123,0.3600520279683391,0.3203168035114727,0.2422943815590388,0.14168670626880017,0.02490531608324852,-0.0830946903328694,-0.15865422640999255,-0.1913566060502998,-0.19803791070738644,-0.19187144998663083,-0.17956027271279465,-0.1702959311901414,-0.17842057373749093,-0.21336857783222055,-0.2747996072254424,-0.31973115618892467,-0.3056279455000831,-0.24251272329004878,-0.1426266959224787,-0.047077124442862585,0.005450920834365085,0.02326798302920015,0.024395240786752457,0.023483595005414512,0.02128812803577866,-0.0018990476149500961,-0.05656875333521383,-0.12136758340391095,-0.17729884706929958,-0.21653694465879514,-0.2310536726945144,-0.22302501172479475,-0.20231472355010285,-0.19671703342012556,-0.2323665249642806,-0.31757803898168485,-0.43960537410696854,-0.5522283445910297,-0.6089877979253366,-0.5717144532920035,-0.4148940642605951,-0.199837685763012,-0.060382344351689106,-0.005433706152542371,0.008748463066015013,0.009826508629152372,0.009497058917084647,0.010417738075746604,0.014997421078357564,0.03784823144967538,0.18181245417034983,0.11793587947809057,0.1102596131438069,0.11759247428902452,0.12673472235280764,0.134531679130227,0.1393000679587107,0.13491817406982656,0.09078416676387056,-0.08914259593742237,-0.15177414353190746,-0.12279209636916064,-0.06641990325521817,-0.012124254781611022,0.011439923728275356,0.0075026701605888976,0.00019110787190113615,0.01813616678919381,0.08158696609347019,0.1774536159338053,0.25987053209478084,0.3039072581550396,0.2948033411576535,0.21063121576423702,0.024867522638316618,-0.2396946142771802,-0.43453171758624903,-0.48530806217972905,-0.4552235963190281,-0.3861309386212103,-0.3242098319176512,-0.34132672734610725,-0.4439195659819755,-0.5820767914086852,-0.6608718865147969,-0.6059572454198255,-0.5031546213752396,-0.43165050625924384,-0.3889095695790782,-0.35055420522316116,-0.30007635454327247,-0.23975883784463975,-0.19379332331493623,-0.16997132920997465,-0.16830225721501219,-0.18951922331651141,-0.23842187263504475,-0.30769688935162864,-0.36732097596432317,-0.33622083048513884,-0.19720791611016975,-0.0455136039987893,0.07331838678453871,0.15982784299133118,0.21811356357044612,0.25442827448430433,0.23436270496270223,0.13977010227440645,0.054042420290335444,-0.001087296373737267,-0.04007645813264881,-0.0693932011388463,-0.0925302302080102,-0.10538263859654738,-0.07373540652996695,-0.04400316928690141,-0.050189540666602035,-0.08644527164941342,-0.09603851598924,-0.04950735865756713,-0.030999608299952023,-0.04257823237963402,-0.06432575775174011,-0.07348950550140722,-0.028818545095915814,0.14621760972268655,0.44449076960201284,0.6358505476530689,0.6689722095337443,0.6131464233287164,0.5360378115941714,0.496308967452431,0.5007966200250837,0.5150431474489824,0.509664400513704,0.4548792695954842,0.3422084376078709,0.22284788775701087,0.14388812658852018,0.11132920562918595,0.13946360939652092,0.28960178310316353,0.19882956699474094,0.1495281169713725,0.13663393939112392,0.1377089884751375,0.1530986615586406,0.1890827573088915,0.2463865821727552,0.3087713583386773,0.3414040686259598,0.33873821749252436,0.32022308909119346,0.29740865793520876,0.2610730844376271,0.1856084614886491,0.07702965935159874,-0.044761822008175335,-0.13702615044380645,-0.13168752673339676,-0.0843319059366089,-0.05513332228893521,-0.08006137445554821,-0.19080565531070404,-0.3682680551731827,-0.5895796714532322,-0.8140852673253188,-0.791646740912023,-0.5155044408362629,-0.2934225726193259,-0.16598471297663372,-0.12242230838600919,-0.16417378736146335,-0.2849526751646112,-0.4146549000825092,-0.4065234520638037,-0.31248538257718955,-0.2333939898101849,-0.18483928953896236,-0.16291672266226515,-0.15723804044554754,-0.16757042746859593,-0.19303864586048852,-0.21962226371599164,-0.2274384817809924,-0.20421708061143112,-0.15370387150499515,-0.10097357403060712,-0.07077378192524242,-0.07244907930651126,-0.10580696387929808,-0.17083747030204202,-0.2508027340981451,-0.3108525512746608,-0.3287059593186634,-0.30789697828835555,-0.2662710809062176,-0.21839159871774305,-0.16904559418645776,-0.1105390530167409,-0.029639246538088564,0.08088314877567926,0.21523990487990308,0.34096484481850964,0.4261634520920213,0.4675427590880804,0.48236255642547843,0.4734405782787491,0.43833137261475186,0.3550103210441911,0.20235436708735655,0.0063655479888939685,-0.14563799671253613,-0.17241758610493313,-0.09591029377269582,0.00884612370985677,0.09538110059165704,0.15459312827308416,0.19895999855213775,0.26614111093041815,0.4322781166281529,0.5932312273488933,0.4847815818258636,0.42760959561966644,0.42433723113165117,0.4418390477790346,0.4472534784387816,0.3858054981885758,0.1571622811891172,-0.16880143532239106,-0.34385520943340836,-0.37882880789619683,-0.330926777951212,-0.22793125684039506,-0.07360471213118193,0.147299981116304,0.4164759913661392,0.656166443089181,0.8088162657815513,0.8891265480776136,0.9301481871063401,0.9492864827419535,0.9552325897795635,0.947344966736599,0.9059951399839147,0.7303052799188234,0.13231133907164433,-0.4260042098732817,-0.5993228802360203,-0.6191428056526679,-0.5796553121530537,-0.5261763677144475,-0.48920993324381634,-0.48287574026061336,-0.4858563468658289,-0.4654242826155754,-0.40512283457311465,-0.3272149301818504,-0.26369657645526207,-0.23266366491258872,-0.23824457367685825,-0.280562273316876,-0.37807337583356054,-0.4298903749355983,-0.25349255952255895,-0.1568276387369347,-0.13147685272343168,-0.14595841477512045,-0.19397337708437007,-0.27567763550174706,-0.3815474387372276,-0.48846799058033047,-0.5683816939384071,-0.6028666453226852,-0.5769724427295234,-0.46453325679708185,-0.2909877516550869,-0.1747266271763515,-0.1486441295469766,-0.18342485550726104,-0.24756718041785727,-0.33312514464935344,-0.46609198410618485,-0.6585184033855578,-0.26904749181670834,-0.028250935988348127,0.07420186881507927,0.12660974840341727,0.14397464752701516,0.13836548926911912,0.1308792370285817,0.14454990032095796,0.2204636928558674,0.3371559423209496,0.40351796219899494,0.4388132336727167,0.4746542181165894,0.5058304469530924,0.5119805523351215,0.4960940936560293,0.48435439285813375,0.48775022921741645,0.4963732955166401,0.4945151134200924,0.4780648951377217,0.46199322638733503,0.46693427044868574,0.49470712630193153,0.5386954754101999,0.5928333278972175,0.6475234772441107,0.692797287510044,0.7187488778796745,0.724310172984709,0.7100893915723058,0.6779843222816881,0.6270635110728046,0.5567557453314123,0.4583343771183778,0.3068377544171558,0.08614442034408826,-0.1502971239250668,-0.32120724964154457,-0.4177393751511445,-0.47849572989427,-0.519532869820819,-0.5386580068407982,-0.5525860629459123,-0.5798025938666407,-0.6171085004459483,-0.655013425245763,-0.6900755945831347,-0.7189453207963674,-0.7502240965971442,-0.7839407296786252,-0.8056982141009206,-0.7989126722780088,-0.7665715023130316,-0.7259037258962348,-0.6844105605355851,-0.6380240082133098,-0.5722959236132276,-0.4816779233969506,-0.36874704892251775,-0.24434640144306607,-0.12683689618623942,-0.043539288464466364,0.006886015370455558,0.03357727536846641,0.04730423792067791,0.05245561692822988,0.06773135957072773,0.11705295480748006,0.2287782546448991,0.4089831222652759,0.5943894401816007,0.7266848935102206,0.8097171312161789,0.8651374938915861,0.8992221898583707,0.9164608270283817,0.9219205088148289,0.9163009574028824,0.9046415373171702,0.889983161367273,0.8446985716101044,0.729913135607483,0.58447289461016,0.46333288669986,0.37621944318985195,0.31849987252831136,0.2813431790996039,0.2661954039381736,0.2640875765771654,0.26078607285742844,0.23570214767410172,0.18114448505379108,0.12132941925372233,0.0875007632499287,0.09265136895700028,0.14537401639129308,0.19834923307053065,0.2156451588235076,0.23324855879853854,0.2576669535167175,0.2772909839849729,0.2865191041549361,0.28802963654896274,0.25963256262882994,0.1724815831837231,0.0945186456246345,0.047551039102469196,0.0183469339174664,-0.0018782356350159073,-0.01742372744165351,0.012536988053826397,0.033326886721106716,0.043543115614874735,0.050721352869601985,0.057403814951842824,0.06516591942500657,0.07134180147537048,0.06281103010837341,0.017271384098470084,-0.09280219143985534,-0.258581490357545,-0.4226802697925167,-0.5395859967536635,-0.6084142183402028,-0.6334917324621417,-0.6108522843355694,-0.5731853828761646,-0.5463199714114269,-0.5215383004468418,-0.49141880888932715,-0.4534107949528661,-0.4108809288136962,-0.37550059072010017,-0.3471421223075918,-0.3194785145544132,-0.29091984591001285,-0.2723111209927976,-0.2721871271570627,-0.28230261004097834,-0.2916324315288881,-0.288649925372459,-0.267768979051144,-0.24343166420390278,-0.2254509874115319,-0.2127793799249626,-0.19305406173697723,-0.14691047181988418,-0.07603835639720288,-0.013936104049421215,0.017115431877413906,0.01779975304053547,-0.0018315993849079486,-0.03242541064861051,-0.06989881347280355,-0.11977514272523614,-0.23495512626528411,-0.30197267302293423,0.010230718489203735,0.07634023503008958,0.1160324062567145,0.148254677594525,0.17465023175838335,0.1870539597620159,0.16659389799557747,0.10807279459378274,0.019520824648229143,-0.11597652564354147,-0.34403097227048973,-0.6575841078992241,-0.7200473222455447,-0.57326572846455,-0.41089080406230966,-0.24916686217714326,-0.09027844668429727,0.052259362720800534,0.16354046811829112,0.2548237991670703,0.3529022283165811,0.4666704410883098,0.5829680848647305,0.6763595626593876,0.7284035583441508,0.7372759001219984,0.7015372409435984,0.6030172592438822,0.4013704210456868,0.09522389402603963,-0.19313930976190163,-0.3451213595436811,-0.3538883480573983,-0.2434021951279734,-0.057630478295514986,0.14758238742083163,0.3283398467582869,0.43267050734783685,0.42747008286329263,0.32933296422483993,0.23984958734537445,0.18757092382365076,0.14232064641594527,0.08155098032647687,0.00022168026095328096,-0.1123536477297356,-0.290129903498827,-0.2485987359962253,-0.10062704722699188,-0.020591117487024746,0.02158640629225129,0.03693896420978202,0.03132764763656953,0.0012113303518557017,-0.053279583167911836,-0.13145108068595812,-0.21480885304960143,-0.279863316581589,-0.3086049749553272,-0.30226074217348986,-0.27662636560133463,-0.24014262993674,-0.1951566954016497,-0.15192179280668314,-0.12316146081142727,-0.11389675834012626,-0.1235153672840798,-0.1503104530854202,-0.19475567863263502,-0.27500764765048064,-0.1771532008474798,-0.002713412764400422,0.0648246308754417,0.10687284053302859,0.14217673819297594,0.1757978222851149,0.20592141993394558,0.22568837651081286,0.22807135606301832,0.22734231629633297,0.24995449141023698,0.301776566875388,0.3595634469373889,0.4014116696406748,0.43528549674824757,0.4438323401363519,0.4118408904806166,0.3512240577497722,0.2720883578684054,0.1989610752608974,0.15255506001948735,0.1314341004636328,0.1295857113090453,0.1392159642990082,0.15873759536766396,0.19668483060996791,0.24238592553863025,0.19685247251719218,0.12814445342546613,0.08886060462632578,0.05618363211907732,0.020489978394815207,-0.022290264159629498,-0.07258393989707856,-0.12225512654270398,-0.16090070528363973,-0.17132341490420114,-0.1452054564856498,-0.09334268275539027,-0.04834644454481429,-0.027405387455805136,-0.028549059842316295,-0.04096098864925355,-0.0478616880903298,-0.04151999120161996,-0.034012071500231354,-0.04141805632814983,-0.056751388447359365,-0.07513048556167727,-0.08666048696055445,-0.08872135803014272,-0.07778341055468087,-0.06658456293130179,-0.0646519147013335,-0.06759299553402358,-0.06690907070389693,-0.06424754041567084,-0.07064675079565733,-0.09602089098012183,-0.14023421613224837,-0.20280279648892635,-0.26775164487664094,-0.3115645578062279,-0.31794521039104057,-0.286688637235144,-0.2355262145666186,-0.1900219178637877,-0.16101646552658205,-0.15236324975657323,-0.15526789625802145,-0.16560602235120697,-0.176962856658864,-0.18636973576379046,-0.19087549976316417,-0.1833915048097367,-0.16526664363061838,-0.14874212649505014,-0.1397887453066915,-0.11920720921981373,-0.0801987696162856,-0.0356763701749751,-0.0032847865872911346,0.012022436939457908,0.02650378984253719,0.05046824457384465,0.08510828935259351,0.11992047808513195,0.15061712373340122,0.18029989498246313,0.20356630346929286,0.21629013200010952,0.22690985358988203,0.22990740712816699,0.21738863430453062,0.17549164197853204,0.12488002060591777,0.0943238220596776,0.1047901354298563,0.15426934026145434,0.2276131722537465,0.30768730125223526,0.37420197869985006,0.42265332988188326,0.4533520393794369,0.46983602663834656,0.4704682563386154,0.4580779478751963,0.44528407286405725,0.459362392920878,0.5210645946070339,0.6049648999960446,0.5969577335213738,0.5265655066829075,0.4745183775593885,0.43064241237487305,0.3556870338669574,0.2043774952922521,-0.040919513773123424,-0.29093521915343684,-0.4492183315172589,-0.5071754614954904,-0.48448522447223125,-0.3876985689718257,-0.25118701149865746,-0.13806686942699595,-0.09882958291821022,-0.10729711359952737,-0.10842877882159119,-0.07398207452609588,-0.013531289906893723,0.04845636416620666,0.09206974282114637,0.10468191927650156,0.07789126596099265,-0.001962352278380538,-0.16718457895541586,-0.44141049186209247,-0.6295830612352015,-0.6579050331867689,-0.672868000469558,-0.6998795603728656,-0.7324451206058207,-0.7579001224260375,-0.7423243945885283,-0.6572308920599714,-0.5348712961252842,-0.42187906101823686,-0.33592645844886954,-0.2779313512770871,-0.2514501237360168,-0.2615281924850584,-0.3063577607364243,-0.3676324983197618,-0.4168644829476757,-0.42504422600401287,-0.39222908900137093,-0.3454732981176965,-0.2975590891026733,-0.24974500334855068,-0.1940057350460565,-0.12945685781124777,-0.06975309141294582,-0.027399696975588108,0.008294241296179316,0.04244298910212386,0.07172502647848207,0.10897866644311875,0.17501554882400144,0.28722737214846933,0.46301775365552,0.6501685686286429,0.768056345504457,0.7934425893417074,0.7405927125378288,0.6474185406853188,0.555825220173753,0.46971880894705137,0.39066308572568476,0.3296817269097721,0.2901599243372097,0.2686664602334631,0.2626602841549092,0.2680441486065384,0.28086172221961087,0.29779191327314536,0.30856000592202326,0.30931660262989347,0.30278205954019194,0.29560645543301106,0.28733526444631285,0.2744120860743258,0.26176764383573836,0.2407085524670857,0.1832385896874666,0.12121362180520245,0.08664631047348693,0.07305088454270971,0.06920285764996416,0.07998646910581453,0.15502958226655766,0.13185280967001445,0.09749256958358123,0.10592591234126846,0.13453052143376504,0.17952276933387412,0.24142649611094188,0.3211896772071392,0.409034823465286,0.4576202788213548,0.33143288030392065,0.04670920927881232,-0.18508351608545584,-0.3167991387895429,-0.29803296199846924,-0.1783310171426624,-0.057680467750559655,0.02197760759158275,0.04738542679404129,0.016187853430524035,-0.06712198454119603,-0.22225054932317664,-0.41428560643917434,-0.21778256965289886,-0.10512950427178498,-0.046228061194757766,-0.00752949444544589,0.020294175605578498,0.03715120615051294,0.04003749779827075,0.023918983675265446,-0.022859150759351566,-0.11578759246864397,-0.23498434147928152,-0.3120085492781998,-0.33259515028406056,-0.32798187112296084,-0.31045424098659236,-0.28147133886984693,-0.24831298471530633,-0.22839771396022815,-0.2290377896854619,-0.24299339442433832,-0.2571672841821338,-0.25644424324138143,-0.22375978132830326,-0.1652435523760574,-0.11980292069009882,-0.10017049832663957,-0.06676738644554626,0.0998912323600986,0.1305073998951464,0.15082494382082298,0.16992623235693632,0.18554174367215942,0.19271935045581293,0.19352960981565445,0.19729328780946612,0.21732524136888465,0.27341743752034375,0.35523139438834017,0.37846606447284065,0.35967876540894467,0.3358362028987447,0.3029346867874507,0.26764308326231756,0.2432638572594166,0.23593260597517188,0.24700246697145226,0.26975082940700873,0.28915157209036996,0.2968353996383529,0.29122260011080536,0.2813943689342115,0.27690724990018134,0.2827834949877934,0.2901453385510012,0.2873526510371579,0.2567382168060167,0.1736054226800166,0.02829599417479591,-0.1637062072116393,-0.3506817146195453,-0.4761375031808101,-0.5254835090279543,-0.5183854713191127,-0.5031063659822101,-0.5352159722267514,-0.6201065838526875,-0.6364162952124623,-0.5635878144818789,-0.4850008871174369,-0.3945567594999282,-0.28148960858925676,-0.19396680758705026,-0.1461820892417604,-0.12248177773830243,-0.12108368733486612,-0.1414002968671782,-0.20119285773725812,-0.4640291800003118,-0.18264580100969682,-0.046553291487861054,-0.008061415537972069,0.007994898482533135,0.012948592547095373,0.005680409062852813,-0.021091651214020086,-0.08017732477616422,-0.17177938810245358,-0.2493596195434713,-0.27931178111498095,-0.27219076357942645,-0.2375380408675172,-0.18262228944036185,-0.10177425358901306,0.032728166811744244,0.23663703278473222,0.4746858485764121,0.676225468117644,0.7936572332022386,0.8280960104122366,0.7710436447858608,0.6378993363032075,0.5004679336668622,0.4136998890294685,0.4111016545477362,0.6364700238344148,0.35193381559310305,0.1444211561299135,0.09310241187942828,0.06905635458365464,0.012998549641458995,-0.40946050804719947,-0.5093476620742735,-0.5370568152940522,-0.6088604774553471,-0.6664513916281108,-0.668926920295368,-0.5806619621520698,-0.39676320616528704,-0.20033966879900203,-0.06385321997416174,0.01649844761638087,0.06534690133637773,0.10106248969842953,0.13346052806357966,0.16509109023490423,0.18656300038904225,0.19192787694767804,0.19103846809428426,0.18716433345841632,0.17978885899840769,0.16838910054347273,0.15269828210726,0.13617390785425892,0.11738989219774672,0.09726783857657825,0.08557477721823775,0.07608281307509009,0.04765917158944797,-0.022986339400869846,-0.11892542737373181,-0.18751630879921113,-0.20813821528748036,-0.1941336659492838,-0.16605614068866092,-0.13307820250837876,-0.09384421541895127,-0.042105266268063456,-0.04453244270567764,-0.09552252152507822,-0.14747323344474958,-0.18150368788827825,-0.21512677829743446,-0.2715067728273194,-0.3455902207567842,-0.3139166825144442,-0.228663607050833,-0.1775991930925158,-0.15036922953268766,-0.13576720313534393,-0.12895203485006504,-0.12936972217196413,-0.14134858442215484,-0.16982974330201955,-0.21248509629681753,-0.24534774887397254,-0.2545976161540703,-0.2400856550870541,-0.2006921199378601,-0.1513312568617288,-0.09915737256218737,-0.05842658416677512,-0.029570430306227115,-0.003905071056773076,0.01869978239422706,0.03507963281300245,0.03572409699969564,0.011161056447874892,-0.0416550989542806,-0.08862072474980145,-0.09695032442159028,-0.06866259064076287,-0.024592538492234087,0.018519819707251334,0.05535901303472865,0.07834357928325508,0.08222662775836219,0.0711773488087397,0.06244758353349209,0.08267043669486482,0.14739599970581946,0.22796252536993827,0.2711554584614141,0.2642368333567594,0.22711930324236923,0.18259472995427156,0.14532024518595207,0.12596721838132086,0.12869701573221373,0.14654101241459164,0.17278070838735002,0.201989396360442,0.23382397583081063,0.2672613828191913,0.2960920523532056,0.30605992777412766,0.29492477829273056,0.28902142980482515,0.3065192870098768,0.3440208711180302,0.3829971933089816,0.40498521201535914,0.40761766166539737,0.4084160078125547,0.4118065697546762,0.4097478612090995,0.3971487325411726,0.3843505858014842,0.36950278281402105,0.35145571359083694,0.3286057366037479,0.30185155816757425,0.283731600432726,0.2779369689676199,0.2790620521294593,0.2765525633849587,0.2519173517631797,0.18455336014570717,0.0668556912000398,-0.08190038197111515,-0.23688714049157428,-0.37489137849161885
