-0.39735060138007655,-0.4143827562280731,-0.41183959419037625,-0.4026277076240641,-0.39410787272163994,-0.38660445697513834,-0.38060177733508543,-0.3846847625799881,-0.4005331478524304,-0.4203982674450871,-0.42346290237294587,-0.4007137290735948,-0.3672721556591991,-0.3455333173525056,-0.34889151341741104,-0.36873280890042454,-0.3964454728637166,-0.43579782499017883,-0.48930531337618577,-0.5491809280488805,-0.6028063962129769,-0.6415600622119363,-0.6507623792513934,-0.5915862588411515,-0.4082530191575126,-0.12071135354209583,0.1718905192835303,0.4096956187703005,0.565298963656044,0.625222250419031,0.6240150711975176,0.6013995566373407,0.5604467720668108,0.49491442766431526,0.4013105222302732,0.28752441073499,0.19253920093802798,0.15487014573163962,0.18740481507649293,0.2673584238733716,0.355599873586946,0.4156113645701012,0.4340184801336907,0.4202941585530815,0.3894094881858523,0.35838574698451825,0.32883913519684443,0.3023984882553342,0.28861737112595404,0.29447796972162066,0.31556748953493896,0.34539114361355255,0.3797390974631693,0.41702520566093043,0.44960140240999413,0.44990334105127316,0.3616194137386858,0.21195095000080247,0.0891822360351644,0.0012979370968116504,-0.05582264133779954,-0.04455698321101747,0.15816383872497022,0.23242449553217578,0.27542956406698743,0.3323738558797462,0.41829520004957854,0.5120314337124396,0.2055441692278723,-0.0816863881482313,-0.2640583638407618,-0.5102750808021459,-0.40330988805875,-0.1863178932345477,-0.09742721609541387,-0.058374209886713595,-0.0503662737799961,-0.07758219485604305,-0.1543738905218829,-0.2832909971219751,-0.4115770549049686,-0.4837290782022278,-0.49472975196183927,-0.46937720627681717,-0.43871799151011986,-0.4247420354537702,-0.41988880255041183,-0.4107393201159936,-0.3829159324800078,-0.34075617314118006,-0.2842303811270025,-0.2144101383715067,-0.13096747023594374,-0.04211194612323892,0.028141186256711706,0.08173382678560033,0.13286926084982634,0.19732334696168577,0.27884470257523253,0.35941468719422226,0.3742579440334923,0.31792316602019055,0.27738314557269417,0.2759151660788654,0.2970585519562471,0.32326557067557343,0.36047906316955186,0.39084697809583435,0.3916900061378854,0.3384588436222406,0.2472510142316946,0.16905550517016263,0.13139496170750442,0.12420133554550127,0.12168834733904697,0.11215047281137605,0.10153364946183001,0.11333495453256723,0.16908206028277065,0.2595288408058928,0.35923711823851184,0.44481519397196284,0.5081195396497985,0.5572768064833283,0.5979788577303139,0.6410714189935067,0.6914940191067462,0.7464766831799936,0.7935142615262336,0.8241419034984179,0.8371964124596715,0.8409088822062841,0.8421541537414109,0.8437725142802557,0.8429320711684393,0.8274644171296486,0.7811010724148528,0.7054152618234708,0.6174184997243,0.5182883830612531,0.3541967611614337,-0.2397836582732946,-0.473356644354788,-0.4449360914290723,-0.4443786797969036,-0.47799930838842575,-0.5461520108072414,-0.6460619879346541,-0.755323774732973,-0.8328636547080279,-0.8609704030783186,-0.8500594621725637,-0.8030874347147675,-0.7217422105882505,-0.6316631610011327,-0.5628899032026646,-0.527307214778476,-0.5092690978027518,-0.49308363310145154,-0.48628750646276986,-0.49644132479836073,-0.519216536193987,-0.5512402720961955,-0.5956594388300922,-0.6513706161040433,-0.7034636145111801,-0.7050343452082651,-0.6205442213648263,-0.4838871294931779,-0.33948465737958505,-0.20003208264490904,-0.06362787427243188,0.05970206386121966,0.1163584759341016,0.11045933422770277,0.10957092298568495,0.145909679392617,0.22277529958321735,0.29406980183187503,0.34399871199071425,0.4048488069798026,0.5045838991380457,0.6547396155688681,0.6442842886735549,0.3614902365540518,0.18308721636712472,0.09650579780013219,0.06638189314548484,0.11598430898367641,0.38387597341693575,0.416268471373449,0.3722673359402815,0.37606691995334174,0.4033668635981094,0.44512249905169055,0.4993104680971323,0.5575811085642413,0.5642208616118126,0.42832324941226374,0.26725711380813794,0.195866445337689,0.20003605444897735,0.25330397304604224,0.33070357869845396,0.40096507959295075,0.44948831158083363,0.4909643755817673,0.5430574766530757,0.6086387494014135,0.6697863376719304,0.6978422966289232,0.6819183087882631,0.6195572763516345,0.522197500454879,0.4154670552314825,0.3190796412961193,0.23443171199538548,0.1608676129238993,0.10150708953495165,0.05331054150629764,0.03334216960391254,0.15800450221514298,0.31610627508672284,0.29818501364889016,0.3045476805436675,0.3175140847163601,0.3351640263679758,0.35379521270715986,0.3589036057851454,0.27622028800954523,-0.1656558031078225,-0.5919949885760697,-0.7532245086511249,-0.8389886830977943,-0.8919112990404235,-0.9219218105765487,-0.9369357649409414,-0.9441958280470503,-0.9468606745604189,-0.9445916687642373,-0.9371559623260238,-0.9266474785195842,-0.914835611991829,-0.8988464233175213,-0.8658345855391887,-0.7807141788791873,-0.5817057740421203,-0.2384563838043532,0.15318035239655328,0.45689633146207964,0.6408879812501346,0.7412460603690925,0.7921479447150472,0.8183052325965532,0.8303704978369617,0.833550750449343,0.8366473173776554,0.8462168147914392,0.8606904493035413,0.8697326272610788,0.8648888723810654,0.8423387828718767,0.8069958604839046,0.7642529475528527,0.7237960780959536,0.7011489795388076,0.725158729314667,0.8038334294865997,0.7897793755017578,0.6463231138036306,0.550167705163056,0.5189016846015901,0.5209841376554097,0.5435996080175869,0.5623773974258159,0.5282397489779105,0.42727117176835283,0.3286110162406804,0.26885230923373615,0.23753689007149698,0.22104173443273992,0.22035162093617552,0.23005301084175395,0.23427138351648605,0.21142460751168535,0.18199118470800138,0.1680921841710481,0.16920698012155333,0.17442671361550122,0.17582975923503955,0.16590155007335708,0.14177264802763503,0.09643542706380576,0.0332684745461352,-0.02774049041524053,-0.06996019876084915,-0.09900802845383651,-0.13178296738934558,-0.20413117723611218,-0.34983551366341653,-0.4820349099357462,-0.47789350584491413,-0.4139009761852614,-0.3601935948355786,-0.34082810093406185,-0.3600470988827733,-0.41251729674719695,-0.4711813238097996,-0.5081403863690024,-0.5166174476585269,-0.5061055760052562,-0.4889902020827466,-0.4735034051371465,-0.463748021662185,-0.452167676955999,-0.41077974738257805,-0.3361269898636115,-0.2718950736666128,-0.23226781794451754,-0.2159229198080636,-0.21973554518653052,-0.24008562254398827,-0.2712732412758538,-0.30568916534713747,-0.3315573285628835,-0.33040414037498417,-0.2933220933292557,-0.23483331595860765,-0.17170414078179194,-0.1086709158678264,-0.04533542443473754,0.015037424679215544,0.060352758973743655,0.08661401983889055,0.10957905863478051,0.16564257701156207,0.2879273574653363,0.44779223803072693,0.571069298614892,0.6430330048242621,0.696149760881036,0.7453798637493717,0.7775865345071585,0.77064912283855,0.7184900081659924,0.6297394918267679,0.5164603488810937,0.3740195720435781,0.18429335317933024,-0.07527401153100696,-0.3872035954008569,-0.5689209783691856,-0.49155954828822157,-0.3169971111315079,-0.14598728414888854,0.004502384822922715,0.12180842570822464,0.18562892970309341,0.1963538436462492,0.1893995130655934,0.20826792784912893,0.26196436907405557,0.3299594617064476,0.3888356298181459,0.4290529400346759,0.44433285983980575,0.4335990177075243,0.39634191609449276,0.33827654554810077,0.2661960863813986,0.18080209253866075,0.07716753388515114,-0.04535876127670939,-0.17995752465002157,-0.29950335640840364,-0.38357688207088564,-0.43527807320279865,-0.4689983950241552,-0.49362009738085594,-0.5075442901046313,-0.46875944015726273,-0.38309525863636795,-0.32039048680820026,-0.2999699894477126,-0.31540572732209265,-0.37602729780350996,-0.5571084979389704,-0.8408040591838751,-0.3616463647577286,-0.17676347208914217,-0.1020867278263655,-0.062214414416043626,-0.03491221035609272,-0.007200600849881164,0.039572580615621473,0.13379429591457548,0.27704939478963597,0.39470716891246727,0.4728278875205725,0.5415626757966947,0.6030839598167412,0.6435947407129022,0.6594920721184603,0.6543038242795891,0.6287050521716158,0.5784773815810255,0.5003142935597712,0.40393526013165415,0.31257585579487573,0.25141515120008057,0.21239325798366562,0.17163579937785065,0.11057799734023613,0.04024526428825247,-0.016593369386994156,-0.04795985840988243,-0.059827951114139515,-0.06642419206488633,-0.08218909077429101,-0.12026938693570802,-0.19410536833892497,-0.3432577307805682,-0.6815487451179436,-0.926126457105479,-0.7360939676484773,-0.7307221394394866,-0.8674637585734212,-0.9117968932988575,-0.7045445698729899,-0.5043247592263016,-0.3958061345417209,-0.36519587198456416,-0.3998577318390989,-0.3993580723803821,-0.12904105912046376,0.027859875095338434,0.10594504382249892,0.16074244618418612,0.2106529392036328,0.2690940562589743,0.3407973160087282,0.4177445936261662,0.4782150275275381,0.5071354864259991,0.5036933888879723,0.4852136887141465,0.4751248039450483,0.48594995004375274,0.512470448571082,0.5439177584248267,0.5623750999794007,0.5578478265539519,0.5324128321240332,0.5014321613381406,0.48484036323640683,0.4932672703962379,0.5116505928903881,0.5096043162647674,0.4706317566614884,0.37779800270853553,0.22466791075001108,0.09180633035198574,0.10625977284162133,0.21236153985743372,0.28563581721434306,0.3155843267794939,0.3112918585916182,0.27018948257222986,0.19699535343970373,0.07236551785826459,-0.10009157897722827,-0.2428083753479288,-0.31672867420641443,-0.3580817367410575,-0.3784532445240054,-0.37344127852987874,-0.3353487287070458,-0.24301296618364976,-0.09808183002294858,0.057841045628664295,0.1893725568016779,0.2830671289813516,0.31198316775054674,0.24982168109826722,0.12860092329583334,0.0040445295644096066,-0.09811922347963734,-0.17016094448784028,-0.19870387877582585,-0.1453310062758915,-0.032968076590088005,0.044110095342861914,0.08360154589136681,0.1052863352726871,0.11596519868090817,0.10854627725100079,0.049710188011776055,-0.09679326077959279,-0.21692358650062896,-0.26131660977430904,-0.26783524731651825,-0.2475460249790397,-0.196682635154505,-0.10221471434167481,0.05412361942027315,0.25537264059831516,0.32753904667671224,0.05815652132996764,-0.2515450665917108,-0.4208311167738638,-0.47391362344245436,-0.46883809859996567,-0.4433786099627711,-0.4192740152547996,-0.41845531926853896,-0.4508999287469559,-0.5012360115782165,-0.538041726949381,-0.5369487462983983,-0.4848705156284248,-0.3608029860688516,-0.15221599665562752,0.1046963990721187,0.32155736340951907,0.46229968433669166,0.5513284122723597,0.6123836567568398,0.656735802874684,0.6887067848108656,0.711387263248525,0.7271716553480099,0.7340860812672962,0.7221100510553851,0.6840223879324766,0.6437322662177344,0.6620308093076763,0.7806003699416956,0.8780084772963026,0.7675362369704586,0.6303092344963782,0.5500663424134977,0.5123355135193501,0.49310199468649146,0.46454134898717436,0.3398297616356517,-0.26102969624583416,-0.3852361114317856,-0.40620470924516144,-0.43493426211477804,-0.500976902370043,-0.6499353241194401,-0.8923408045347627,-0.7385013497114669,-0.4396450443834638,-0.2901611467323766,-0.21988133241212282,-0.19697707120440622,-0.21654863895313584,-0.2787231648188655,-0.37118053212224766,-0.4708193724059305,-0.5601655096510247,-0.6281212858138423,-0.6717951069808052,-0.6823932745679545,-0.6529536940470475,-0.5734513028718867,-0.43401913193980196,-0.241663268841197,-0.04617670141782097,0.10626950845776574,0.2019883790459405,0.24649385874349566,0.24831497208845507,0.22658727541453863,0.21208344340752067,0.2626774785114756,0.4177652775291541,0.6221903533372042,0.7755842062365479,0.8557941193878481,0.886434324166306,0.8871053825387486,0.8678669320198136,0.8377725408725013,0.8007921068776602,0.7549693167635279,0.6821273679762638,0.5346485697476393,0.19205682533670643,-0.42542301429394114,-0.8360507574598929,-0.9271026621742258,-0.9123207344167918,-0.8703748147136269,-0.8198848008699353,-0.7524441935045185,-0.6285114597405551,-0.3797931131029876,-0.0632142949726242,0.1650344754571173,0.29236225187739256,0.34797786416485826,0.35156775327095086,0.31845877698422687,0.26375662707243347,0.2057536781985966,0.1574554418033317,0.13292569365023132,0.14770784145408403,0.21487916807788313,0.3471188769814531,0.47495738896797446,0.42396353043772006,0.30017018605557727,0.20672471089362374,0.14654455784939513,0.10947346942453513,0.08658900062035413,0.06874944852646164,0.05190547629939853,0.03800226201020639,0.025938744196096777,0.012034531604330597,-0.006336165897827519,-0.025806887163953327,-0.041233145450332756,-0.05340573531310797,-0.06675388172362293,-0.09256408327268623,-0.08533084159240249,-0.06233826288917571,-0.04787339669622676,-0.0434760047002221,-0.03960321371957641,-0.021843693937498684,0.013851215328963495,0.06477739496676622,0.117023899514376,0.1683731525264879,0.22867443064914306,0.30281127891615617,0.3776102435511961,0.436017470048802,0.4590985189585615,0.43680920682898366,0.3682223395298356,0.2624093317216146,0.14214473599940636,0.039474811636724554,-0.028167362840146346,-0.06738416138037237,-0.09905294956986045,-0.14024778064668098,-0.20193409480706043,-0.28484497665886016,-0.3774742079086812,-0.46710326776523364,-0.5382022542090269,-0.5201633841605942,-0.31033941826244893,-0.07549842865435705,0.05561992388555783,0.10826405425549403,0.10583122797505638,0.08335979917259523,0.07993048203137328,0.1098581821165312,0.16724107335409144,0.2015200758206348,0.18269377667505415,0.14174393748279818,0.08142882064580752,0.007435801044920784,-0.03906499833316474,-0.04607507300906704,-0.03392486801719134,-0.028179408113416685,-0.03721716275638907,-0.05266590582144007,-0.060634970210505054,-0.02903591760605288,0.05013184010962922,0.08482624069618301,0.09732103111346943,0.11176196590836603,0.13870621977352515,0.18944958514721472,0.1640222588320314,0.04485010343979397,-0.00886826805993711,-0.041776125907271595,-0.07732206274215446,-0.1366703749208009,-0.22438665865928945,-0.1090752392825618,-0.03641295462161467,-0.004009761836606933,0.014278714917065234,0.024982749948347607,0.030078381960690456,0.024814992312402778,0.002187319601862054,-0.042644430957611515,-0.1151718122438571,-0.2278914388583912,-0.4036271720206093,-0.6333356265737622,-0.7855589434179038,-0.8203068587226293,-0.8033299980172699,-0.7660648294613719,-0.7034772058438922,-0.5992676940693275,-0.44797992297094863,-0.2719843811769644,-0.1129420920112572,-0.016171068603935128,0.004020743143447577,-0.04880312694249627,-0.16547801803948559,-0.3028185777173373,-0.40478075781966416,-0.4619481091654964,-0.49453830101992385,-0.5329647255800655,-0.5843028074751229,-0.6371799878792841,-0.6815133883145378,-0.7116756332594578,-0.7243793159631042,-0.7185111922867194,-0.6927470899908492,-0.6468886417031006,-0.5765207786099253,-0.4817211639722209,-0.3649583513891827,-0.22918013315173574,-0.059929963158219364,0.15960417182567588,0.396438713494109,0.5704605593563965,0.651789032597167,0.6621659831417047,0.6358946746271206,0.5922898310255715,0.5530893489705184,0.538217509693405,0.5520920580782551,0.589078757241544,0.6407462470660138,0.6950912021001323,0.7379039284603934,0.7728236343711238,0.8132771060711372,0.846048059393223,0.8516733535515846,0.8416209764960949,0.8286915135959834,0.8157494740549259,0.8031430022998352,0.7892508617920638,0.7682935624672206,0.7461232402453195,0.7316766403790077,0.7288493922479464,0.7294292492997051,0.7214105598238579,0.697973977010249,0.6561396221508374,0.6139105887103944,0.596177587234591,0.6082175801977834,0.6308433208663072,0.6463385896288804,0.6491346226591815,0.6412916425113276,0.6265435131394899,0.6121468112773273,0.6149471244399037,0.6451873287019468,0.6896193557941668,0.7247639079914693,0.7170061267664031,0.648985257271262,0.513341580644819,0.30905274346111056,0.0940881384960421,-0.060755255562756266,-0.10645800197085732,-0.0795976669418713,-0.043822360869917726,-0.018553587665751256,-0.0063830619497184955,-0.010358345445818587,-0.038590082333630274,-0.10587229185152525,-0.21662050937281066,-0.32575413799385006,-0.39027248389617253,-0.4177290495491372,-0.4285590081579265,-0.43421545449451093,-0.4420334777482282,-0.4572302057249359,-0.491976419510853,-0.5433129004374508,-0.5913261744445919,-0.6282403006389002,-0.6566726231649914,-0.6762471140387949,-0.6809640607090833,-0.6657876955810388,-0.6292123908223873,-0.5844412415186904,-0.5516345188012504,-0.526210765684635,-0.36166894369441266,0.05702266078143065,0.28062084268131676,0.4092892289804027,0.5252819160858044,0.6534083986227833,0.7910914982969615,0.8677246785126093,0.7947469575003853,0.6358443746838036,0.48741572039606945,0.3772676848126674,0.3137331336581702,0.29608874304865007,0.3032544526715748,0.31526316507980007,0.3069515138793102,0.27843201293828973,0.24054335040278849,0.20089996882000064,0.15882028820332006,0.11575043777160281,0.07550058738234872,0.049440087537974714,0.06130214171835134,0.12140757875297463,0.18688335070936818,0.22503231208922306,0.2519195133072959,0.27576761350347134,0.3017681490895622,0.32821177225317005,0.3521010936892199,0.38315436701056255,0.4303102397969615,0.4796966236097049,0.5089495790254406,0.5129023471762082,0.5077373086627839,0.5096555563021063,0.5217612000776776,0.5271601939356535,0.5084356004282014,0.45749268774958596,0.3658551107124361,0.20553040546749501,-0.064602661637168,-0.4677022062634565,-0.7587074484732786,-0.8075339632989263,-0.7258446015483548,-0.5822371301721497,-0.4155558035867376,-0.2930182443445472,-0.24694961146843888,-0.2557996743048483,-0.2947236921473104,-0.35958534038094053,-0.45180263482330096,-0.5490729511180328,-0.6260880443187271,-0.6677542590926069,-0.6737697360550785,-0.6497686536424144,-0.6008929576894719,-0.5212092774151322,-0.4209809530287047,-0.31322185153220994,-0.20943468487410538,-0.12143522159708535,-0.06184463427315764,-0.01895571782940026,0.012185736274264272,0.013269027050921952,-0.009990466991108064,-0.02699179805837171,-0.03174354103010289,-0.028702940098428227,-0.027390732306834916,-0.03296305592586057,-0.05687180316382313,-0.14800998410067603,-0.31132460240164905,-0.3903152233294888,-0.4509300896741198,-0.5042875142120293,-0.5477109074212057,-0.5824178188152793,-0.6117835582193506,-0.6403160819867117,-0.6717108648647286,-0.692021693332599,-0.659605397607668,-0.5370035000844606,-0.36697089243792497,-0.20711913837873278,-0.04019939936697477,0.18430554832729135,0.4396551047386906,0.6080865572700218,0.6832040928790487,0.7138005070110733,0.7236846076774538,0.7268184408496929,0.7283108319517618,0.7254704072201643,0.7168807088505182,0.7022403024673504,0.6724186735411699,0.6166954702294691,0.5377400530318593,0.47509062722234857,0.4609348086203963,0.4936467122718556,0.5465098433858071,0.5850858831392883,0.5988894467520527,0.601540184027663,0.6041617842060708,0.6049533123811004,0.6021206384346981,0.5974095457169314,0.589625217780474,0.5712633131122743,0.5394521591241292,0.5027706115203213,0.4794746130328451,0.48873382612929345,0.5503585856821025,0.6328578244854036,0.6983023346999323,0.7476743173412417,0.7897944219410366,0.8249843325660072,0.8449775475583701,0.8431614028765235,0.8147911158272723,0.7472375010373089,0.619156601517116,0.423745383524651,0.2021578491597182,0.021577422003746176,-0.09547098149059134,-0.17154092704660734,-0.23042942379767725,-0.2882707118648349,-0.35082589996535785,-0.3960728587693396,-0.387237953788815,-0.35300848161129444,-0.34478122084923346,-0.38121483166529657,-0.47250534196076865,-0.5828439175723058,-0.5789710996301303,-0.5101639276898284,-0.46946964546639663,-0.45991125112637327,-0.46712437905169835,-0.47478298778572087,-0.4713177843236874,-0.4477051872579826,-0.39586937885269013,-0.3076202025722478,-0.1915566392118178,-0.09088636228917289,-0.02560657672861903,0.01843092079839559,0.05366396627898077,0.09761101414671297,0.1821244434338928,0.3177982090188804,0.36123803196810905,0.3403587034849782,0.3268239058677727,0.31408079041854564,0.2922039740037657,0.26164560594314523,0.23366458162659176,0.2174603208390548,0.2161802974472021,0.23481708552866673,0.26045138238728854,0.25042794734570306,0.21576961756816235,0.18396713312460294,0.15737102620196666,0.1354837329729708,0.1200057659012959,0.1173990510826187,0.13285537246325216,0.1647639955228266,0.2127652804896994,0.2682382629743268,0.3207357284526455,0.3588092450896843,0.3770836169801294,0.3455849852682985,0.20794167571960734,0.0037983253899520645,-0.13491269688958704,-0.1982273383976883,-0.22692154934934622,-0.25223993604782685,-0.31192440265006627,-0.43928385240754286,-0.6082981531150954,-0.7549330006422219,-0.85105614343981,-0.9042884631260327,-0.931065764600838,-0.9432247252558629,-0.9467666519631969,-0.9446380495618296,-0.9388260874802423,-0.9306208294985392,-0.9200139184855232,-0.9060548141583594,-0.8863619724677755,-0.8568403605503412,-0.812421259458634,-0.7512259227654905,-0.6730214936346307,-0.5856391854363501,-0.5019504542129315,-0.42422016194290696,-0.3374873470561294,-0.22711045071846495,-0.09460635980180411,0.03500990831895256,0.14511684628742588,0.24364457559846653,0.34534591585047575,0.4423296640224426,0.5214352504574254,0.5720469867917127,0.5966795759821896,0.6015102408898447,0.5931062019789429,0.58109054148146,0.5706332307161502,0.5593192483668142,0.5443643973817717,0.5360402827248033,0.5623959182894402,0.6831415543801136,0.9366316139237175,0.872595267129324,0.6624701197726173,0.5992666003978138,0.635414697495982,0.7399030605592822,0.8343507064469707,0.7661274790289743,0.6068384200629254,0.4815979937314364,0.41405359971955474,0.4147707025052093,0.5185056649141978,0.6443289403288062,0.4857650257026595,0.3718870757263513,0.3368850313657263,0.3406065523153334,0.3663635395740899,0.4027242652375761,0.44213030825213917,0.48186472894391386,0.5220633080150263,0.5549015778932551,0.5638960812029234,0.5445727163248614,0.5072398627825976,0.4656302115107557,0.4323865702919716,0.4087614875243103,0.39719408492073893,0.3927945037255156,0.38298496550641303,0.36292228701712537,0.33701333028674013,0.3090986621782076,0.2905110268804547,0.31669896633804084,0.4053444022893967,0.5076315335579717,0.5793827295270657,0.5686340612909552,0.4438604349728311,0.17712556923727377,-0.09999549954877093,-0.2510616135928477,-0.3080313676334301,-0.3328306830638299,-0.3479737162096556,-0.36502650200758413,-0.40641588083847074,-0.48852120336615906,-0.6083088254952941,-0.7298121006131468,-0.8159527383178412,-0.864421106158085,-0.8863969416693263,-0.8899381103605528,-0.8794228453343341,-0.8540822602566177,-0.8122015963640024,-0.7562593484954491,-0.7008079057921149,-0.666422941080227,-0.6634529495377934,-0.6695338299908448,-0.6421206087701424,-0.5568662402835003,-0.4522398737025621,-0.3730947817608846,-0.32907362248549077,-0.3059713254388091,-0.2682621760182593,-0.1960292612329909,-0.09782939757493048,-0.0030142933404905007,0.07564616934575558,0.159972190496007,0.2752051219199385,0.420581022454944,0.5625165568453439,0.6755277073538992,0.766616807152749,0.834680052845752,0.8683172926918767,0.8599941064301388,0.8265782555879371,0.79136320048867,0.7657046145528547,0.7480544905322151,0.7280071101256618,0.6845636465622589,0.5960133714646224,0.44806202691836133,0.2307611356033841,-0.03790682019627524,-0.3101854724400623,-0.5244952066249696,-0.6402770197155351,-0.6779381368014583,-0.671201371634248,-0.6423709948226709,-0.6076428603755133,-0.5839145550691643,-0.5792800766413503,-0.5940398069678372,-0.6178064389283824,-0.6361561122446839,-0.634366262337915,-0.583646251928634,-0.44910659265949643,-0.256935367450082,-0.09641476854094405,0.004193108170257612,0.07333276181103172,0.14259620786441787,0.21018874920313127,0.24434521405645,0.20636631183451123,0.10679489444912801,-0.008000642059865466,-0.1168471882907901,-0.20948556508788518,-0.2899229250674857,-0.35096483553102753,-0.3908845195785923,-0.4035769640287815,-0.387284757620498,-0.34146366608003126,-0.27947117291455054,-0.22172390492719768,-0.19389577569364916,-0.20182022151360168,-0.23338973542143102,-0.2753901690438411,-0.3215572400590239,-0.3823692059481311,-0.4870487984333033,-0.49507843398443097,-0.27661089324658217,-0.14991259740491608,-0.09288592615225537,-0.0671956556310995,-0.05849244371736355,-0.061203124577729306,-0.06665320176993597,-0.06364642139317743,-0.052563782147732725,-0.04021545559960168,-0.0387192224911003,-0.06504136000996058,-0.13453802252424357,-0.2593616732358848,-0.41387460729039116,-0.5143494413438121,-0.5043475186623216,-0.4316059717624238,-0.3391933706867489,-0.22454719943410079,-0.03406546758087656,0.32841861114157833,0.769452198970781,0.9502489903262918,0.9795957068977157,0.9809994138495491,0.9766441154345358,0.9675085981234829,0.9510182977714022,0.9237564431095941,0.8831287311738888,0.8300876443089078,0.7722745395963176,0.7222284306662398,0.682881229617261,0.6486452628260116,0.6205773292590724,0.6115035185046639,0.6301342160677873,0.6633657234601952,0.6844843147071271,0.688656595994448,0.6906463933264101,0.7003540917651782,0.7045716024844144,0.6558846034732179,0.4904035075821387,0.2360235118391653,-0.03811705494170363,-0.29813729316387116,-0.5289333598055347,-0.7137659574356805,-0.8397925424115436,-0.9033989380790894,-0.9148688373459941,-0.89870179017745,-0.8732538575294752,-0.8453378716862554,-0.8153609043904716,-0.7766680499954393,-0.7017511475713023,-0.5122896441352809,-0.252214763186199,-0.12583847675480953,-0.09348774575462505,-0.10322059256158338,-0.1365745614073919,-0.19318227271789987,-0.2817163523958593,-0.3445864532953093,-0.2518279243384126,-0.17103348945852934,-0.138849594026884,-0.14299845853322754,-0.18617247904834833,-0.2645553281124015,-0.31410554319198397,-0.25425736756896034,-0.11677959758327172,0.039992313800648854,0.1534758082137159,0.21083540587078203,0.22946138296229351,0.23382146482688929,0.23908486778998397,0.23905042046069608,0.22936313556340557,0.2118892506820439,0.18799103248967053,0.16787043184832678,0.1564454047456607,0.1511523440824964,0.14425615486057516,0.1268035193236504,0.07708653737361108,-0.008390649081002248,-0.10534380914331871,-0.1870677657973179,-0.23521255954311898,-0.22515631923289833,-0.12136364673473152,0.08130345397921937,0.275478633314983,0.3860904030913183,0.45498435729318193,0.5401351605063001,0.6411804948242499,0.7023497860960668,0.7407155501263546,0.7871798658885769,0.7860414261828216,0.6886620839162033,0.5393925126224318,0.39867751672663904,0.2923298821522455,0.22597875642217166,0.19737686946460134,0.19694849945493045,0.1564111670214987,0.08819917491188269,0.03561698672714783,-0.01362840934477843,-0.06994933583868142,-0.1378318989767784,-0.2027636422941295,-0.23069914125511684,-0.203566178831168,-0.12563158827278562,-0.014103878019768012,0.10567845848331843,0.20353672875910525,0.26357295068152264,0.2823054615287711,0.24673936807609614,0.13714441546448505,-0.04045096428731907,-0.2751525241626522,-0.517369421594399,-0.6906322029394513,-0.7882433886398226,-0.8526628815931423,-0.8996203627405113,-0.9191081022641961,-0.9073369318409772,-0.852402910896464,-0.6979096845237035,-0.39989386650064207,-0.17953822698164318,-0.2604188660803165,-0.5229101554409483,-0.729685040269369,-0.8303126524379093,-0.8659477261343732,-0.8633932982308715,-0.8237178515731344,-0.7259146763877452,-0.5342993633968379,-0.2716685293916068,-0.054960539065959414,0.029743571416224756,0.00430212367404152,-0.06639631155807789,-0.12408736329723481,-0.15241011593100542,-0.16411470196942649,-0.16739918971409,-0.15391947560062,-0.09246815626514242,0.08328850777500786,0.2920087833928122,0.4078263533030855,0.4742634881374214,0.5211827356977912,0.5531512717075663,0.5660168926622698,0.547831744971461,0.4776924391179949,0.322248193487886,0.040456159590217325,-0.28812597991798583,-0.2600527379010212,-0.11386041271862236,-0.012752100591871027,0.04909943274249715,0.08797176321193656,0.1172673829618363,0.14008063763052198,0.15660661955655386,0.1688017802907892,0.17908976566458923,0.19042846492823898,0.2056643892502044,0.22895100822948375,0.26551607509520836,0.31745571789155635,0.37857872608585386,0.4270002289771206,0.4327007834541293,0.38787487329699044,0.3219038596057734,0.2581918494326961,0.2137303762988672,0.19406284804807633,0.20746671592096066,0.24994451121237227,0.30881464252725754,0.3664706582489069,0.4119921802665509,0.4456863510583892,0.47685255337894616,0.5064840815315087,0.5275783817714251,0.5294650850272133,0.5120490315570957,0.47800070958993995,0.42256052510535363,0.32149500780104556,0.1246228861222458,-0.22175729448009227,-0.5789617100726645,-0.6896507769846228,-0.6532214746961194,-0.5932311445700366,-0.5496705871592982,-0.5364015861998349,-0.5524129256841767,-0.586227730253405,-0.620921227854269,-0.6452603934969678,-0.6494975623474648,-0.635747632141752,-0.6232418191764515,-0.6188561501133122,-0.6190187481122332,-0.6223535136148968,-0.6261877464758455,-0.6273563379423888,-0.6328045396182843,-0.6531809319271317,-0.6884490044415252,-0.7203274332330677,-0.7321476046378734,-0.7295292407200537,-0.7174556688614836,-0.6971856531702795,-0.666046659792905,-0.6175528953423028,-0.5345481152613317,-0.39122239847904283,-0.16443545992532235,0.1328682406722098,0.40906176224428686,0.5943478542657018,0.7110759452208315,0.7847369278594782,0.8274857381865726,0.8527927704796193,0.8677059996724629,0.8693729276220312,0.849660500523056,0.7920346809837571,0.6827082674682926,0.5356804738812492,0.3910286996014657,0.2795343408120164,0.20523617451023762,0.15905500729828267,0.13234489793880325,0.1280804142228694,0.17041183867251075,0.33099302936338404,0.48110342418791224,0.35174014614050797,0.282247116881825,0.24446348057125264,0.220091593089752,0.20523203549449892,0.19574687424680254,0.18104553342852686,0.14395633366200486,0.05240569897328494,-0.12411268041865586,-0.33774182048417495,-0.47013949538293814,-0.5201205053155344,-0.5358707594523221,-0.548364125479892,-0.5586315478085024,-0.5523686837366131,-0.5170934507294467,-0.44751848692461715,-0.3527528310949349,-0.2526411170737681,-0.1611462006917709,-0.07863070306241832,-0.004077858672581335,0.05879570700735225,0.10657109364463667,0.13282437620594711,0.13502497156019397,0.09410174854787219,-0.00641854502206578,-0.15402442333411265,-0.30416677662283953,-0.38427621590750743,-0.3512662219058284,-0.2643870187763648,-0.1844797235377144,-0.1306550088273558,-0.10125516829574754,-0.08971437899585338,-0.08328405460778418,-0.06864327775553078,-0.047969667758236446,-0.01916779172637406,0.0116592952114941,0.0308333110383413,0.026043401113646256,-0.013351724424281008,-0.08560857846821891,-0.17715631608358012,-0.27809495286404967,-0.3768578320913715,-0.4627055644330304,-0.5225126404637989,-0.544667741436865,-0.5197481944778372,-0.4430044083313359,-0.3217967551356351,-0.17721194782833113,-0.029265679056517505,0.11037033690924204,0.23803229173626816,0.35414070474576725,0.46227679002250627,0.5539622421930498,0.6234817692124212,0.677540322838901,0.7218562967726949,0.7546094716541594,0.7768697711652378,0.7839004546842281,0.7530857572027021,0.6155930986245007,0.2321748409540607,-0.31273938806103463,-0.6396284656973991,-0.7725043604110501,-0.8263799811665752,-0.8409842047477956,-0.8227847832122805,-0.7574139910020404,-0.5998902652226135,-0.3082041343857995,0.026112403371069775,0.2765806659470825,0.4209721110697964,0.49567943735426195,0.5362927616823627,0.5630877460693218,0.5862167809277997,0.6129977151294338,0.6411709578227498,0.6640776768965904,0.6822871432693349,0.6881987581206368,0.6779145961771705,0.6488114895308428,0.5991137603112273,0.5340796940634328,0.4645848212520666,0.40180496306763713,0.35491100377950824,0.3239370394985455,0.300503627594591,0.2714790347125475,0.23196459706310765,0.17388951583781162,0.07974448996697034,-0.0654156981145351,-0.2605202947533358,-0.4820126460224865,-0.6996545261789062,-0.8404874498122303,-0.8970991704658348,-0.9059931124580709,-0.8915850844806659,-0.8522996164963683,-0.7874039348048201,-0.7124161704760075,-0.6586849949842574,-0.6343257544078319,-0.5941935484993143,-0.5115301756897733,-0.4145583239703358,-0.3410775452673231,-0.31737459491368125,-0.3357556909048082,-0.35563498238668506,-0.3242583559411473,-0.2344004835329096,-0.11878019565946428,0.005304254510591485,0.1540998927928815,0.28681058304519913,0.26143320575853685,0.1886447047395876,0.12774411141868927,0.07757386769730786,0.03149621767914143,-0.014001678218291827,-0.0641714742325175,-0.1366323994215402,-0.34856600937553067,-0.2735175462533436,-0.020539567507636712,0.05746346006102864,0.10793482127739507,0.15275328869216145,0.20213104537214302,0.26481429310083876,0.34945024732536556,0.46730554653532724,0.64093765438772,0.8514068373355439,0.7689108549038407,0.38502522480687734,0.07056779635745386,-0.14703170300876856,-0.24759565086355992,-0.2003872283046176,-0.05465574003203346,0.07786738626401599,0.14047473344980382,0.13263685955684645,0.08754033634529537,0.03854592458791845,0.007828278765713008,0.0007649965472546977,0.008458443181009426,0.01731980035127873,0.022027652726117775,0.026104667400921665,0.038572898406146736,0.06500876202718973,0.10086083822921742,0.13568039254373174,0.15771583828988353,0.16302867947401833,0.15734338734682865,0.14880932214118292,0.139304078204236,0.12892628392572456,0.11886204024783337,0.11760916974849575,0.14992478305762003,0.27768255790298924,0.21565981228909178,0.17693611286946528,0.18524699263754824,0.2133979113438014,0.24728540375933653,0.2764426439160532,0.28497908406668343,0.242158183648808,0.08018042299023846,-0.22818082480257584,-0.4820453997675018,-0.6096536227331117,-0.6780539435416663,-0.7226779243179675,-0.7502959244335212,-0.7684436229191085,-0.7779935482611321,-0.7777811661736497,-0.7646027184192554,-0.7345203325118329,-0.684251017172626,-0.6231367789827279,-0.5699039566682266,-0.5247725435881335,-0.46365933749109417,-0.3737023875949759,-0.28270525607318026,-0.22913791231451539,-0.2383050877302777,-0.3036443144382231,-0.3953845720375113,-0.48740973491102424,-0.5696568223098541,-0.6336215241549568,-0.6583771703404641,-0.6333840300923939,-0.5650527373312687,-0.45137848413207743,-0.2649960133847796,0.07323325616264162,0.5285830291594134,0.8031591975204846,0.8811940619062905,0.9020656133085379,0.9087462369314439,0.9063578057376909,0.8986492171596401,0.8840215371596958,0.8621134256547456,0.8324851593262543,0.7928605899240769,0.7372737266360117,0.6648549829043366,0.5770699434966408,0.47732889682859725,0.3757684840017411,0.2933463371294938,0.2447436103917149,0.23465993657740292,0.25972820290416054,0.30730368936068636,0.3581749652829296,0.396404785633526,0.4170715821029094,0.41263058460565594,0.3923086089526087,0.37963852081543203,0.380189978110253,0.38235298833354103,0.37853756366433466,0.3601179655336886,0.31872396573490097,0.2412322639394849,0.08957791732721597,-0.18087480494409486,-0.4599148282662756,-0.5791470488940608,-0.584888051004528,-0.5426479534513062,-0.5073733868781992,-0.5283914118629767,-0.6089516495057814,-0.7078329971533145,-0.7634088655207144,-0.7479797253420486,-0.6561289337402014,-0.4981300648625239,-0.28536499079550226,-0.08172005864427348,0.06647573931205654,0.15162238514495774,0.19267442175994715,0.2039077136096067,0.1941761624587565,0.16713237185964838,0.13688817976188378,0.1069948420975741,0.06866136592087067,0.024318863374646213,-0.01683088778154479,-0.056178685090292516,-0.09775551603962984,-0.15105807734124693,-0.20982688826373927,-0.27343722991740566,-0.3540909332649323,-0.4549022108709114,-0.5235975241147346,-0.5490234635088403,-0.5857323775604654,-0.6693709274487808,-0.7294667473405829,-0.6034530967052841,-0.4573082415744668,-0.3830134273211311,-0.3594175656311789,-0.3782965788156349,-0.4498529647418183,-0.5436749019535115,-0.4017171302670481,-0.2060280761895717,-0.04278516052318656,0.1455985352850025,0.3860020370156725,0.6345805254356305,0.8043828091531238,0.878298877363207,0.8972310400125162,0.8874613421807381,0.8558420144063942,0.8009584041432825,0.7150212346348408,0.575497752102664,0.347843998541056,0.04653700829091634,-0.2188958759136142,-0.3773978868197829,-0.4375302389438274,-0.42754539405556624,-0.3552281640976531,-0.22204890161463955,-0.07368786809050486,0.02493060935959791,0.07512687656260877,0.11644656464634053,0.20325212544155222,0.43834834474989026,0.39706119100469833,0.28904566839970763,0.25751116394184687,0.2591428269548359,0.2843684258604564,0.3382038361154175,0.43930563975322456,0.6055637572320933,0.6170085413809067,0.383969829350312,0.2420019385188509,0.16969033682948706,0.12714543337176998,0.09850823709254095,0.07639774788101265,0.05119643945370654,-0.004424467269286491,-0.1678072820128142,-0.1264968795775448,-0.11757553433671078,-0.12029954270947273,-0.12887365843454984,-0.14667810459083166,-0.18274433221508649,-0.25528392110995274,-0.3823930478054732,-0.5326484771396801,-0.6427633452605012,-0.7118194729145176,-0.7606337009539916,-0.7781518269753935,-0.7427846766213255,-0.6675975695107796,-0.5956733693838716,-0.5566210887928895,-0.5591163387316544,-0.6006674274501865,-0.6528492027722532,-0.6093250062184679,-0.426642236573262,-0.21792886006132706,-0.016618520713311047,0.18151194379010452,0.3056119391194421,0.32883522354164085,0.3091807494397684,0.2625238865977747,0.1986484526102818,0.13767934855424166,0.1027950345000182,0.1253714432947984,0.33497560971711116,0.48735356809652075,0.38838738036551046,0.3788213027401498,0.41139282176147746,0.48643506136975523,0.46740017146604385,0.022268715556863827,-0.05667427462043989,-0.009207463832606838,0.11872098830213858,0.3194551981693669,0.5270840090303984,0.6667741783801928,0.7489422466145829,0.8003965115003142,0.8310457677945806,0.841470907485446,0.8310676838974175,0.8020559926879185,0.7512615833645029,0.6732329021908096,0.5573687140503649,0.3998001032969605,0.22311393650661251,0.06789184796612964,-0.03751231909502027,-0.0914248914485656,-0.13503443152581174,-0.21730775648214473,-0.3505621100504962,-0.49349968370756003,-0.591483212439011,-0.618115259775243,-0.565567630094156,-0.4367978158052331,-0.2603024994316718,-0.08256724248774741,0.05905758591077686,0.15450043391636956,0.20526965607892428,0.2260064126340123,0.23771852598481172,0.2798440625619426,0.37484184464181997,0.4633967837423938,0.5148437456562714,0.5438887881952377,0.546763389605993,0.5296565733209245,0.5080195432763704,0.4941849218226861,0.4846541385190974,0.4709858918067101,0.440505858865529,0.3872437427300766,0.3063253772634597,0.19402386469579297,0.04788010220043481,-0.14173001165975066,-0.3831146927188814,-0.6513043273842065,-0.8468397573313287,-0.9235463185783997,-0.9416147323460755,-0.944003984950281,-0.9422425934607385,-0.9371504152922181,-0.925935840519569,-0.9040827775244831,-0.8670287572154459,-0.8110815942732403,-0.7313019520051981,-0.60724167006149,-0.407397418569671,-0.13957051230227194,0.14204486883018003,0.3774879731743248,0.5263511047045192,0.5875897021588444,0.5686426524550832,0.45002127473429965,0.22693273534517994,-0.049450820549366205,-0.2939331352727424,-0.4668695910909584,-0.5764326868666939,-0.6400464992034263,-0.663432596924178,-0.6391098708562605,-0.54028607122295,-0.3314806868887867,-0.03028636624738467,0.24712712157173541,0.4269297539669185,0.5251886010348644,0.5807918762668761,0.6182581436593191,0.6411433392671141,0.6496267662004603,0.6455578999807432,0.6316696448021091,0.6127258696008789,0.6052049669602245,0.628323189788661,0.683867448801896,0.7549265315406011,0.8126283130295602,0.8382722644469547,0.8321927451767949,0.8075507094824295,0.7704032316267841,0.7148130669712118,0.6284718119437488,0.508667308299237,0.38300583685076606,0.2876024522925262,0.2306573199554783,0.18834733380556973,0.13945900034653716,0.07332112802317992,0.003953421357713852,-0.041734135526403926,-0.03867848883128812,0.011085116339034324,0.044072386905251414,0.0504092752542164,0.04101344138225318,0.021130826074303357,-0.01204498149251199,-0.06329897339542101,-0.14121758443241406,-0.2392576737322327,-0.32824175495431895,-0.3859268412522147,-0.4146603390874752,-0.4341070496757293,-0.4567574644556274,-0.4907006664819944,-0.5329486204067393,-0.5787660108491409,-0.620132583016848,-0.6478528618946521,-0.6569126552856361,-0.6464908644392889,-0.6230350461893498,-0.5995239300724093,-0.5879063360721799,-0.5863224137016668,-0.5810513142168281,-0.5621244184205486,-0.5163010570109225,-0.445864057123409,-0.36874230725861634,-0.29762812760899704,-0.2398184507323166,-0.19858952824773113,-0.163656731245881,-0.13511135950200678,-0.11362659886713901,-0.09724673516352851,-0.07168271456750168,-0.03168128131894777,0.025644781125600275,0.10792084373250997,0.21982700314856524,0.3441948214232239,0.4593033025746902,0.5684312189115732,0.673089827675304,0.7630957340930785,0.8287410409165277,0.865687357612725,0.8724603190711585,0.8334931676356819,0.7090257953762592,0.456663179799432,0.16541288631284454,-0.018638408597896703,-0.08596786416375146,-0.09624083877161962,-0.1033206304184827,-0.13960850446000192,-0.21443820733878097,-0.32587975525441387,-0.45971098700823143,-0.5684547392782872,-0.5919391156091125,-0.5503835407025143,-0.5132406352648232,-0.5040511790612268,-0.5105263370468851,-0.5023682706250948,-0.46583505258758895,-0.4203173055873244,-0.3789136813281814,-0.34608240754535013,-0.3245520208205805,-0.31690441056240054,-0.3384233251660544,-0.3794131632799509,-0.4282679962154346,-0.47316115772558254,-0.5081185876699024,-0.5371215782018975,-0.5858504466983846,-0.6668629594454565,-0.20898870892588156,-0.017877740330851332,0.0392224150081889,0.07038811030161964,0.08273638007579183,0.08186382838963563,0.08109601338970947,0.12167230062526932,0.08984397989404111,0.05779556971414999,0.05298666432042686,0.053252021867814324,0.05418469409625579,0.054258397486654224,0.05123354306875557,0.04275772974820761,0.026541788078447568,0.016313273438144395,0.028654462387228498,0.057903715684538594,0.09543720087299719,0.1367488622380721,0.18820124048011433,0.248354770725114,0.3080049531124422,0.34464889239806185,0.33185701463828443,0.26467169909182375,0.1656475532489746,0.06486548429490399,-0.024163705082025696,-0.09801682646297494,-0.15448178007590466,-0.19371644185027484,-0.2155755883856426,-0.22490882604703966,-0.2413409303155138,-0.31944795790261726,-0.5438532681190336,-0.75424194541043,-0.6479411705982477,-0.5082222696799221,-0.40213833618616446,-0.31811910435050966,-0.24079220007370744,-0.15492003499176382,-0.040256530806408196,0.12272191247485835,0.34597443792486166,0.5581855671221294,0.5967557088470238,0.5100457272669142,0.4095725721888167,0.35533471458792026,0.36628929236286456,0.44455188552996244,0.5618315018271901,0.6666179856711183,0.7333993027278762,0.7706106227691072,0.7919068686619719,0.8054433073127214,0.8089245336389204,0.7931791702834763,0.7326070321891619,0.5553036925033273,0.13414139075494688,-0.3774753797018057,-0.6817254007465742,-0.8317242271198418,-0.9059560933933524,-0.9333559840524893,-0.9244315661673892,-0.8774007207770458,-0.7711916723490105,-0.5243552805805742,-0.06212206783557622,0.3619132380467222,0.5951566104727257,0.7166973226655915,0.7755119138839667,0.7962219321837263,0.7932402627002653,0.7752382982725432,0.7528069842981696,0.7443313102788882,0.7534678862123669,0.7295285214801549,0.6119797784866943,0.46589087295993803,0.3513221707326587,0.26027301837731837,0.1787467531805142,0.10089094156801996,-0.004221446671207527,-0.06531585554321251,-0.03920010354230569,-0.01852237840535473,-0.007113350569802049,-0.0019610947987040786,0.0029630058383663563,0.007475155434234954,0.0042555102873463695,-0.02053310316911855,-0.0791205155239616,-0.146853694521131,-0.1831499633713174,-0.17140761659671472,-0.11301664009669041,-0.002598802205854268,0.1486447127369393,0.3157356380430308,0.4763542995385141,0.6036571045718248,0.6847289309773319,0.7228306560367462,0.7211173574450932,0.6862356104017506,0.6073475630401446,0.48022266332332414,0.31584774113269043,0.14887715898976914,0.004779036696308452,-0.10357134045162264,-0.17669502111807003,-0.21954998354300187,-0.2438716113938718,-0.2504516660438864,-0.22497235571423363,-0.13174543126544896,0.03278499872197476,0.1695442468897526,0.2127579691737437,0.21041963845444295,0.20587176950537028,0.21050729746138486,0.15855753638046868,0.03707508801681473,-0.02601063011657605,-0.055750661802841044,-0.07943765814945741,-0.11531321337900283,-0.16238411391871332,-0.19124237506015107,-0.19690541419022914,-0.19410726558655048,-0.17014687089964572,-0.08362668196219687,0.09194696223436316,0.317470409634991,0.5262968129009884,0.6733869634436461,0.7521956310808806,0.7725161627145833,0.7287864749012963,0.5274820375958114,-0.15824475458147058,-0.7814622694381074,-0.9229610234720024,-0.9439397232347617,-0.9219885027442186,-0.8587992233064916,-0.7305624788411071,-0.5281151608386496,-0.34480452839072107,-0.2930443531399347,-0.3869986049022822,-0.5397040165963695,-0.6711442099642788,-0.7570818816466531,-0.8142066820133039,-0.8497822806165338,-0.8671479527422913,-0.8633451770302144,-0.8351594893599197,-0.776644450973677,-0.6797638226741523,-0.5511073563679831,-0.4106671663574646,-0.2694012196591832,-0.12233684392588262,0.03738831684027731,0.1891504928717039,0.30638057196227064,0.3670212395888639,0.36969737036030303,0.32781088827504146,0.269025487960358,0.21035649623354608,0.16047662926132342,0.12274187715682633,0.09607194509984374,0.08264502739161902,0.08578120065563324,0.11684561975712669,0.17237218371931576,0.2334257930627187,0.27804469941218884,0.2857259446531777,0.2724933717900159,0.26020463756249623,0.2586984039197938,0.27022403030486614,0.29713099337955695,0.346364993182061,0.425329915911504,0.5125507620269294,0.5489352538497803,0.540691356444285,0.5369745298950991,0.5382894747536983,0.5286167697129763,0.5023208286398959,0.4617528088396175,0.3969471896876247,0.3017529062988621,0.18413679396510918,0.07601208014220791,-0.0026582388285861292,-0.043442149371037915,-0.060894831104372084,-0.07053450578010029,-0.08643361440454157,-0.12181879492912832,-0.17518737318436134,-0.21688485001558808,-0.23215115969675817,-0.23527837793672537,-0.2489446179257099,-0.293487369233173,-0.357785051120789,-0.4002183599644814,-0.42004462503487794,-0.4558939639148738,-0.5407617690119748,-0.6780274578804326,-0.6601966850217876,-0.3949501144682746,-0.1841421306519735,-0.04996379502605553,0.039602931273150066,0.10193037395480786,0.14358392259470198,0.1682814382578899,0.1808636576292273,0.18508577366215495,0.181501157636379,0.17201935693790082,0.1569682232812964,0.13672222101136255,0.12236168336759613,0.12815127385029831,0.16016251784746083,0.19678640624546404,0.21090846788192702,0.1930205115235135,0.15737060178340018,0.1173326848022179,0.07674596347589772,0.03627405108406735,-0.00404528097643307,-0.03545864972135442,-0.03535283297518183,0.013133382951112585,0.08332105368232273,0.11924747171244172,0.11439527245096177,0.07603450293194415,0.0015225760510828561,-0.10273939909281475,-0.20598326871297704,-0.2593336778823615,-0.22639377324740098,-0.10153916340472292,0.07747459011082271,0.24974748598937457,0.38809060467179446,0.4825839674601265,0.5244935237196964,0.49067799337774226,0.34171437661150084,0.0686355700909671,-0.26197310949002134,-0.537693162247244,-0.6966266996154554,-0.765700118350948,-0.7763405335788831,-0.7411398098250286,-0.661306724825171,-0.5453714094169864,-0.4097532126572006,-0.27222572107295107,-0.14131134052611324,-0.02123643387825098,0.0900827219916887,0.19425826313563735,0.28009622199326956,0.34037182099648117,0.36924987708982365,0.38223836938697336,0.3832752994629118,0.3767202367981001,0.3627006679452429,0.3339389412440694,0.2749341994659143,0.18329908107219497,0.09072692101097851,0.03624310860005114,0.031433367948445645,0.06055510044435201,0.08460186234622177,0.08686128551537742,0.06212794752907046,0.028164897779341003,0.018977524163277318,0.056774439106933486,0.13020689158160387,0.2127704639245789,0.27321421688871134,0.2955390692313016,0.29456813084018885,0.25560118446383934,0.15172682181765912,-0.04278505685156658,-0.30261534184491967,-0.5281713288603886,-0.6664768113484001,-0.7366174286253965,-0.7646876966255766,-0.7673190645009527,-0.7499028848336096,-0.7107475810237756,-0.6359248032958397,-0.49885030303336947,-0.2971308056052291,-0.09980656952320449,0.04605947932457866,0.13820779687218973,0.19279151137671033,0.2231954866874471,0.23800734443947036,0.2476692889481003,0.2560271694724795,0.26509546038806625,0.27669824425653117,0.2917499686875093,0.31965717006219274,0.3662089708639265,0.4368597981673973,0.530386505341068,0.638627097260086,0.7422254053256268,0.7976317510369452,0.7680734123849617,0.6991191301463744,0.6434043001168586,0.6132707906081252,0.5945914326876288,0.572752728805185,0.535463078144896,0.46688138657279926,0.3766169321997306,0.2953393341698353,0.2468317681077112,0.23774942464255516,0.25254324601267353,0.2676772187523824,0.26947455322643155,0.2680524399385612,0.2774201734115336,0.29989105736299043,0.3213077131068515,0.3353025422317855,0.33994339768146614,0.3431919041712111,0.3495393477309051,0.3554753016554905,0.3495696377397414,0.318902642211262,0.2614433507035564,0.19332056751707652,0.1357344345547227,0.10055326535452695,0.10019876772200911,0.10938631270728788,0.09073379163520538,0.10618418893050574,0.1343972384093965,0.17079399346231577,0.21780626864449332,0.27731822390141003,0.35122462314594927,0.42515924797117305,0.4630775547649499,0.36810830463450384,0.057227506949074934,-0.19285699094767392,-0.3119180486598729,-0.37080274112532524,-0.42655295992214803,-0.5316847435274638,-0.7500348353257974,-0.9275072055431786,-0.5675228533989887,-0.3328603284760788,-0.2462619582258794,-0.24921783446121928,-0.36369944056369896,-0.6141143184398552,-0.5275063141819323,-0.4201290558036268,-0.3982894713815972,-0.40564079982037454,-0.34092848682376475,-0.1970198686785271,-0.10894444381286573,-0.07660052740074431,-0.08171073831010252,-0.1164507879015227,-0.18320763980630214,-0.28979448560482945,-0.43946621991256124,-0.5577875834088492,-0.5114492806214707,-0.4185357819201447,-0.3687587263625725,-0.35640719057811227,-0.3575563043602257,-0.34751644195599185,-0.3131268786291924,-0.25173919838366116,-0.1645084015932231,-0.058516273321715884,0.04184285941993275,0.10917598499132186,0.1377645016640131,0.13898718710382524,0.12497180276328734,0.09954883323468612,0.06663730988132531,0.0265757641554719,-0.016844904029393374,-0.04903605009788024,-0.062275081150469945,-0.04788042678408052,0.004922537094766811,0.0897402740755081,0.18943529522648297,0.28832397870926113,0.3742346368053097,0.4207367594221872,0.40411296712935396,0.3112493511886904,0.18760043919424885,0.09265628927656148,0.043885663707059056,0.03757397383166454,0.07744742725318607,0.16283539228465754,0.263260322953435,0.3569197750719405,0.41525222908103326,0.3892635267854538,0.3339348731350643,0.30022195077742175,0.290646830828797,0.3009393493099473,0.32998772904052626,0.3784449886722051,0.4394494194059623,0.4998367245076569,0.5567491606615268,0.6131435445220872,0.6662703916582877,0.7064324809253457,0.743705911703813,0.7853044429006002,0.8188301872800814,0.827080183063371,0.8096771667234173,0.7817462724382236,0.7528398463597527,0.7246821981324671,0.6745427538274611,0.5089627429626103,-0.01686098173204273,-0.5937362097584914,-0.8025254651049238,-0.8692455475574191,-0.890806239346467,-0.8892415764299169,-0.8655028598605394,-0.8116370983437713,-0.7157680429622348,-0.5675609281384144,-0.37534560879278656,-0.19150298156452836,-0.07175756492011583,-0.043338574052800075,-0.11034556583682992,-0.26094887903444974,-0.44448149295409123,-0.5967249034550102,-0.6971007160150942,-0.7605014884591575,-0.8026532937412139,-0.8328206716253796,-0.8531525411306072,-0.8622105544396825,-0.8565093437876513,-0.8253212672737514,-0.7409232075779781,-0.5365375558851349,-0.15414253550794277,0.2656212502930266,0.5641913642936236,0.7123300007054161,0.7070222102623603,0.5898161477356618,0.4362290398470559,0.32146262364574835,0.27808216581374906,0.30158900122467036,0.39388010935927437,0.5552750718877144,0.7286923202616624,0.8490475256487673,0.9134257641526901,0.9438821496470801,0.956661637039153,0.9604558951769309,0.9577216020465306,0.948614212961473,0.9309463690578824,0.9015331900242939,0.852421289308727,0.7611069086239478,0.5877651018306037,0.33930732474448666,0.08990734098826189,-0.13556799203286932,-0.34250877599884644,-0.5304174861333931,-0.6775274146565339,-0.7722057873965756,-0.8249866225040844,-0.8528500581146242,-0.8660567986250092,-0.8628193372052854,-0.838330289025096,-0.7736407254267105,-0.6092929391845592,-0.2680483404204614,0.10937672910054423,0.36487645361258386,0.5358991790028922,0.665101361398488,0.7653254736748688,0.8399955948520155,0.8894548380145568,0.9153694787544822,0.9229812272932425,0.9137838510783126,0.8786406334016287,0.7881283253346235,0.5868643652895911,0.24034195371714556,-0.150780902148033,-0.4336108462560379,-0.5919736365675814,-0.6709813787884336,-0.7013600484090761,-0.7013574948485711,-0.6850089161962408,-0.6644442092851047,-0.6449632452017463,-0.6255176414433651,-0.6074523627814126,-0.5936218251358846,-0.5937171175523971,-0.6055062340414025,-0.6166378971957354,-0.6036615899996535,-0.5581572582495516,-0.48760527652543256,-0.40281971285434653,-0.31574890532182776,-0.2369838381184485,-0.17661610042465417,-0.13830190888987998,-0.12201552079369074,-0.12031997258579401,-0.11417999239041765,-0.08537099425561664,-0.023643174865742016,0.06787679846661643,0.18445932775844973,0.31241774785917864,0.44704158849171616,0.5898554667266095,0.7383340896511291,0.856327389402581,0.8908030930561955,0.8307695933448723,0.7156874434259705,0.5992377583527644,0.5045383254585121,0.43495691744015175,0.3881286551023002,0.36776330388101597,0.3793284122529354,0.4218985005423727,0.4829144533701227,0.5359704466229764,0.561085965691772,0.5498583725968208,0.49718009378026506,0.39652657829853694,0.23733413461998476,0.03144179262217593,-0.1782798568591172,-0.3425463380671651,-0.4283957589159581,-0.42284825770087364,-0.32993520058970494,-0.1790828968206927,-0.029374922225318394,0.058077279592509405,0.039690505927097615,-0.12267992351351412,-0.32352063528916614,-0.40670751823927304,-0.4348132391064549,-0.4765521844693944,-0.5741546901747995,-0.776567288307409,-0.6339758328278616,-0.2112041935310153,-0.007537535625229017,0.12309532390697958,0.23974963738398417,0.3621615917385727,0.48440762445278884,0.5770410259149985,0.6029285630620913,0.5553427201608166,0.4721337194888651,0.406946752599197,0.3708577996052535,0.33649262727265683,0.26052305533370096,0.06928077403422135,-0.2983871697422468,-0.6347184610665744,-0.7786848841042557,-0.8292803738986911,-0.8415629311503061,-0.8322064803143355,-0.8004933329521263,-0.7376209171842824,-0.6300668598214627,-0.48110000721369167,-0.3210365145196482,-0.19324851098946033,-0.10477274749385557,-0.02663027267179403,0.07417748276024579,0.1683149101448673,0.20548561062887707,0.21232373947726849,0.20884447880572127,0.2016522747685586,0.188188035609229,0.16841380572889422,0.14978384255142235,0.17416914751229695,0.3155110794731878,0.5314571096647471,0.664227052529056,0.6872930373048245,0.6699211329776165,0.6439434591751576,0.6240288186049112,0.6032028336642382,0.5774131248603468,0.5456032477386881,0.5077557052634263,0.46676326123998474,0.42379318109084474,0.3771101458376753,0.3308102473872928,0.29807853624173675,0.2797967132074397,0.2648367911745119,0.23169927732939985,0.17404652924095362,0.11716441819295845,0.0732452875537258,0.03399059153493481,-0.01423478293278718,-0.07997245779379747,-0.14537148208038758,-0.1793221403896313,-0.1660935322263699,-0.09419267788299288,0.03278519290245665,0.163134627013637,0.24515036448585198,0.2771834701128797,0.2906212738307209,0.31108397909620106,0.3370683884806888,0.3539254911346379,0.35660527390481905,0.36729075083865875,0.39777944442067875,0.46379539177245566,0.5675737804926831,0.6437484018213959,0.5947493344360446,0.4576460092286933,0.31877776720970025,0.22148561030030595,0.1742858420817103,0.1511761605392965,0.12200648933772824,0.07279549621798648,0.00802824732582922,-0.06061088037538662,-0.10910334167409405,-0.10382505199860219,-0.06297512373420602,-0.01439194497093423,0.02867903241151601,0.0655569940849174,0.10144433808415232,0.14058595222882128,0.187901312034492,0.2213998520016071,0.20176456826261974,0.1265641905991571,0.030902508651221232,-0.06050011999499274,-0.13731018394334302,-0.1993183119568017,-0.25156772624328483,-0.2968748415153222,-0.3390984624432541,-0.3823592383362289,-0.34453279530118536,-0.05169931849587817,0.09195839944551384,0.13957880960339603,0.14729112252340043,0.12665846587363105,0.07306707983920016,-0.023646159773103425,-0.19178691910731624,-0.46782036863983023,-0.8057320082938703,-0.9632427607507059,-0.9067860420158229,-0.7764814178734414,-0.6374021282176897,-0.5108682670706856,-0.4017142719971802,-0.3170547978612469,-0.2641935890877901,-0.24869311622271248,-0.2750458131573612,-0.3322178860276184,-0.39644468988044507,-0.4436647030392158,-0.4499190404379446,-0.40061996533224997,-0.29329416416006854,-0.15477784286621826,-0.026733851149439783,0.06246661596731809,0.10484765864573486,0.11106573467560593,0.10406031548196541,0.11046135579120524,0.1957777747978093,0.21149393448711953,0.1567590139697914,0.15281109513116775,0.16534991442768915,0.18847466132648996,0.22123724863033886,0.2619344351225309,0.3034856865231616,0.3390782249639469,0.37475951884886477,0.4204204051212504,0.4813517189979605,0.5666506023617137,0.6780517113613873,0.7995173773101694,0.8956679114742541,0.949303405321408,0.9711237492713228,0.9773869798382996,0.9770082118489691,0.9737846738613802,0.9654508444079644,0.9461471382595568,0.9038244292725753,0.8045918411427398,0.5804275140916755,0.24970166190776472,-0.020012547300550344,-0.18668220696431462,-0.30568581619575363,-0.4112718264826304,-0.5028601243379849,-0.5654386033276829,-0.5965134625309291,-0.5951142025377213,-0.5591315071433702,-0.4912771281633893,-0.39723636460407774,-0.28480769868377825,-0.1767760999603996,-0.08330523386623104,-0.007173482173133935,0.053489246859988175,0.09368962492360346,0.08886816385685345,0.0007102077407390989,-0.2110194253020192,-0.5135567433047409,-0.7580596197293801,-0.881840380909763,-0.9334094144254541,-0.952725773118026,-0.9557752069888552,-0.946100748364369,-0.9138327780126302,-0.8334894417497143,-0.6802059955303712,-0.4725470119886659,-0.26601772264276985,-0.0986031308843258,0.016772451720213424,0.08030918387403839,0.11123778770464503,0.1406862402901641,0.2049571300886235,0.32313493454201503,0.4713484619588873,0.6055031060075117,0.6788381832007746,0.6654232955628557,0.5860682434852565,0.4780507575724133,0.3792545132193223,0.32263437771254244,0.3051235355661566,0.3053703257856156,0.30429939208923806,0.297297347204444,0.2872165018367511,0.2770532507831188,0.26729644593400476,0.24557454726380298,0.1903130459038037,0.08064296940455393,-0.08314192756836493,-0.2601655454816757,-0.3968175883334503,-0.4627009600892685,-0.43814559958553434,-0.3155043615842507,-0.12894330574159413,0.0539302267972308,0.188171202255115,0.2535903985588214,0.24082118048854545,0.13140023747759116,-0.06935100926298299,-0.269409914442526,-0.3762972249547038,-0.41031460976512724,-0.3982787524964357,-0.36065189102726736,-0.30411893442027205,-0.23171632943946244,-0.15792681887782842,-0.10363868955064953,-0.07516703659683624,-0.06684155455960529,-0.07360921536531559,-0.0823122543928848,-0.07277042280907073,-0.03646571360294752,0.012636297115856057,0.056552440484354975,0.07046999803129754,0.04311584863406687,-0.017523596547692363,-0.07213697030731077,-0.0857299717329559,-0.07883014223819684,-0.0886502791838252,-0.12688392593201206,-0.20503160854379915,-0.32639450704257156,-0.4768489750836768,-0.6194751914784327,-0.7228123450952485,-0.7766614987984168,-0.7838811399667622,-0.73731838374463,-0.5954959442440679,-0.2797553705783967,0.16490216237626826,0.4661607879742206,0.5691709325964975,0.5668499480850716,0.5270148509314772,0.4980449512577272,0.5057212670919912,0.5665375680137268,0.6941700904898075,0.8474129046257995,0.8358472111425286,0.6911904790151582,0.5980670298509034,0.5791713760362271,0.6025597313514285,0.6357877611018871,0.6589854836088914,0.6527957407670711,0.6058836689944072,0.5255913285510074,0.42880140047057524,0.34321021081792874,0.2884615276961508,0.2700598609027676,0.2721388386117438,0.27255216428037743,0.2607431918423281,0.233418686980823,0.20250016276466595,0.17869604218327456,0.17146916974404772,0.18831324292786333,0.24239593754429198,0.33130228981250565,0.3713636510676607,0.31514300675837564,0.25662124317478496,0.22136093249391664,0.20174039775899957,0.19236427077548476,0.18765338371832613,0.17895487069077698,0.15374350630870084,0.0995669174605026,0.022372592193601448,-0.04894067749008715,-0.11351993873398622,-0.17407594490164827,-0.22898734924842118,-0.2905690918300918,-0.38926760447579944,-0.5692808448145422,-0.6596384026339748,-0.49561980596582544,-0.40789763305932547,-0.3917526395806508,-0.40185825995461505,-0.40441015827643123,-0.3832822306683495,-0.3382137404207905,-0.2818208759768341,-0.23685055112496117,-0.21243445782897596,-0.21007159112048485,-0.22298384706156463,-0.21209439874294428,-0.1933704516350923,-0.20713700117433692,-0.24494938011672931,-0.28061324758289613,-0.24739664312443393,-0.09008991616115009,0.11021978895472234,0.2536866893144566,0.33101147554721205,0.3525786031952012,0.30993503092368047,0.1365932880894506,-0.19383842121703862,-0.39203303945415735,-0.4712916590339016,-0.5122340330061842,-0.5349085861467884,-0.5412677289533396,-0.5302172561837494,-0.5067746933255167,-0.481760674162474,-0.4677719674548429,-0.4737438879959215,-0.49588076860515784,-0.5165449161381416,-0.5333998985686546,-0.5427540291171314,-0.5265692154545776,-0.44657198065179476,-0.30000381027866646,-0.13025623259643032,0.03788959193055067,0.2081775637804388,0.37945405772854374,0.5371782117808803,0.6671422011471314,0.7589879126213281,0.8211568125606563,0.8610691294753594,0.8812698816341332,0.8852264056566158,0.8739948345608062,0.8466936553809472,0.7986667107480306,0.7326892819350701,0.6884508484137015,0.7191459652628546,0.7704720031241917,0.6058749121315469,0.4360542739599216,0.35685825811928057,0.3322876622316493,0.3412027361080107,0.3785423856404706,0.4500091712249858,0.5624609802820395,0.7001663957228776,0.7890138511054163,0.7656917509516133,0.38392817647972777,-0.5233099830292092,-0.81961055029671,-0.9062670537120381,-0.9467138010519592,-0.9668066534543063,-0.9746873773065267,-0.977162818921347,-0.9773317276088647,-0.9753286148846687,-0.9684008037924654,-0.9526726929038017,-0.9217137954584204,-0.8694999756909099,-0.8011040330628907,-0.733305326765909,-0.6791236903407265,-0.6351663684861063,-0.5908765487410044,-0.5429512351285447,-0.49368025532579335,-0.43064365595279724,-0.331828000013116,-0.18519173228969502,0.001744947056891775,0.19958928392317354,0.3674131897453443,0.48388286384753076,0.5593403459658106,0.6269513148548742,0.7103378105696557,0.7730374953146012,0.7886849886478479,0.7730498249297432,0.7366692267499791,0.6979694713333717,0.6970019641063824,0.7819634417477842,0.94939090005853,0.9552664593556353,0.7839221467227566,0.6631873750088288,0.610233928017685,0.6180808038644365,0.6950741498271319,0.8245732450936613,0.9171560492094992,0.8632349909455252,0.6466836436402013,0.34235987362144554,0.03831538589230725,-0.21851751779057033,-0.4117547698416823,-0.5441789372150156,-0.6164327582371091,-0.6352221842820646,-0.6315167391076002,-0.6361935848970053,-0.6578565965434406,-0.6934572525030129,-0.7341336255747429,-0.757684802385486,-0.7354936618504906,-0.646178822937001,-0.503285139287834,-0.3305083772649742,-0.12812811777114036,0.10099702234828097,0.2909871902929999,0.4031499940580068,0.4695101211617299,0.514870089185604,0.5343636813497025,0.5313807445044736,0.5166039319805592,0.5041818175039022,0.4986880947130536,0.47277351619730373,0.46610525892190235,0.4893416457309453,0.47745327685447153,0.4369005303051388,0.40779291660747496,0.39304035408866417,0.3785619336810187,0.3553873560948282,0.3220172317244999,0.2843782765073446,0.24061725128342182,0.20193380580205159,0.17473694228050485,0.13501152111843945,0.043759915753084265,-0.10162248956502544,-0.22943978124801834,-0.3062103741536026,-0.33097548730636817,-0.2893563106450105,-0.18589493690032677,-0.07818424108869983,-0.017606567635985906,-0.026613723750764987,-0.1057073960649351,-0.2157516795574504,-0.2921974199974402,-0.32137287665820596,-0.3178043753150831,-0.28726920354671387,-0.2316539651047751,-0.15669050846776145,-0.07948806852160657,-0.026176210268894533,-0.005715491081332932,0.00022571877884536426,0.01765011791891962,0.05760582363491673,0.10869324297275423,0.152466596595943,0.1853297657823859,0.22105449160679314,0.30074377889765863,0.50433462467822,0.6976169954354379,0.5795135201666508,0.5140060349470762,0.5022548585855836,0.5035494560253024,0.4665178625130753,0.33319941837378275,0.1525040297390949,0.012025676999526995,-0.08491137913825987,-0.16803452745553898,-0.23076770157308274,-0.24409636565025372,-0.2072189735118591,-0.1594396922854811,-0.13991466909515549,-0.1664664549660018,-0.2301110337288863,-0.30870670837663006,-0.3896315148269455,-0.45780517684332755,-0.5005839521194968,-0.4974239853264034,-0.42949817981894917,-0.28562955713019733,-0.07893609526543992,0.14009504852610605,0.3185713115842241,0.4435502790038625,0.5281922322049707,0.5945981364165401,0.657820103211838,0.721629323454969,0.7730912416826551,0.7958549893676935,0.7892208189210982,0.7664679179928011,0.7303740318978077,0.6584626513877969,0.3314431989953043,-0.42368064660786725,-0.6987629455981985,-0.7595532509926191,-0.741424255339565,-0.6706160509113533,-0.5801888940603573,-0.5205849666820417,-0.5184296375587806,-0.479931301585701,-0.33336130747885906,-0.2689746770466359,-0.2754209310196819,-0.31882807369624283,-0.3865729403379903,-0.4801036189801781,-0.5952657994494024,-0.6890094799321609,-0.6945180409733374,-0.589965163519978,-0.403356312743928,-0.19577477951488143,-0.04283003467306317,0.011307224492307576,-0.0395517948049118,-0.1330162883800048,-0.20028190020339026,-0.22988717289624974,-0.22518330208246914,-0.18518094062950788,-0.1094275132766187,0.00766995943097993,0.17460927698784784,0.37243720599464375,0.5456806045945731,0.6543553600907153,0.7179492433828896,0.7563998898976437,0.7736112904944878,0.7693493714790184,0.7415564776659611,0.6932792094002388,0.6341360187709356,0.5714164920802861,0.5024333402661689,0.4166972937051566,0.32016151031038814,0.24023722474200243,0.20194356164664581,0.23221165925058465,0.42732042306935436,0.4602649281653519,0.28843572499678344,0.22551614228836392,0.19967276355079883,0.19774580597916214,0.22453751467875055,0.2840271523085333,0.3617923421284233,0.43156725904264437,0.474671844235172,0.4713488083166838,0.39623310878418705,0.27068984529158124,0.14876863642930765,0.05004827825428223,-0.0271015397480003,-0.08384940210162196,-0.12351946173979637,-0.14722638478078034,-0.1552125818151851,-0.14712326269431655,-0.1313075337802211,-0.11632303539583551,-0.12161915396147117,-0.14578123555057013,-0.15254549068645917,-0.06927791841501188,0.06182501032294993,0.1282379846533878,0.12032122981869207,0.055667701760198446,-0.01520171051034461,-0.05594997867266077,-0.05610415928818004,-0.034770977497334786,-0.03130292555595534,-0.07277187304715418,-0.14231360691991318,-0.20383436604728178,-0.24244956774466273,-0.26636954051450973,-0.28850115987943403,-0.3191801297833217,-0.3602593543396874,-0.40870178986503525,-0.4515178507236449,-0.4833459789288734,-0.5008697222139771,-0.5034512462106563,-0.5014723577699695,-0.4984526934795157,-0.48462273105842996,-0.4459779395400062,-0.35876332650465137,-0.19623422690437073,-0.009451755112208492,0.11199346207079691,0.18143371529094574,0.24902186711718347,0.3453052185068405,0.468738259402661,0.6004782826624873,0.718631432785376,0.8101038899541678,0.8692630696853342,0.8966287088628226,0.8953570853911904,0.8509944007239998,0.7357846570042945,0.5413659861157581,0.31704127743722843,0.10828755443028033,-0.0884178760742553,-0.3001368319916874,-0.5166077454903409,-0.5981971408080697,-0.4544767007882518,-0.2873492413487464,-0.1708122507415098,-0.09686923149990066,-0.07939007670140408,-0.1455788204005058,-0.28177939919603645,-0.4269126833054317,-0.5481900339193068,-0.6328305563501246,-0.6770106562606996,-0.6789973593743063,-0.6410245991339355,-0.5650612893876095,-0.4667571307238219,-0.37426842262389776,-0.3222185248130529,-0.32489869233412016,-0.3821683442111846,-0.4833229671802374,-0.6071059371156926,-0.7207722709616298,-0.8076373672177778,-0.8672602118993405,-0.8972733422104248,-0.887565991327905,-0.790500852195677,-0.44669490634354314,0.09179531191095366,0.3811648667604453,0.47974466517774345,0.504089934864755,0.5020104822941348,0.49475085613825404,0.4891952985385611,0.4806899764439194,0.46037239493236665,0.4152904106303415,0.33346190404113873,0.20989305310353706,0.0569617348568435,-0.09376692767686715,-0.20886479589158866,-0.26863242433971063,-0.27331600894079394,-0.24379550951193707,-0.20116675577431056,-0.15480704935493975,-0.11838741536707022,-0.0916111318268112,-0.07639448928010936,-0.0730611051337303,-0.07424580353738777,-0.07135305247327671,-0.0657661809149679,-0.060685914202196246,-0.039690684779863095,0.006357817446136005,0.06281179432965775,0.11074145871894764,0.14876094166741843,0.18849880416250905,0.23928860870443844,0.31225747271221554,0.3966950109520262,0.47684146910466635,0.5397749320126141,0.5734080943725501,0.5763518458144594,0.5547586963028861,0.5058862204366061,0.4349661313736744,0.3588997645861864,0.309576073519327,0.31285378764260685,0.37664877757646525,0.4722631413272952,0.5555442807712981,0.5936775901001541,0.5841308763131801,0.5358665109902455,0.4531819833942399,0.3569618170327049,0.2708295233498151,0.20791806777044777,0.17159851789665093,0.15896771709901522,0.17596858529480972,0.23520207639837182,0.33074677734735747,0.42855395896406184,0.49500350274951255,0.5114175486573121,0.49080746272305653,0.4485895447790609,0.39006161515517307,0.32217417724359426,0.26041475483651355,0.2172526108797305,0.19316485541313147,0.17607076833153218,0.15580154218360184,0.119099425222134,0.04304397431004131,-0.08339441608685327,-0.19930651324837179,-0.21664805536916898,-0.17057722167918957,-0.11610329061942683,-0.076034765804954,-0.06012369226555142,-0.06578953465328047,-0.09423793180545835,-0.1509523782511564,-0.26146740981357613,-0.5285809358463406,-0.8253264199502388,-0.4369285965924634,-0.2423464494518721,-0.1398002753403031,-0.07511690148091005,-0.03329622907782986,-0.009302493395834374,0.000615762909017663,-0.001106275935235001,-0.016092505738031594,-0.053193526043817614,-0.1317998304193812,-0.26439288295040575,-0.40253907141341316,-0.47527764227378066,-0.4808404155742079,-0.4417360461506211,-0.3846651955747681,-0.3309947033738775,-0.2896365371128106,-0.25907254385249645,-0.23090519526848113,-0.1982882995022421,-0.1666564476061442,-0.13883737541630564,-0.11628221520472555,-0.10529989364763331,-0.10038074381710207,-0.09416953277010158,-0.07265922611723181,-0.01648106514738524,0.10918296599815218,0.2749753031281074,0.34246856565788275,0.2968594163966212,0.18891204251080052,0.09534912941394548,0.04112031575690385,0.031018545420539275,0.06211017090450985,0.12354924403457772,0.20459933623523932,0.289317757946632,0.3671394136158621,0.4391046130108235,0.5141965803346915,0.5921661833693623,0.6631754306146775,0.7155365813918998,0.7429603519227802,0.7488199789829388,0.7428588102437309,0.7365717533191385,0.7334067026831337,0.7292738491031587,0.7165272533343572,0.6801589139066366,0.5997443773900684,0.43744678988793706,0.15971880268171482,-0.18705777336181678,-0.4736195409230702,-0.6511222381873871,-0.7518279073046253,-0.8101442341575827,-0.8454054572009377,-0.8688875619279622,-0.8839260911254072,-0.8649427038232994,-0.7534442485435111,-0.5637769392765322,-0.40656806608698537,-0.32533529968826747,-0.2956918006983313,-0.2831503050314161,-0.27439838461776184,-0.27397874200922734,-0.2840703021928419,-0.2996292113689926,-0.3184550594363616,-0.3454161947979615,-0.38203070731008293,-0.4222623463562473,-0.45483072990253726,-0.46189464905313793,-0.4071961635038435,-0.2533342724529008,-0.06070172404066447,0.07407654559894679,0.1346746786394549,0.14963928175591715,0.15867035770190077,0.20028207018400937,0.2658024989890547,0.25900878084133033,0.23800861428249748,0.23802835109557255,0.2528410078861211,0.27989808594709736,0.31511836491710227,0.354657821067892,0.38615906225296714,0.35830108579763625,0.27313328220281075,0.21020416967273814,0.19468968095204406,0.22531629270979348,0.3060557853561832,0.42431680592278065,0.546496573368889,0.6420047350468345,0.7091455856961504,0.7517108802505696,0.7752244015125042,0.7745371615343561,0.713656590862699,0.5464208388001226,0.32484768884148374,0.1587036217567109,0.0924960488582886,0.13089309306826538,0.26841756344052903,0.4530529944622635,0.5944590832452202,0.6578739475959859,0.6613833770593818,0.6252391773318123,0.5633105187038961,0.4821417583943768,0.399529158099193,0.33793357800430507,0.3242277763416604,0.3871724648186244,0.4396159305099122,0.3838603935681063,0.34055207819794775,0.325444542777111,0.32272172704394625,0.32215683544639107,0.3006930647375384,0.22915112755723321,0.08014943598734613,-0.10728824218770797,-0.22663936681867175,-0.25945802913054744,-0.24787414398245947,-0.24209142008583776,-0.2701143921966744,-0.3060624751296266,-0.17855111372820257,-0.019152250671787975,0.04767156858495614,0.07375731373995015,0.07917808750949633,0.06423451237424742,0.020009166140012188,-0.06418095176006959,-0.17206063869463736,-0.2749149157374913,-0.37601196937679576,-0.4953717948768064,-0.6234089555097522,-0.7272344186248523,-0.7907424194327204,-0.8283055426025452,-0.8537265857486326,-0.8720766807632794,-0.8822703317401164,-0.8818803203866694,-0.8712927748341118,-0.8526520457513953,-0.8284768909808714,-0.802767236253626,-0.7784575069456151,-0.7516262067450046,-0.7094623121531052,-0.628039657469522,-0.4793742240592183,-0.27049612813544477,-0.05259211987443893,0.13130325182910357,0.2756668913392987,0.4067641883934262,0.5628585763033829,0.7272615332180803,0.8380259346271317,0.8836338537743216,0.8909693698411683,0.8825001441628915,0.8670498285468677,0.8447976068602965,0.8228504912916949,0.8116483611118311,0.8146576051292462,0.8258748578120993,0.8347530350840792,0.834099050932967,0.8162251550849189,0.7730343149951717,0.6893651589422541,0.5258421021462977,0.19950706719610642,-0.3163121369328274,-0.7157646695534513,-0.8708888141009615,-0.9172917966393281,-0.9267487220259119,-0.925463748113282,-0.92359186974729,-0.9216848395572037,-0.9162112012743886,-0.9018194970895097,-0.8725649599820614,-0.8279389712526194,-0.7837564420364239,-0.7621979332133786,-0.7663805645023838,-0.7662309588191863,-0.684807062122055,-0.45254113875886204,-0.1563855439674588,0.08837042821475867,0.275858167056082,0.44042518974675937,0.5859089712040975,0.6836241396407376,0.7181686101324721,0.7169451124885791,0.7116709055463588,0.7089602358294841,0.6955539291763168,0.6687691289959385,0.6312379796520053,0.581343177915474,0.5263279625465942,0.4859801183271822,0.451821682908991,0.42768871460426244,0.3989874217603749,0.3691592527433828,0.3491076427255425,0.3393480314051043,0.33780654363243995,0.3445901803757235,0.35800863792692544,0.37174921950165507,0.379069944370034,0.3733290571227796,0.3478100009468378,0.2885723237629054,0.15657567113668447,-0.05682647666995158,-0.28089401302312056,-0.42853073619322235,-0.47967795014304393,-0.44829431185210894,-0.35147972284786516,-0.2067567177995516,-0.04306230721701277,0.10534671556021427,0.22455175277311196,0.3085771053237274,0.3595432083126087,0.39674663757222867,0.45483152748830924,0.5290945686374234,0.5863636992004626,0.5949902268869139,0.5511555448107023,0.47580153049521257,0.3961999573229104,0.3335633223727125,0.29453203330611594,0.2819264237681965,0.28741705207581053,0.299059572318098,0.3110843308849685,0.3132532696183657,0.2979633572643083,0.26256867481925994,0.22645251839391944,0.219375812773499,0.27683314285191873,0.46985122316033273,0.616248083344467,0.4918932896782343,0.43758073839676703,0.4431940563206338,0.48120645264877826,0.5389230951326953,0.5858826778738894,0.5660564191180605,0.45777095384235766,0.3095216508597096,0.17349167254079295,0.07602691736404776,0.03168035829761136,0.04450060432814067,0.09369946019531648,0.12943975624577153,0.1074784979208003,0.020578534765273285,-0.09983344299158864,-0.23525326786402187,-0.37399569614476075,-0.5071219446788663,-0.625113023398649,-0.6411860179843163,-0.41832899122834466,-0.19753896348687341,-0.08362639364668684,-0.039984305123623116,-0.04964083991732287,-0.11959312170108684,-0.24488252679559078,-0.33525013199987563,-0.3351077624233069,-0.2682111439072434,-0.19154247458087278,-0.1586577398140098,-0.17032657196432005,-0.200752960891712,-0.22113733610496322,-0.20795700898894515,-0.1546592322645377,-0.07690117549494098,0.004900616029556616,0.07050139385466338,0.11179211754600182,0.14067087208708468,0.17561970838980584,0.218569669984015,0.24764769294839428,0.2450092869851312,0.21950242598737463,0.18860800385921406,0.16855694917170683,0.15806206175560683,0.14596153907046555,0.1190737840432556,0.054386186635220914,-0.07607123677970373,-0.27441121480253583,-0.4920343530738922,-0.6624475718411886,-0.7692840602293742,-0.8311033990830783,-0.8616828951468006,-0.8597179652386735,-0.8104364926737976,-0.7104547475539246,-0.582770066308346,-0.4566897378842358,-0.34309234924225507,-0.2511383390169019,-0.18727208092944,-0.15059316953196109,-0.13795030944018394,-0.15619038956668538,-0.20092143408998453,0.034098111452635464,0.09601073607012692,0.13599629952709977,0.17464492778533708,0.21947990911943974,0.2792004108617518,0.3669708446966341,0.4925303809272,0.5975513727985069,0.5517404412094881,0.4717871836803887,0.48176007376815194,0.5624545292622989,0.5855373971261383,0.5491730221426474,0.5210775121400877,0.5078350964960009,0.5016526110567843,0.4919968008379777,0.4748038846565016,0.45820956506885385,0.44868145938820003,0.45405264454352556,0.48188441906737167,0.5286629267970926,0.5822230175683348,0.6302867927547924,0.6682389506446738,0.6761427478574135,0.626464933214493,0.5353948835187479,0.4384835045102149,0.3539757896786316,0.291752447789876,0.2468618196529696,0.2102300610241898,0.17038867720609419,0.12498649318801952,0.08012391189115775,0.044340028282828146,0.02765518742271427,0.028940843625886906,0.031657790284054646,0.011381873521528066,-0.033927989833596524,-0.073898252806891,-0.08441115330839132,-0.072247551191173,-0.046930187214672285,-0.029802835273859057,-0.031649316325363545,-0.05085267559187563,-0.07517552837411674,-0.09000294957963843,-0.0921765711438495,-0.08622154768651497,-0.08179330586312523,-0.08311490043539214,-0.094789325168926,-0.11613614456292391,-0.1474771254289969,-0.18394191608072505,-0.21566458406637673,-0.22352298932792036,-0.19856811349497952,-0.1502566553725098,-0.080868788989829,0.012202134612867026,0.1260393345481807,0.2395268889621022,0.32988660253799684,0.4013972712680177,0.4532241558802514,0.44677690502386763,0.3520139107490904,0.20806966840196803,0.09277837312888322,0.03116876659182261,0.016106917117425498,0.035379601152726835,0.09171414171008782,0.20276143809488198,0.34865637935363636,0.43609041654311814,0.42415595330038736,0.34739345620587136,0.23007194547892698,0.10999347514787404,0.03110519750574629,-0.0031116312151225132,-0.023395404561866312,-0.04955894703800087,-0.07171523221814126,-0.07297785659610133,-0.04682672002583317,-0.002021115270137786,0.023762059148543742,-0.031655671401041856,-0.20749923212401028,-0.44962080282810163,-0.6478097477931948,-0.7628151867555455,-0.8076180604739985,-0.801477705400751,-0.7656801176314856,-0.7142445245743775,-0.6424807571561194,-0.5412614118982434,-0.4202114713453057,-0.3175668633996004,-0.26267717263500784,-0.22453726229808596,-0.10338111077595842,0.1399406911901489,0.3671817028824295,0.5051396899369507,0.5716542252708168,0.5900567920001977,0.576766948568279,0.5156395508141448,0.37673701810565874,0.16748871830038178,-0.02267636798734943,-0.14765223868476024,-0.22622237170920598,-0.2741165266587177,-0.2923024085532765,-0.28532283595923513,-0.26182734080422904,-0.22377217063041674,-0.18151329593245955
