-0.03920742694053784,-0.04897791342027582,-0.05492272146128434,-0.05676992151660019,-0.05494147302855471,-0.050046851112183016,-0.0433706625188093,-0.03630065629834742,-0.030093303172613467,-0.02545185345019954,-0.022310667967056764,-0.020397828747692033,-0.019516424085693734,-0.01926325189173596,-0.01923512164796287,-0.01926325189173596,-0.018850676911642376,-0.017387915806911982,-0.014378008651866968,-0.009736558929453042,-0.004419985092205562,6.206288550486272e-05,0.002546880565387193,0.0026969069893143078,0.0016279669831131003,0.000699676460056811,0.0006715462162837248,0.0013654201626671445,0.002584387171368971,0.004347201123953599,0.007057057745438396,0.010788972562080938,0.014989722846363235,0.01863724693168652,0.0205125830165105,0.0197812024641453,0.016593135169959063,0.01172664349736045,0.006231913570986271,0.0013654201626671445,-0.0022445978952478646,-0.004410608151423366,-0.005376405859034938,-0.006051525923853964,-0.007214233023583122,-0.008695745695583897,-0.0093896173276733,-0.00795499225245103,-0.003660474874640782,0.003118857174469575,0.011154665731131058,0.018412210767236873,0.023044287598883127,0.024422657972294266,0.022800494081428063,0.01865600428469194,0.012298615477854798,0.004544111094644689,-0.003191641721295043,-0.009652168198133785,-0.014678062656868206,-0.018081793224736423,-0.019206991404189785,-0.017322282428598137,-0.012512051243545697,-0.0052076255535434286,0.003128234115251772,0.01063894845244784,0.015842997264588446,0.018337192926685283,0.018374701846961078,0.01652749600591018,0.01301124446294962,0.007975971327712487,0.001693603254294461,-0.005582692770508225,-0.012821478139314602,-0.018147426603050264,-0.019816478090694974,-0.01753794570228012,-0.012399530268453352,-0.005995265436307792,0.00016520628338415603,0.005350505437546949,0.009879437656309555,0.01423959072672766,0.018440341011009956,0.021665911439736948,0.022837997215968818,0.021122069703015688,0.01652749600591018,0.010301385527170805,0.004562864397635579,0.0013654201626671445,0.0011497568889851646,0.003175117662015747,0.0060068716208015824,0.008744860800353483,0.011107778134352554,0.013264416656907396,0.015008480199368655,0.015674221587684972,0.014652159921086202,0.011520353114446137,0.006288174058532444,-0.000669317551145635,-0.008630106531535016,-0.01592516048791662,-0.0208385339715587,-0.022591970404787626,-0.021401133061285382,-0.017772360543232474,-0.012755844761000763,-0.008142525282359925,-0.005385782221243631,-0.005076352432607204,-0.006773527799716453,-0.009933464850129605,-0.0137872793183672,-0.01753794570228012,-0.020510349722784378,-0.021691808389783913,-0.020744764563736733,-0.01806304165746605,-0.014837465443004013,-0.012399530268453352,-0.011358722820319248,-0.011143059546637267,-0.01054295153663479,-0.008742633292362401,-0.005817111082901606,-0.001785141104110818,0.0033532743297159484,0.008791742611396947,0.012673687323407628,0.013423819443043203,0.010817102805854024,0.005472401617700979,-0.0018320246508747938,-0.009952222203135023,-0.016853446960958383,-0.020238425961556224,-0.018766286180323118,-0.01278397500477385,-0.004129308606560024,0.005191101494264133,0.013930158045223712,0.02156276914114731,0.027807636972892107,0.03190523917284973,0.03311483386935739,0.031089473674900312,0.025932300888068128,0.018337192926685283,0.010020088875174986,0.0034939243914343713,0.0010559897954572136,0.0032313775709884155,0.00838854630780607,0.014145821318905693,0.018806028394325033,0.021965965444738188,0.023860058882567585,0.02476959378833897,0.024647694136743916,0.023503744390020176,0.021900332066424347,0.02041881939442357,0.0191998460214132,0.017962126866867493,0.01647123551836401,0.014764680896178549,0.013208156169361222,0.01200794014935627,0.01034827312394931,0.0073852419942127216,0.0033814039949155304,-0.0006974472163452169,-0.0037354886651778433,-0.005367028918252741,-0.005835862650171984,-0.005798353729896189,-0.0061171650879028455,-0.007186102779810037,-0.008789515103405865,-0.010289779342677014,-0.010796117944857525,-0.009914713282859228,-0.007983122496224116,-0.005985886759805082,-0.005198248612761232,-0.0062296802772601485,-0.00902392994435822,-0.012933999114406947,-0.01643149909009713,-0.017359785563138892,-0.014453020706683516,-0.008536342909448089,-0.0021602077425021096,0.0026500240211238366,0.005594298376428512,0.007647787078938164,0.00955125340753523,0.011267186706223403,0.012392384885676766,0.0124955271842664,0.011651625656808858,0.01013260985026733,0.007666544431943582,0.0031094808122608827,-0.004860688580351718,-0.016140823761598606,-0.02812420346570256,-0.0365163195720294,-0.0378290565671267,-0.03175297019802042,-0.02062287069787672,-0.008292549391993023,0.0016748499513035715,0.007769686730533218,0.010526427477355495,0.011389080572083416,0.01172664349736045,0.011736016388128117,0.01035764601471698,0.006569470710528264,0.0006527929132928355,-0.006182798466216685,-0.012587063298362245,-0.0170222284235969,-0.018269326254645318,-0.015915781811413916,-0.010533572860132082,-0.003660474874640782,0.003090727509269993,0.00824789508894064,0.010873363293400197,0.011126535487357972,0.009710656193671039,0.007525893213078151,0.005284868009218581,0.0032970138421697763,0.0016842268920857684,0.0002777262749015436,-0.0010162539457638407,-0.0021695846832843067,-0.0030791219033497064,-0.003810501877141401,-0.004344971880242005,-0.004448115335978648,-0.003969904663277209,-0.003210395024285932,-0.0027978217799128615,-0.0028447047481033327,-0.0031166279307579814,-0.0036042149656681137,-0.0043262185772511156,-0.005292015706289183,-0.006070277491124341,-0.00629531944130903,-0.005385782221243631,-0.003163511477521957,-2.2327145740455726e-05,0.0029313241445606815,0.004215928003017373,0.002912570841569792,-0.000669317551145635,-0.00462627200367885,-0.006839166963765335,-0.006145295331675932,-0.0027603145953575786,0.002218696895186372,0.006963294123351471,0.009813798492260674,0.010432658069533527,0.009738786437444124,0.009148057103944356,0.00977629535771992,0.012654929970402209,0.017680830214871674,0.023138051220970055,0.026616799629389863,0.02641050924647555,0.022275398126242137,0.01524289504032101,0.0073946206707154296,0.0003433630089417077,-0.0050669754918250065,-0.008686367019081187,-0.010777366377587147,-0.011874440099002466,-0.012530802810816075,-0.013074650333272379,-0.013534107124409424,-0.01406857597036302,-0.01471556579140896,-0.01537193428895761,-0.01610331484132281,-0.01703160710009961,-0.01836308987673224,-0.02019154415051276,-0.022038744205828614,-0.022666982459604176,-0.021297990762695746,-0.018353716985964576,-0.01539069164196303,-0.014312369487818085,-0.016065805921047012,-0.020135283662966588,-0.024645460843017792,-0.027674125351068224,-0.028189836844016398,-0.025986322296153132,-0.021701187066286622,-0.015990793866230462,-0.00903330862086093,-0.0009412407338002832,0.007713426242987045,0.016096169458546222,0.023213063275786604,0.02815457278893681,0.03039559625707587,0.029739233545262263,0.026335497191659,0.02093453088737175,0.014905332115043976,0.00984192873603376,0.0076571657554408736,0.009157435780447067,0.013311298467950858,0.017793351189964016,0.02054071326028359,0.020465701205467035,0.017962126866867493,0.014680290164859288,0.01243926669672023,0.012054821960399732,0.013264416656907396,0.015317907095137561,0.0179715055433702,0.02130960273292458,0.02482585427588514,0.027348174396020018,0.02787327035120595,0.026176094405523195,0.022566073454740664,0.017718333349412425,0.01194230677104243,0.006325677193073197,0.0023593469569047946,0.001196639857175636,0.0028000504450509515,0.005491154920691868,0.006944536770346051,0.005669311588392068,0.0024812437156323274,-0.00039739396348953393,-0.0006880708541365244,0.0025281272623963033,0.007957219760442112,0.012851841676813813,0.013892654910682959,0.008913636477256957,-0.001569477830428838,-0.014049824403092643,-0.024345406838016552,-0.0298495096551584,-0.03004642136157,-0.02587380132106079,-0.01970395711560263,-0.013759149074594114,-0.009286475029083665,-0.00715797253603695,-0.0072329845908535,-0.008733254615859692,-0.010449182128812823,-0.0111993142484484,-0.010477312372585909,-0.008555094476718466,-0.005910874704988533,-0.002882211354085112,2.4556204308528405e-05,0.0019373967717495272,0.0022093205329776796,0.0006340396103019461,-0.0021602077425021096,-0.005132611763006368,-0.006904800342079174,-0.006736024665175699,-0.004710662156424604,-0.0019914280155841056,-0.00012547049154813363,-0.00018173051623550262,-0.002047687924556774,-0.005029468885843228,-0.007833092600855976,-0.009295853705586374,-0.00924897189454291,-0.0081612768496303,-0.006248437630265567,-0.0031447581745310672,0.001449810315412899,0.007375863317710012,0.014295851214273831,0.021572147817650024,0.028360857386116076,0.033705563202857156,0.03645292527317673,0.03543087517804804,0.029954896818944244,0.02056884350405667,0.009288708322809787,-0.0007443307631091926,-0.0074674052175408975,-0.010252276208136261,-0.010139755233043916,-0.008733254615859692,-0.007476778108308565,-0.006951687938857679,-0.007345505565945844,-0.0088926574019955,-0.011686901283358529,-0.015128140771502544,-0.018438101931548795,-0.020810403727785615,-0.02200124107128786,-0.021944980583741686,-0.020557231533827842,-0.01818493552332606,-0.015334431154416855,-0.012005712641365188,-0.007748701869536717,-0.0022914814420118396,0.003709587665116351,0.00926995096980437,0.013433192333810871,0.01599302715995659,0.01752142164300082,0.019059200588282813,0.021112691026512975,0.02320369038501894,0.02411322529079032,0.022547321887470287,0.01775584226968822,0.009541874731032522,-0.0014663343746921943,-0.01407795464686573,-0.026267624733883995,-0.03520358836266715,-0.038157235030165985,-0.03493166460143899,-0.027852279704474407,-0.01984460833446806,-0.01233389110440447,-0.004954455095306166,0.0034751710884434817,0.013386310522767408,0.023606886688609812,0.03189586628208206,0.03658420360127449,0.03693114520305423,0.033311745575769,0.026916853634391103,0.018937300936687756,0.009926319467353017,0.0005684030498338332,-0.007758080546039427,-0.013505976880636338,-0.01558759756263959,-0.013618497855728683,-0.008780136426903154,-0.0031728884183041535,0.001224770100948722,0.002996960994315546,0.0018998901657677483,-0.0012788007662097964,-0.00586399289394507,-0.011405604631362712,-0.016994098179823815,-0.02134487257373921,-0.023679665449700238,-0.023885950046879507,-0.022526331240738745,-0.020097774742690793,-0.01666591393104949,-0.01226825772609063,-0.007476778108308565,-0.002394624319174979,0.0032688841769701943,0.009307459890080163,0.014905332115043976,0.01916234288687245,0.021103312350010266,0.02000624441432999,0.016283702488455114,0.011098405243584885,0.005903729322211947,0.002284333744941237,0.0008403265217752334,0.0015529531925760386,0.004047147697525864,0.007769686730533218,0.011661004333311568,0.014652159921086202,0.01638684478704475,0.017183864503458834,0.017849605891775148,0.018318441359414905,0.01804651759818675,0.016349341652504,0.013423819443043203,0.009963828387628814,0.006222534894483562,0.0026500240211238366,6.206288550486272e-05,-0.0011193974015004844,-0.0011193974015004844,-0.0004817840005205874,-0.00010671718855724426,-0.0010443841895369267,-0.004129308606560024,-0.009220841650769824,-0.014387381542634636,-0.016525268497919098,-0.013899794507724503,-0.00738301448622164,0.0003433630089417077,0.006513210222982091,0.009729407760941415,0.01019824322858117,0.009588762327811026,0.009982579954899191,0.012739320701721468,0.017362018856865016,0.021412745031514215,0.021975344121240897,0.01790586637932132,0.010826481482356733,0.004075277941298951,0.00040899968512452136,0.0004371296974682058,0.0022749568041590404,0.003090727509269993,0.0012435234039396116,-0.0029759784476130627,-0.007992495386991783,-0.012230748805814836,-0.014846844119506722,-0.016065805921047012,-0.016478380901140594,-0.016740931771601082,-0.016712801527827992,-0.015990793866230462,-0.014256109000271914,-0.011658776825320486,-0.00881764534717895,-0.006239058953762857,-0.004307465274260226,-0.0031353812337488705,-0.002966601506830866,-0.004241829003078865,-0.007561168839627824,-0.012643323785908418,-0.017472306538231237,-0.019553927220234486,-0.017622336433599377,-0.012202618562041748,-0.004991962279861449,0.0018530066190037729,0.0069351638795783835,0.010066970686218448,0.011276559596991071,0.010732712074534766,0.009054287696122388,0.007150827153260363,0.0056974418321651555,0.00485354146185462,0.004075277941298951,0.0030532209032882143,0.0024624904126414383,0.0032407545117706126,0.006044380541077378,0.010442036746036236,0.015205386120045216,0.018552861986102304,0.019096703722823564,0.016349341652504,0.010807729915086358,0.004131537850271618,-0.001353814556746858,-0.003660474874640782,-0.002347741350984508,0.0011872634949669433,0.004281564274198734,0.0045253577916538,0.0004371296974682058,-0.007401766053492017,-0.016778434906141833,-0.025208059932744473,-0.030665280938842854,-0.03218429674538439,-0.030093303172613467,-0.02589255867406621,-0.021176091111100692,-0.017762987652464805,-0.01704097999086728,-0.01924450032446558,-0.022863894166015777,-0.02532058090783682,-0.02487049700746744,-0.021551157170918482,-0.01719100988623542,-0.014096706214136105,-0.013130910820818551,-0.013834161129410664,-0.015043750040183284,-0.015456325020276869,-0.014190475621958073,-0.011133680870134558,-0.007111090724993487,-0.0030041081128126448,0.0005027663736510195,0.002940700506769374,0.004394084670717574,0.0054348950117192,0.006841394471756416,0.009063666372625099,0.012232982099540959,0.01573048207523114,0.01871226477223811,0.02080325834500903,0.022537943210967578,0.024722711977295506,0.028482757037711137,0.03422128048154038,0.04056929061187481,0.04503259176661759,0.045707706045701575,0.04207893352764867,0.035674668695503106,0.02863278114734423,0.022641091295292255,0.018580986444140347,0.016236820677411654,0.014370863269090383,0.01172664349736045,0.0076571657554408736,0.002387477200677881,-0.003219771386494625,-0.008123767929354507,-0.01118056268117802,-0.011761919123910121,-0.009689671332674538,-0.005629575738698696,-0.0008099676128640574,0.0036064442093797075,0.007225839208076913,0.010629569775945131,0.015017853090136323,0.020840767265284825,0.02713251112233804,0.031980251227666276,0.033405509197855926,0.029945518142441535,0.0214408752752873,0.008716730556580397,-0.006707894421402613,-0.022507579673468368,-0.03502543400926096,-0.039985689303946505,-0.03502543400926096,-0.021841832499417013,-0.005985886759805082,0.006288174058532444,0.01107965367631451,0.008407297875076448,0.0018342538945863877,-0.0036323446308676953,-0.004354348821024202,0.0002871029842543387,0.008097870979307543,0.015505440125046455,0.019040443235277392,0.016574377816953645,0.007854077461852477,-0.005385782221243631,-0.019197618513422117,-0.02952132540638407,-0.033815839312753296,-0.031696715496209296,-0.024682969763293587,-0.015043750040183284,-0.004316842215042423,0.007019554610897642,0.018674755851962314,0.03002990887376079,0.03939720483564294,0.044010530100018826,0.04197579122905903,0.03368681163558678,0.021431496598784593,0.00789158059639323,-0.005620198797916499,-0.01895381921023201,-0.03173421863075005,-0.04291120572767226,-0.050778231664548215,-0.05396630474446949,-0.05245665604296059,-0.04736512820591233,-0.04083896372217171,-0.0347910191683086,-0.02954945565015716,-0.023735920151511367,-0.016272096303961325,-0.007561168839627824,0.0007371830660385898,0.007094566665714191,0.010976505591989833,0.01315189568181505,0.014811568492957053,0.016668147224775613,0.019190473130645532,0.022725482026611513,0.026157342838252818,0.027235659206662717,0.024000704315697976,0.015767985209771896,0.0035970678471710146,-0.010017855581448862,-0.021963732151012064,-0.03006517292884038,-0.03344077325293551,-0.03253123834716412,-0.028611790500612688,-0.02320145130555777,-0.01761295775709667,-0.012615193542135332,-0.008001874063494493,-0.002788444839130665,0.004234681306008262,0.01293623240813307,0.02156276914114731,0.027601346589977798,0.029298522535660548,0.026794953982796046,0.02121583332510261,0.01408956083135952,0.006372564789851702,-0.00151321792145617,-0.008995799700585136,-0.015034371363680576,-0.018700652802009277,-0.0199102417127819,-0.01890693739918855,-0.01580326083632157,-0.010655472511727134,-0.004307465274260226,0.0020780468334679497,0.007910337949398648,0.013123765438041965,0.017530800319503534,0.02093453088737175,0.02347561414624709,0.025801028345705405,0.02842649655016496,0.03119261597348995,0.03341488208862359,0.03427754096908655,0.03361179379503519,0.03153017311303194,0.028032673137341754,0.023719407663702154,0.020118759603687295,0.01849660149855613,0.019031070344509723,0.020596973747829758,0.021272093812648784,0.019406136404327513,0.014295851214273831,0.006672613009117899,-0.0018038944071017075,-0.00961465927785799,-0.015887651567640826,-0.020669752508920183,-0.024401667325562728,-0.027514722564932415,-0.029943273277245327,-0.03138728281470535,-0.03138728281470535,-0.029483816486108275,-0.02522681150001485,-0.01875691328955545,-0.011330592576546162,-0.004945078733097474,-0.0013819442219464401,-0.0012694244040011037,-0.003810501877141401,-0.007279872187632004,-0.010102246312768121,-0.011396225954860001,-0.011011781218539504,-0.009258344785310577,-0.006661006824624109,-0.003969904663277209,-0.0018882845598474616,-0.0008943571870363077,-0.0008568505810545289,-0.0008943571870363077,-4.108048344575536e-05,0.0020499171682683676,0.004919178311609485,0.007572775024121615,0.00868860031280731,0.0077321778102574235,0.005050451432545711,0.0012341464631574147,-0.002741561292366689,-0.005432665768007606,-0.00551705592075336,-0.0029478482038399765,0.0013372899188940585,0.0056974418321651555,0.009063666372625099,0.010723339183767099,0.010648321343215507,0.009382471944896713,0.0073477330739369255,0.005041074491763514,0.003484547450652174,0.004000264150761889,0.007010175934394933,0.011454719736132298,0.015271025284094098,0.017090100881371906,0.01677128952336525,0.014989722846363235,0.01250490586076911,0.00926995096980437,0.004928554673818178,-0.0005567973281988457,-0.006670385501126818,-0.012521429920048406,-0.017181631209732706,-0.020013384011371534,-0.021054197245240682,-0.02077289480750982,-0.019994632444101157,-0.019460163598147562,-0.019516424085693734,-0.019938371956554984,-0.020182165474010052,-0.019497666732688317,-0.017575454622555914,-0.014537411438002775,-0.010674224078997513,-0.0064172133071690425,-0.0018226477100925969,0.003025090659515128,0.008004101571485575,0.012954983975403447,0.017427658020913898,0.021103312350010266,0.02324119351955969,0.02339122341492783,0.021609656737925816,0.01828093243913911,0.014164572886176069,0.01063894845244784,0.008501067282898416,0.007760308054030509,0.008285404009216436,0.009935698143855727,0.01237363331840639,0.014689668841361997,0.016133678378822017,0.016330584299498577,0.015317907095137561,0.01336755895549703,0.011182795974904146,0.00932621145735054,0.00768529599921396,0.005744325378929131,0.0033345210267250597,0.0005871566421114747,-0.0018038944071017075,-0.0032291483272768214,-0.0037073584214047575,-0.004185568515532693,-0.0058827444612154466,-0.009783440740496505,-0.016215835816415152,-0.024326655270746178,-0.03154668560084115,-0.03443469889002615,-0.030787180590437908,-0.02128861208619304,-0.008986421024082425,0.0023593469569047946,0.01013260985026733,0.01302062313945233,0.011229677785947608,0.0061944046507104765,-8.796382770900446e-05,-0.005554562526735139,-0.008930160536536252,-0.00967091976540416,-0.007814341033585599,-0.004288711971269336,-0.0007162005193361063,0.0016842268920857684,0.0027906740828422586,0.002903193900787595,0.0024812437156323274,0.001974903377731306,0.0020499171682683676,0.0029594538097602635,0.003953381182571418,0.00422530494379957,0.0036814579999167696,0.0025281272623963033,0.0009715996427114592,-0.0012506711010102144,-0.004832558915152137,-0.010289779342677014,-0.016919086125007265,-0.023229581549330858,-0.027542852808705498,-0.029061868615247025,-0.02801168249061021,-0.024786112061883223,-0.020313438016372774,-0.015465703696779578,-0.0110492901388153,-0.00738301448622164,-0.004354348821024202,-0.0012694244040011037,0.002012410562286589,0.005087958038527489,0.007178957397033451,0.00767591732271125,0.007253969451849998,0.007422750914488516,0.009588762327811026,0.014080187940591852,0.019678060165555664,0.024488291350608107,0.027310671261479267,0.02786389167470324,0.026448018166751346,0.023522495957290553,0.020203156120741594,0.017305758369318844,0.014670917274091621,0.011736016388128117,0.0081822617106268,0.004562864397635579,0.0023405936539139054,0.0028938175385789023,0.006653861441847523,0.013029996030219997,0.02065323423537593,0.02736693174902544,0.03138952767990155,0.03198962990416899,0.029617333893667205,0.025669755803342686,0.02130960273292458,0.01741827934441119,0.01438024194559309,0.012758078054726887,0.01250490586076911,0.012992492895679244,0.013208156169361222,0.011979809905583182,0.007975971327712487,0.0015810834363491246,-0.0052357552187430115,-0.011527498497222722,-0.017481685214733946,-0.022826385245739985,-0.026567678738885235,-0.028142955032972934,-0.028049191410886007,-0.028114824789199848,-0.03048712658543667,-0.035813069263437296,-0.04235798531444828,-0.046896292738272574,-0.046858783817996776,-0.041532841139996154,-0.03199676371547549,-0.020210295717783138,-0.008639485208037723,0.00040899968512452136,0.005106711341518379,0.005181725132055441,0.0021155534394497284,-0.0014194508279282189,-0.003341668145222158,-0.0029197179600668906,-0.0004911606520160321,0.003343897388933752,0.008369794740535695,0.014277093861268415,0.02050320434000779,0.026382379002702464,0.03130513694858229,0.03413688975022112,0.03387434466549568,0.029804866923576104,0.02209723798710091,0.01236425464190368,0.0029313241445606815,-0.004110555303569135,-0.007748701869536717,-0.008498833989172293,-0.007111090724993487,-0.00384800848312318,0.0010653667362394105,0.0067757610934425765,0.011351577437542662,0.013330050035221235,0.012082952204172817,0.007788438297803595,0.0013654201626671445,-0.005592069132716918,-0.011686901283358529,-0.016009551219235883,-0.018494362419094964,-0.019722708682873007,-0.019928999065787316,-0.019225742971460166,-0.017697348488415927,-0.015625106482915384,-0.013102780577045465,-0.010120997880038498,-0.006595373446310268,-0.0023571177131932004,0.0025750108091602787,0.007291478372125794,0.010685830263491302,0.011970437014815516,0.01121092621867723,0.009298081213577456,0.007291478372125794,0.005641181923192487,0.004478474823463328,0.003906498214380946,0.004159668094044705,0.00520047843504633,0.006569470710528264,0.007647787078938164,0.007835320108847058,0.007094566665714191,0.006072510784850464,0.00530362131220947,0.005322375193773864,0.006269416705527026,0.007103939556481859,0.0070476848546707285,0.006447576844668252,0.006222534894483562,0.0065038373322144245,0.006175653083440099,0.0033626506919246413,-0.002694678324176218,-0.010814875297862942,-0.018156805279552973,-0.022104383369877495,-0.021391754384782673,-0.017397294483414687,-0.012690205596951882,-0.009520895655771064,-0.008283176501225356,-0.007861222844629062,-0.006932930585852261,-0.004720038518633297,-0.0007537077038913893,0.004684761156363112,0.01034827312394931,0.014774059572681256,0.01712760401591266,0.017662078647601297,0.017680830214871674,0.018580986444140347,0.02095328824037717,0.024441409539564647,0.027338801505252353,0.02656991203261136,0.01916234288687245,0.004515981429445108,-0.014593671925548947,-0.033750205934439455,-0.048546586872911864,-0.05591664709837498,-0.05502586375987397,-0.04712132890272222,-0.03467849240748122,-0.020219674394285847,-0.006145295331675932,0.005631804982410291,0.013686364527768648,0.017465161155454653,0.01739952777714081,0.01458652654277236,0.010113852497261912,0.004834788158863731,-0.0004536539881769029,-0.005160742006779453,-0.008658242561043143,-0.010477312372585909,-0.010702354322770597,-0.010149128123811583,-0.00961465927785799,-0.00909894199917477,-0.00845195217812883,-0.007767459222542137,-0.007176724103307327,-0.007073581804717692,-0.0075799204068982004,-0.008198779984171053,-0.008330058312268818,-0.0075799204068982004,-0.005920253381491242,-0.0035104484507136667,-0.00034113388094481447,0.0038127305422794907,0.009307459890080163,0.016171181513362772,0.02403821323597377,0.032636625510949965,0.04142257081583506,0.04973030197657769,0.056537780469519246,0.06058850664416845,0.06089792775420231,0.05713788269378669,0.049955343926762374,0.03992230079082887,0.02701061725647803,0.011914176527269343,-0.003754241968168733,-0.01722851302077617,-0.02608946459474277,-0.0293150408092048,-0.027861658380977115,-0.02370778990773828,-0.018841304020874708,-0.014593671925548947,-0.011368095711086915,-0.008789515103405865,-0.006773527799716453,-0.005085728794815896,-0.0033979280541948263,-0.0014382041309191082,0.00045588305831644567,0.001543576830367346,0.0012153931601665254,-0.0008943571870363077,-0.004579388456914874,-0.00860198207349697,-0.011086799059091096,-0.011021159895042213,-0.008630106531535016,-0.005123235400797675,-0.002197714348483889,-0.0008568505810545289,-0.0014850876776830836,-0.0036323446308676953,-0.006220307386492481,-0.007992495386991783,-0.008105016362084128,-0.0069610608296253465,-0.006951687938857679,-0.010289779342677014,-0.016637783687276402,-0.023070178763195053,-0.026398897276246718,-0.024992396659062492,-0.020013384011371534,-0.014087333323368438,-0.009277102138315996,-0.005657705403898278,-0.0018976609220561543,0.0033626506919246413,0.010160740094040416,0.01775584226968822,0.02499463573852366,0.030930070888764507,0.03521520611863102,0.037859431676096,0.038590812228461197,0.03738122331768857,0.03409000793917766,0.028979716963388934,0.022884879027012278,0.01646186262759634,0.00997320127839648,0.0032782605391788867,-0.004232451483723164,-0.01276521765176843,-0.020547858643060173,-0.024336028161513843,-0.021926229016471312,-0.013796652209134869,-0.0025165210779025124,0.008726109233083106,0.017362018856865016,0.02190971074292706,0.022500434290691783,0.020850140156052493,0.019499900026414437,0.02027816817555814,0.022875506136244613,0.025210299012205638,0.02505089622606983,0.02130022405642187,0.014108318184364938,0.003915874576589639,-0.008142525282359925,-0.020154035230236966,-0.029305662132702092,-0.03286880127244116,-0.030843441077984084,-0.02610821616201315,-0.021738690200827374,-0.019169482483913994,-0.0179505206823737,-0.017003476856326524,-0.015540715751596126,-0.013365325661770906,-0.010964899407496042,-0.009417753357181426,-0.009811570984269592,-0.012418287621458772,-0.016393990169821335,-0.020257177528826602,-0.022526331240738745,-0.0222637861560133,-0.01953517565296411,-0.0155969762391423,-0.011808800934953585,-0.008573851829723884,-0.005742095556644033,-0.003191641721295043,-0.0010537605517456194,0.0008403265217752334,0.0028281806888240378,0.005022321188772625,0.006860151824761835,0.007647787078938164,0.007497762969305065,0.007328981506666548,0.008079113626302124,0.009316838566582874,0.010048219118948072,0.009354341701123627,0.00724459077534729,0.004609748522973058,0.0026031404743598607,0.0021436836832228147,0.003550184300407039,0.006260043814759358,0.009382471944896713,0.011998567258588602,0.013630104040222473,0.014070809264089143,0.01308625651776617,0.0104889185570797,0.006560097819760596,0.002181190289204593,-0.0014288277687104156,-0.003332291783013465,-0.0037073584214047575,-0.0035948386034594204,-0.003810501877141401,-0.0047481687624063825,-0.006173419789713976,-0.007748701869536717,-0.008836396914449329,-0.008564473153221175,-0.006145295331675932,-0.0015225942836648626,0.0045534874568533825,0.010610818208674754,0.015083492254185203,0.016949449662506475,0.015692973154955346,0.011417210815856501,0.004844165099645928,-0.0029290949008490873,-0.010327288262952811,-0.01565323672668847,-0.018119296359277177,-0.017706727164918636,-0.014959359308864025,-0.010674224078997513,-0.005901496028485824,-0.0018320246508747938,0.0006809231570659216,0.001665473589094879,0.001693603254294461,0.0015154465865942596,0.001384173465658034,0.001206016797957833,0.0007934429750112579,0.0002871029842543387,7.143953700030741e-05,0.00038086967278083683,0.0007465600068207865,0.0008965864307479016,0.0010278601302576315,0.0013935498278667266,0.001721733498067547,0.0016467202861039896,0.0007465600068207865,-0.001231917798019325,-0.004560635153923985,-0.009192711406996738,-0.014668683980365499,-0.019732087359375716,-0.022601349081290335,-0.021682435499016245,-0.016740931771601082,-0.009117699352180188,-0.0010631374925278163,0.005322375193773864,0.009251199402533992,0.01142658949235921,0.012964362651906158,0.014258342293998036,0.015064734901179785,0.014942841035319772,0.014277093861268415,0.0143052241050415,0.016002405836459295,0.019265485185462082,0.0225191916436972,0.0235975080121071,0.02136585743473571,0.016565004926185976,0.010948375348216747,0.005828717267395398,0.001449810315412899,-0.0028071981421215544,-0.007636180894444374,-0.012980886711185451,-0.017500436782004324,-0.01897257656323743,-0.015540715751596126,-0.00738301448622164,0.0032032473272153293,0.013133144114544675,0.0201656472004658,0.02355062620106364,0.023719407663702154,0.02186282314614855,0.02001561730509766,0.019978114170556904,0.022012853041516692,0.024807096922879725,0.026176094405523195,0.024947748141745156,0.021478378409828053,0.016827550010911418,0.012411136452947143,0.008510445959401126,0.004947307976809067,0.0011872634949669433,-0.0036698518154229783,-0.010261649098903928,-0.018072414548233714,-0.025554995748789177,-0.03091845313280063,-0.032934434650755004,-0.031265388948845334,-0.027289680614747725,-0.023323350957152825,-0.020716634319963647,-0.019553927220234486,-0.019066340185324354,-0.018128675035779886,-0.015943912055187002,-0.01308402900977509,-0.011208692924951106,-0.011743161770904703,-0.014649932413095118,-0.017969272249644078,-0.018766286180323118,-0.015024998472912908,-0.0065016040384883005,0.005031698129554822,0.016452483951093635,0.024600812325700452,0.02778887961988669,0.026251106460339742,0.02194721387746781,0.016958822553274144,0.012748699378224176,0.00997320127839648,0.008801121287899654,0.00846355836262262,0.007975971327712487,0.006822642904486039,0.004928554673818178,0.0025093739594054137,9.956954934399191e-05,-0.0015507245274379486,-0.0022727275604474463,-0.002591534868439574,-0.0037354886651778433,-0.006529734282261387,-0.010796117944857525,-0.01596266362245738,-0.021176091111100692,-0.02516117812170101,-0.026483288007565976,-0.024382915758292347,-0.019413281787104098,-0.013037147198731626,-0.006773527799716453,-0.0019539214096023264,0.0010278601302576315,0.002875064235588013,0.005059827794754403,0.00862296114875843,0.013508210174362462,0.019265485185462082,0.025744767858159233,0.03248659561558183,0.03848766992987156,0.04277281094547311,0.04492007079152524,0.04451687448793437,0.04112251681083382,0.03379932682494408,0.021619029628693484,0.004581617700626468,-0.015690739861229226,-0.03558803309898764,-0.05079698901755363,-0.05749192917819772,-0.05456640696873692,-0.04442085442918116,-0.031134116406482608,-0.018494362419094964,-0.008761384859632779,-0.0027134316271671074,-0.00026612055326655617,-0.0008756038840454182,-0.0035479550566954454,-0.00701732131717152,-0.009727180252950334,-0.009999104014178486,-0.007242363267356208,-0.002310234745002729,0.0029594538097602635,0.00659760095430135,0.008013480247988284,0.007994728680717907,0.007666544431943582,0.007947841083939401,0.009316838566582874,0.011642252766041191,0.01432398145804692,0.016640016981002526,0.01791524505582403,0.017858984568277857,0.01691194074223068,0.01597427559268621,0.015252267931088677,0.014211460482954576,0.0124955271842664,0.010066970686218448,0.0065882280635336824,0.002284333744941237,-0.0018320246508747938,-0.004457491698187341,-0.004673155550442825,-0.002085194530538552,0.0026969069893143078,0.008144752790351005,0.012261112343314045,0.013611352472952098,0.01193292809453972,0.008154131466853716,0.0036908343621254616,-0.0004817840005205874,-0.003951151938859824,-0.006314071008579407,-0.0068110367199922485,-0.004945078733097474,-0.0013256843129737718,0.002781297142060062,0.005772455044128712,0.006522588899484801,0.005406765346519618,0.004019017453752778,0.0037658475740890195,0.0046566314911635305,0.005725572075938242,0.005753701741137824,0.004600371582190862,0.0028938175385789023,0.0012810300099213904,0.0003433630089417077,0.000221466308071525,0.0006434165510841428,0.0013654201626671445,0.002265580441950348,0.0036439508153614866,0.005566168711228929,0.007291478372125794,0.007282099695623086,0.00409403124428984,-0.0023289880479936188,-0.011246201845226903,-0.021373002817512296,-0.030149563660159636,-0.03406901150671107,-0.03105910435166606,-0.022170016748191333,-0.011021159895042213,-0.0015225942836648626,0.003934627879580528,0.0049566843390177594,0.0026031404743598607,-0.0013725678597377475,-0.00548892509840677,-0.009089569108407103,-0.011752540447407412,-0.013374704338273617,-0.013974812348276095,-0.013449716393090167,-0.011761919123910121,-0.008855148481719704,-0.005188872250552539,-0.00159760749562842,0.0009997298864845453,0.002875064235588013,0.004947307976809067,0.007825947218079391,0.011379701895580706,0.015308528418634853,0.019724941976599127,0.025360323121838738,0.032655377078220346,0.03953785605450837,0.04315725568179361,0.04183514579592864,0.03594659245673126,0.027301292584976555,0.017849605891775148,0.008941772506765085,0.0008778331277570123,-0.006848539854533002,-0.015015619796410199,-0.023839062450101003,-0.03225931458593598,-0.037782168970348196,-0.037782168970348196,-0.031556064277343865,-0.02078227348401253,-0.009155202486720943,-0.00032238057795392516,0.00409403124428984,0.004966061858373461,0.0035126776944252604,0.0003339862995889126,-0.003941774998077626,-0.008798887994173532,-0.013449716393090167,-0.016928464801509977,-0.018353716985964576,-0.017500436782004324,-0.015109389204232167,-0.012830856815817313,-0.011611889228541982,-0.011658776825320486,-0.012840235492320022,-0.01471556579140896,-0.016853446960958383,-0.018635013637960395,-0.01947891516541794,-0.01889756450842088,-0.016647162363779115,-0.013309065174224735,-0.009652168198133785,-0.005901496028485824,-0.002000804377792798,0.0018530066190037729,0.004722267762344891,0.005566168711228929,0.0033814039949155304,-0.0014944646184652805,-0.007111090724993487,-0.010571081780407877,-0.010767987701084437,-0.00846133085463154,-0.004888818824124805,-0.001100644098509595,0.002012410562286589,0.003981510847770999,0.005031698129554822,0.0058568475111684835,0.007010175934394933,0.008894884909986581,0.011689134577084655,0.015167877199769421,0.01877789815055195,0.021994101474246314,0.02446953978333773,0.025857288833251578,0.02599793426638197,0.02481647559938243,0.02195659255397052,0.017680830214871674,0.013039374706722706,0.009654395706124865,0.00897927564130584,0.011173417298401435,0.015036604657406699,0.018224677737327978,0.019246733618191708,0.017849605891775148,0.014905332115043976,0.012279863910584422,0.011773525308403912,0.013995797209272593,0.01865600428469194,0.024591439434932784,0.029814245600078813,0.03223342342162405,0.03009554225207463,0.022856754568974236,0.011342198761039953,-0.0019914280155841056,-0.01299025960195312,-0.017069110234640365,-0.01206197312891136,0.00037149296342804173,0.015589830856365712,0.028932835152345474,0.03725932366609352,0.039219050482236756,0.03507456068550063,0.026616799629389863,0.01677128952336525,0.007872829029122853,0.0010841200392302996,-0.003819878239350093,-0.007626808003676706,-0.010702354322770597,-0.013412213258549412,-0.015906403134911207,-0.01810992346850951,-0.019835229657965348,-0.02126986051892266,-0.023689038340467903,-0.028161712385978355,-0.033750205934439455,-0.037960329109489425,-0.03892612450280698,-0.037210196989853846,-0.034875404113892824,-0.03329074914330241,-0.032353078208022905,-0.030899695779795212,-0.027852279704474407,-0.022873267056783445,-0.016703422851325284,-0.010636715158721716,-0.005601446073499114,-0.001850777953865683,0.0009997298864845453,0.0032407545117706126,0.005069204735536601,0.006485079979209005,0.007422750914488516,0.00832290714375719,0.009748165113946834,0.011867288930490839,0.014080187940591852,0.015749233642501522,0.016208690433638567,0.014924083682314356,0.011623495413035772,0.007169578720530741,0.003465794147661285,0.0017123571358588544,0.0008121962780021474,-0.0018976609220561543,-0.00867699412831352,-0.019450784921644853,-0.031115359053477194,-0.03894487607007736,-0.03921679983130551,-0.03145292197875423,-0.018700652802009277,-0.0061171650879028455,0.002040540227486171,0.004253434608999152,0.0023312172917052125,-0.0007162005193361063,-0.0025727815654486845,-0.0025446513216755983,-0.0009318643715915906,0.0013466668596762554,0.0032782605391788867,0.00422530494379957,0.004300317577189623,0.004394084670717574,0.005809959914389979,0.009082417939895475,0.013770755259087905,0.01878727682705466,0.02246293115615103,0.023644395608885607,0.02229414969351251,0.019762450896874922,0.017202616070729208,0.014933462358817063,0.012814332756538017,0.010957754024719454,0.010141982741034998,0.010910872213675992,0.012983114219176533,0.015280398174861765,0.01625557224468203,0.014764680896178549,0.01063894845244784,0.004684761156363112,-0.0014006975249373293,-0.005760849438208426,-0.0069610608296253465,-0.004494998882742624,0.0010184831894754348,0.008116622546577919,0.014914710791546687,0.01963117256877716,0.02066261291187864,0.017371397533367725,0.01042328517876586,0.001543576830367346,-0.007411144729994725,-0.015034371363680576,-0.02041658031496241,-0.023032675628654298,-0.023529635554332098,-0.02341711457923975,-0.023820310882830625,-0.024373537081789638,-0.023820310882830625,-0.02100731543419722,-0.01607518459754972,-0.010139755233043916,-0.004579388456914874,-0.00043490062732866314,0.002181190289204593,0.0033251440859428626,0.0025187503216141066,0.00031523299659802316,-0.0014100744657195262,-0.0004067706149849786,0.004197174121452979,0.011032766079536004,0.01752142164300082,0.021412745031514215,0.021815941335105088,0.01944364532460331,0.01588050618486424,0.012186100288497495,0.008716730556580397,0.00530362131220947,0.0017123571358588544,-0.0019539214096023264,-0.005432665768007606,-0.008573851829723884,-0.011002408327771836,-0.012324518213636804,-0.012437039188729147,-0.011780670691180498,-0.010561703103905166,-0.00903330862086093,-0.007279872187632004,-0.005357652556044048,-0.0034448116009588017,-0.0017757641633286212,-0.0005099140128642718,0.0003339862995889126,0.0011497568889851646,0.0021718139269959005,0.003559560662615732,0.005322375193773864,0.00761028394439741,0.010404527825760441,0.013498831497859753,0.01618056018986548,0.017577682130546994,0.01749329718496278,0.01640560214005017,0.015317907095137561,0.014745929328908168,0.014445875323906931,0.01409893950786223,0.013601973796449387,0.012458024049725647,0.010395154934992774,0.007479011402034689,0.0037283409681072408,-0.0006880708541365244,-0.005545186164526446,-0.010252276208136261,-0.014378008651866968,-0.017378542916144313,-0.018878807155415463,-0.019019458374280894,-0.018550622906641136,-0.01803490562795792,-0.017734857408691723,-0.016994098179823815,-0.014828086766501306,-0.010908638919949868,-0.005423288827225409,0.0006059099451023641,0.006110013919391218,0.010254503716127343,0.012570545024817992,0.01301124446294962,0.012073579313405152,0.010432658069533527,0.008416676551579157,0.00638193768061937,0.004619124885181751,0.0033814039949155304,0.002687530627105615,0.0021999435921954825,0.0016092131015487067,0.0007840666128025653,-0.00021923723793198222,-0.0012600474632189068,-0.00250714471569382,-0.004401231789214672,-0.0069235576950845935,-0.009642789521631074,-0.011424356198633088,-0.011236823168724194,-0.0088926574019955,-0.005357652556044048,-0.0020289346215658843,0.00038086967278083683,0.001599836739340014,0.0021718139269959005,0.002940700506769374,0.00442221491449066,0.006878903392032212,0.0099919586314019,0.013301919791448149,0.016508744438639804,0.019256106508959373,0.0210939394592426,0.021637781195963865,0.02079388545424136,0.018974809856963554,0.01691194074223068,0.01497097127909286,0.012926853731630362,0.009579383651308317,0.0035033007536430637,-0.005620198797916499,-0.016065805921047012,-0.025123669201425215,-0.03075904456092978,-0.03244684761584487,-0.03098408651111447,-0.028058564301653675,-0.024917384604245946,-0.021701187066286622,-0.017472306538231237,-0.011790049367683207,-0.005010715582852338,0.001262276706930501,0.00530362131220947,0.006288174058532444,0.004412837973708464,0.0012716530691391935,-0.0010725144333100132,-0.0012131644950284356,0.0009903529457023486,0.005209854797255022,0.010460788313306614,0.014792811139951631,0.01647123551836401,0.015149125632499042,0.012420515129449854,0.010873363293400197,0.012129839800951323,0.015692973154955346,0.01957491786696603,0.021787811091332,0.020531334583780876,0.014661538597588912,0.0044878511856720205,-0.008301928068495732,-0.020322816692875483,-0.028330488062881826,-0.03107785591893644,-0.029483816486108275,-0.02579878926624424,-0.022029371315060945,-0.019206991404189785,-0.017378542916144313,-0.015362561398189941,-0.01162126790504469,-0.005479548736198077,0.002565633868378082,0.011089026567082176,0.017999635787143288,0.020981418484150256,0.01876851947404924,0.011867288930490839,0.002809427385833148,-0.005498302039188966,-0.011152432437404936,-0.01371226726355065,-0.014040445726589934,-0.01349659820413363,-0.012877738626860777,-0.01205259445240865,-0.01040230031776936,-0.007626808003676706,-0.004148061909550914,-0.0014288277687104156,-0.0010162539457638407,-0.0036417215716498925,-0.008498833989172293,-0.013177792631862013,-0.015606354915645009,-0.014781204955457842,-0.011283704979767656,-0.006529734282261387,-0.002000804377792798,0.0016560966483126823,0.004590994641408664,0.0071602000440280315,0.009429359541675219,0.011510980223678469,0.012954983975403447,0.01293623240813307,0.011004635835762918,0.007638414188170496,0.003906498214380946,0.000980976583493656,-0.00013484720090092874,0.0011778865541847464,0.004469097882681132,0.008454185471854952,0.011229677785947608,0.011417210815856501,0.009260578079036701,0.006475707088441337,0.005294244950000777,0.0067757610934425765,0.010667078696220926,0.016452483951093635,0.024066343479746857,0.032749140700307273,0.0402129761193274,0.04273530202519732,0.03759688659137055,0.025810401236473074,0.012270491019816754,0.002678153686323418,0.00011832291019223171,0.003625197512370597,0.009419980865172508,0.014127069751635316,0.016208690433638567,0.015327285771640269,0.012204851855767872,0.007807189865073971,0.0029782071127511527,-0.0013725678597377475,-0.0044762450011782305,-0.00586399289394507,-0.00630469811781174,-0.007551790163125114,-0.010899266029182201,-0.016647162363779115,-0.023492132419791343,-0.029305662132702092,-0.032700019809802645,-0.03329074914330241,-0.03134977389442955,-0.027214668559931175,-0.02035094693664857,-0.010261649098903928,0.0023687233191134875,0.015505440125046455,0.026963735445434567,0.03513081538731176,0.039312814104323676,0.03960349521855725,0.037062411959681914,0.03283353721736157,0.02728254101770618,0.019584290757733696,0.008801121287899654,-0.005292015706289183,-0.021476145116101932,-0.03675073441298175,-0.04704631684790567,-0.049127937529908926,-0.042198582528312475,-0.027842901027971698,-0.009305232382089083,0.009523123163762144,0.02496649970901553,0.03421190180503767,0.03619975886495399,0.031211367540760326,0.02130022405642187,0.00977629535771992,2.4556204308528405e-05,-0.005638952100907389,-0.006782906476219162,-0.004982585339079252,-0.0027228079893758,-0.0019070378628383512,-0.0029478482038399765,-0.0052357552187430115,-0.008301928068495732,-0.011855682745997048,-0.015606354915645009,-0.018841304020874708,-0.020575983101098216,-0.020594740454103637,-0.019357015513822885,-0.017387915806911982,-0.015250034637362554,-0.013046520089499292,-0.010486691049088618,-0.007429896297265103,-0.004494998882742624,-0.002600911230648267,-0.0019539214096023264,-0.002141454439511221,-0.002882211354085112,-0.0035479550566954454,-0.0033697983889952442,-0.0023852479569662867,-0.000978747339782062,0.00045588305831644567,0.002181190289204593,0.004966061858373461,0.009785668248487587,0.01699633147354994,0.02563224688306689,0.03344301811813172,0.03733434150664511,0.03516832430758756,0.027151268475343462,0.015271025284094098,0.002181190289204593,-0.009333362625862169,-0.0172191401300085,-0.020726012996466356,-0.020547858643060173,-0.01783799970728136,-0.01386229137318375,-0.009586529034084903,-0.005638952100907389,-0.0026102881714304637,-0.0014382041309191082,-0.003097874627767092,-0.007711198734995963,-0.014312369487818085,-0.02091354602637525,-0.025639386480108432,-0.027570983052478588,-0.02695212347520573,-0.024279773459702714,-0.020463467911740914,-0.016628410796508734,-0.013505976880636338,-0.011443113551638505,-0.00974593182022071,-0.0069610608296253465,-0.0025540282624577954,0.002940700506769374,0.008285404009216436,0.012017318825858977,0.01323628641313431,0.01194230677104243,0.008632339825261138,0.004581617700626468,0.001449810315412899,-3.5738039851415616e-06,-0.00012547049154813363,9.019289784854721e-05,-0.00021923723793198222,-0.0009131110686007012,-0.0012975540692006856,-0.0011100210392917917,-0.0002473671924183163,0.001815500013021994,0.005941232456752701,0.01279558118926764,0.022115995340106328,0.03192399652585515,0.03935969591536714,0.04208831220415138,0.03958474365128688,0.03276789805331269,0.024131976858060695,0.01677128952336525,0.01279558118926764,0.012908102164359983,0.01632121140873091,0.021403366355011506,0.026448018166751346,0.02972985486875955,0.029692351734218796,0.02584791015674887,0.01916234288687245,0.011314068517266867,0.003934627879580528,-0.0018882845598474616,-0.005685835647671365,-0.0076924413819905455,-0.008761384859632779,-0.009699050009177246,-0.01105866881531801,-0.013027768522228915,-0.015540715751596126,-0.0184849895283273,-0.021748068877330086,-0.02537684139538299,-0.02987763989893149,-0.03618814110899012,-0.04457087853881425,-0.05329117889391542,-0.05887968979958166,-0.058129569251416165,-0.05009373870896152,-0.03644130751721285,-0.020172786797507343,-0.004795052309170358,0.007197708964303827,0.015120995388725958,0.01964992992178258,0.021665911439736948,0.02186282314614855,0.02050320434000779,0.01786836324478057,0.014352111701820004,0.01092962378094637,0.009185566024220153,0.010404527825760441,0.014558396298999278,0.020559464827553962,0.02656991203261136,0.03073315339661786,0.03163332119735662,0.028623402470841525,0.022284776802744845,0.014052057696818767,0.005397388405737421,-0.0021602077425021096,-0.007167351212539659,-0.008039377198035247,-0.003838631542340983,0.0045253577916538,0.013902027801450625,0.020681364479149016,0.022687973106335718,0.01992185368301073,0.013920785154456045,0.006653861441847523,9.019289784854721e-05,-0.004579388456914874,-0.007111090724993487,-0.007908104655672526,-0.008067507441808333,-0.008358188556041903,-0.00903330862086093,-0.009502138302765644,-0.009258344785310577,-0.007936234899445612,-0.005601446073499114,-0.0027603145953575786,0.0002777262749015436,0.003484547450652174,0.006916406526572966,0.010563936397631292,0.01387389755767754,0.015683594478452637,0.01573048207523114,0.014774059572681256,0.013573843552676301,0.012861220353316521,0.012842463000311102,0.013245665089637019,0.013667612960498269,0.013480079930589377,0.01193292809453972,0.0081822617106268,0.0017123571358588544,-0.007223611700085833,-0.017200382777003087,-0.026145725082288945,-0.03240933869556907,-0.035184836795396766,-0.0347816404918059,-0.03194988190443203,-0.028021061167112924,-0.024120364887831865,-0.02099793675769451,-0.018944446319464344,-0.017762987652464805,-0.016750304662368747,-0.014771826278955133,-0.01060858491494863,-0.004232451483723164,0.0027344135952960865,0.007910337949398648,0.009570004974805608,0.007132069800254945,0.0012528997661483041,-0.0064172133071690425,-0.013337195417997822,-0.017012849747094192,-0.016262717627458616,-0.01170565863636395,-0.005329522312270962,0.0004652597098118903,0.004122161488062926,0.005162971829064552,0.00340015729790642,-0.0008756038840454182,-0.006351579928855202,-0.01062734226795405,-0.012202618562041748,-0.011246201845226903,-0.009333362625862169,-0.00880826667067624,-0.0111993142484484,-0.016028302786506257,-0.021373002817512296,-0.025011148226332873,-0.02510491763415484,-0.02092292470287796,-0.013196549984867433,-0.0033979280541948263,0.006728873496664072,0.015158504309001753,0.02029691974282852,0.02138461478774113,0.018881040449141587,0.013855145990407164,0.008032231815258662,0.00318449402422444,0.001037236492466324,0.002096800136458839,0.005631804982410291,0.010526427477355495,0.01570235183145806,0.02041881939442357,0.024666451489749334,0.028398366306391875,0.03139890057066922,0.0332742366554932,0.033621172471537904,0.03189586628208206,0.028332732928078034,0.02482585427588514,0.02331620557437624,0.02434764013174268,0.027019995932980736,0.0298423758438519,0.031051964754624517,0.029167249993297832,0.02412260396729303,0.01712760401591266,0.009645022815357198,0.0028281806888240378,-0.0027228079893758,-0.006342201252352493,-0.007523665705087071,-0.006107786411400137,-0.003032237778012227,0.0002027129472232852,0.0023124639887143234,0.0031657407212335505,0.003306390782951973,0.0031001038714786855,0.002284333744941237,0.00025897297191065417,-0.003660474874640782,-0.008789515103405865,-0.012755844761000763,-0.013234053119408186,-0.009577156143317235,-0.0032947851770316868,0.0033345210267250597,0.007966598436944822,0.009101175292900892,0.007253969451849998,0.004169044456253397,0.0017967467100311045,0.0010559897954572136,0.001224770100948722,0.0004371296974682058,-0.002966601506830866,-0.009192711406996738,-0.017069110234640365,-0.02554562285802151,-0.03458472878539429,-0.043623834712767075,-0.0500749813559561,-0.050215632574821534,-0.0412140297819895,-0.02351088398706172,-0.0009224874308093938,0.021084560782739892,0.03754062610382438,0.045707706045701575,0.04563269399088503,0.03939720483564294,0.0306862715855744,0.022800494081428063,0.01713698269241537,0.013348807388226653,0.010601439532172045,0.008116622546577919,0.005069204735536601,0.000887210068539209,-0.003969904663277209,-0.007945613575948321,-0.009952222203135023,-0.010786745054089858,-0.012427660512226438,-0.01645025065736751,-0.023229581549330858,-0.03177172755102584,-0.039985689303946505,-0.04607114856382045,-0.04871536833555038,-0.047458891827999256,-0.04294871464794805,-0.036807000686262976,-0.030693411182615944,-0.02507678739038175,-0.020182165474010052,-0.016412747522826756,-0.014265487676774624,-0.01377790064186449,-0.014406138895640052,-0.01493122906509094,-0.014349878408093882,-0.011724410203634326,-0.006951687938857679,-0.0006224340043816595,0.005847468834665775,0.011529731790948846,0.016143057055324726,0.01927486386196479,0.02027816817555814,0.018852910205368497,0.015233516363818301,0.010610818208674754,0.00631630430230553,0.003315767145160666,0.0015810834363491246,0.0005871566421114747,-0.00046303058181499713,-0.002085194530538552,-0.0038948920298871553,-0.004691908853433714,-0.003247901630267711,0.0009528469182940741,0.0075915323771270325,0.015289776851364473,0.022106616663603616,0.026541781788838273,0.027685737321297053,0.025660377126839974,0.021984722797743605,0.018318441359414905,0.015749233642501522,0.014483384244182726,0.014464626891177307,0.015589830856365712,0.017502670075730448,0.019415515080830222,0.020062504901876162,0.018740395016011196,0.015449179637500284,0.011089026567082176,0.00681326422798333,0.0035970678471710146,0.0021718139269959005,0.0030813505684877964,0.006260043814759358,0.010685830263491302,0.01459590521927507,0.01683692868741413,0.017230746314502297,0.016274329597687445,0.014792811139951631,0.013292546900680482,0.011510980223678469,0.008744860800353483,0.004169044456253397,-0.001972674712593216,-0.00823628890444685,-0.012427660512226438,-0.013046520089499292,-0.010421051885039737,-0.006257810521033235,-0.0025446513216755983,-0.0009506176745824799,-0.001635114680183703,-0.0036698518154229783,-0.005892123137718156,-0.007617429327173996,-0.008405070367085366,-0.007720571625763631,-0.0050388458266254245,-0.0007255774601183032,0.004028394394534974,0.00790095927289594,0.009963828387628814,0.009963828387628814,0.008229143521670264,0.005659935226183376,0.003465794147661285,0.0024906206564145245,0.002415607444450967,0.0019092671065499452,-0.00033175728730672026,-0.004870065521133916,-0.011161811113907644,-0.017547324378782828,-0.022095004693374786,-0.02357651736537556,-0.021701187066286622,-0.017387915806911982,-0.012033842885138273,-0.007007948426403851,-0.0031072515685492885,-0.0008568505810545289,-0.0005005373035114767,-0.002150831380293417,-0.005132611763006368,-0.007823713924353267,-0.008320679635766109,-0.005770225800417118,-0.0010256308865460376,0.0040565246383080615,0.007647787078938164,0.008923015153759668,0.008510445959401126,0.0077321778102574235,0.007825947218079391,0.009241820726031282,0.011642252766041191,0.013573843552676301,0.013348807388226653,0.010292012636403138,0.005472401617700979,0.0004933896642982244,-0.003407304994977023,-0.005826483973669274,-0.0069610608296253465,-0.0072704935111292945,-0.007054830237447314,-0.006764154908948786,-0.00651098271499101,-0.006145295331675932,-0.0055076789799711635,-0.004466868638969538,-0.002957224566048669,-0.0008287209158549469,0.0019092671065499452,0.0046378781881726405,0.005866220401936151,0.004731644703127087,0.0013372899188940585,-0.0030884982655583993,-0.006801658043489539,-0.00845195217812883,-0.007964365143218698,-0.006210928709989772,-0.004419985092205562,-0.0030416147187944235,-0.0014006975249373293,0.0009528469182940741,0.003859614089043466,0.006728873496664072,0.00875423369112115,0.009419980865172508,0.008735482123850773,0.007000797257892224,0.00487229476484551,0.003372027632706838,0.0030813505684877964,0.0037564712118803266,0.004787904612099755,0.005237985041028109,0.0045253577916538,0.0015810834363491246,-0.004832558915152137,-0.014284239244045,-0.023876571370376798,-0.02954945565015716,-0.02900560812770086,-0.022676361136106885,-0.013590367611955598,-0.005460795433207187,-0.0007537077038913893,-0.00027549726261935127,-0.003660474874640782,-0.01003660714871924,-0.017931763329368286,-0.025254941743787937,-0.030158936550927305,-0.03202489974498362,-0.0305808902075236,-0.025986322296153132,-0.019150730916643613,-0.011574386094001228,-0.004982585339079252,-0.0005099140128642718,0.0018623835597859698,0.0028281806888240378,0.0033626506919246413,0.004337824183171401,0.006288174058532444,0.009616892571584112,0.014136448428138024,0.018946679613190465,0.022931766623790786,0.02557598639552072,0.02707625642052691,0.027488831400620493,0.026419887922978263,0.023860058882567585,0.020981418484150256,0.019462396891873686,0.020484452772737412,0.02356000487756635,0.026682433007703704,0.027610725266480507,0.02568850737061306,0.021712799036515452,0.017502670075730448,0.01497097127909286,0.015008480199368655,0.017090100881371906,0.019828084275188763,0.021750302171056207,0.02188157471341893,0.019978114170556904,0.01625557224468203,0.010873363293400197,0.003915874576589639,-0.0038948920298871553,-0.01118994135768073,-0.016703422851325284,-0.019694578439099917,-0.019938371956554984,-0.018269326254645318,-0.01608456327405243,-0.014771826278955133,-0.014678062656868206,-0.015315673801411437,-0.015090631851226747,-0.011940073477316305,-0.0050482221888341165,0.004694138097145308,0.015280398174861765,0.024647694136743916,0.03171770614294083,0.036331031407316715,0.03863769403950466,0.038750215014597,0.03680924555145918,0.033264857978990495,0.029364167485444473,0.025744767858159233,0.021665911439736948,0.015674221587684972,0.006719500605896404,-0.004710662156424604,-0.016347108358777875,-0.02539559296265337,-0.029802627844114932,-0.028949353425889727,-0.02379218063905754,-0.016609653443503316,-0.010139755233043916,-0.006407840416401375,-0.005939004948761619,-0.00787997441189944,-0.011236823168724194,-0.015897030244143538,-0.022198152777699463,-0.030337096690068534,-0.039788777597534894,-0.049156067773682005,-0.056704288138286346,-0.06096128155290969,-0.06135511653720299,-0.05842024457991469,-0.053572481331646285,-0.04865910784800421,-0.04506783846449205,-0.04336128962804163,-0.043108117434083854,-0.04266741799595223,-0.04022010414489886,-0.03473475868076243,-0.02725217169447193,-0.01961956638428337,-0.013487225313365962,-0.009483386735495267,-0.007523665705087071,-0.006473473794715214,-0.00462627200367885,-0.0005192906643597166,0.00638193768061937,0.015514813015814123,0.025669755803342686,0.0350839335762683,0.04202267882583754,0.04490131343851983,0.043035356030198556,0.03733434150664511,0.029973648386214614,0.023372466061922413,0.019387384837057136,0.019106082399326277,0.022481682723421405,0.02882031417725313,0.03695926966109228,0.045388906259165,0.052571439240454265,0.05740980645501484,0.05942580533017433,0.05918199445551414,0.05775674805679457,0.055590730857737025,0.05186818893186215,0.04582960569729663,0.03810322519355106,0.030123672495847718,0.022622333942286837,0.015786736777042273,0.010713960507264388,0.008801121287899654,0.010376403367722397,0.013742625015314818,0.01604928764750276,0.01482094138372472,0.00854794909394188,-0.003360421448213047,-0.019807099414192265,-0.03770715691553165,-0.052147229147191686,-0.0584108138317966,-0.05451952515769346,-0.04222671277208556,-0.02653954849511215,-0.012943377790909658,-0.0049263254301065845,-0.0029197179600668906,-0.005010715582852338,-0.00881764534717895,-0.01269958427345459,-0.01514689233877292,-0.01487497436327981,-0.011396225954860001,-0.0056483290416895855,0.00025897297191065417,0.004497228126454218,0.006475707088441337,0.006794512660712953,0.006063132108347754,0.004928554673818178,0.004169044456253397,0.004337824183171401,0.0057068181943738475,0.008351037387530276,0.012176721611994786,0.016518117329407472,0.019846841628194185,0.02071886761368977,0.017830854324504774,0.01092962378094637,0.0013185366159031689,-0.008639485208037723,-0.01631897811500479,-0.02006027160815004,-0.019853981225235726,-0.017791117896237895,-0.0172191401300085,-0.01989149014551152,-0.025179929688971387,-0.031002843864119892,-0.03492229171067133,-0.034772261815303185,-0.029821379411385313,-0.020951054946651046,-0.01041167899427207,-0.0009975006427729513,0.005041074491763514,0.006878903392032212,0.004900425008618595,0.0006059099451023641,-0.004232451483723164,-0.008095637685581419,-0.010102246312768121,-0.009764689173226128,-0.007251741943858918,-0.003332291783013465,0.0007278067038298971,0.0035689376033979287,0.004497228126454218,0.0038408613646260807,0.0023687233191134875,0.0009715996427114592,0.0001558295740313609,0.00010894625869678701,0.0006152863073110567,0.001768617044831523,0.004403461611499771,0.009035536128852011,0.015252267931088677,0.021600278061423107,0.02627923670411283,0.02830460268430495,0.02772324624157285,0.02499463573852366,0.020325049986601604,0.014230212050224952,0.007535271889580861,0.0009903529457023486,-0.004757545703188579,-0.009258344785310577,-0.011958825044586684,-0.012155736750998286,-0.009474008058992558,-0.0049263254301065845,-0.0005661739796942905,0.0014591866776215916,0.0002871029842543387,-0.0033979280541948263,-0.0075424172723574465,-0.009502138302765644,-0.0075799204068982004,-0.0019539214096023264,0.005256738344018999,0.011510980223678469,0.015055362010412118,0.015374167582683732,0.012064200636902441,0.006044380541077378,-0.0004724072911677923,-0.004729414880841989,-0.0049357017923152766,-0.0009506176745824799,0.006353807436846284,0.015299155527867184,0.023953822504654512,0.03133326719235538,0.0369405180938219,0.040475521204052844,0.041075634999790354,0.03830013689996266,0.03243034091377069,0.024638321245976248,0.016583756493456354,0.009176187347717442,0.0025281272623963033,-0.004054295394596468,-0.010993029651269129,-0.01801615406068754,-0.024448549136606188,-0.02913688645579862,-0.03124663738157496,-0.030880944212524835,-0.029052495724479363,-0.026511418251339063,-0.02342649325574246,-0.019732087359375716,-0.015906403134911207,-0.01234326978090718,-0.00909894199917477,-0.006220307386492481,-0.004401231789214672,-0.0043262185772511156,-0.006736024665175699,-0.011874440099002466,-0.019141358025875944,-0.02724279301796922,-0.03514732787512097,-0.04160785319481271,-0.04456150564804659,-0.04154221981649887,-0.03173421863075005,-0.017125370722186534,-0.0017195042543559531,0.010582687964901668,0.01756830923977933,0.019096703722823564,0.01662126541373215,0.011989188582085893,0.006653861441847523,0.0020217869244952814,-0.0007630840661000819,-0.0012225408572371281,0.000221466308071525,0.002321840350923016,0.0038314838452703803,0.004497228126454218,0.0046566314911635305,0.00498481516136435,0.006091262352120841,0.008351037387530276,0.011764146631901203,0.016583756493456354,0.022734854917379182,0.029504818704309904,0.03478387957126706,0.03574968075031965,0.030845674371710208,0.021197081757832234,0.009673147273395242,-0.0011850342512553494,-0.010383548750498982,-0.018175556846823347,-0.02523619017651756,-0.03164983368516583,-0.036807000686262976,-0.03999506798044921,-0.040660809368765524,-0.0388979942590339,-0.035541151287944175,-0.03208115444679475,-0.029736988680066058,-0.02787103127174478,-0.024261016106697297,-0.0168722043139638,-0.005629575738698696,0.007450881158261603,0.01977182378764259,0.02967359438121338,0.036274776705505586,0.03906902058686861,0.03821574616864341,0.03446507399899545,0.02877343236620966,0.021872201822651264,0.014455254000409642,0.007460254049029269,0.002256203501168151,0.00024021961106241438,0.0017404868010584365,0.005922480889482324,0.010976505591989833,0.01480218981645434,0.016171181513362772,0.015055362010412118,0.0124955271842664,0.009963828387628814,0.008782363934894236,0.009645022815357198,0.012261112343314045,0.015918015105140036,0.019499900026414437,0.022050356176057447,0.023138051220970055,0.022040983285289778,0.01848722282205342,0.012833090109543435,0.006203783327213185,-0.0007349538223269958,-0.0074674052175408975,-0.012971508034682742,-0.015625106482915384,-0.014124836457909191,-0.00902392994435822,-0.002413378200739373,0.004019017453752778,0.009157435780447067,0.012561166348315283,0.0139582882889968,0.013386310522767408,0.011473471303402673,0.009373099054129044,0.008069740735534457,0.008304155576486814,0.010104479606494245,0.013245665089637019,0.01712760401591266,0.02029691974282852,0.02103767897169643,0.01848722282205342,0.01251427875153678,0.004178421397035594,-0.004213698180732275,-0.010083494745497744,-0.012652702462411127,-0.012887117303363484,-0.012258879049587921,-0.012174488318268662,-0.013046520089499292,-0.014359257084596592,-0.014799956522728218,-0.01308402900977509,-0.00961465927785799,-0.006314071008579407,-0.004757545703188579,-0.004870065521133916,-0.005282638765506987,-0.004888818824124805,-0.004513752185733514,-0.005413912465016716,-0.007111090724993487,-0.00808626479481375,-0.00759867775990362,-0.006060904600356673,-0.0041761915747504956,-0.0027603145953575786,-0.00250714471569382,-0.003923021695086737,-0.007148593859534241,-0.011508746929952346,-0.015840769756597366,-0.019075718861827066,-0.019919620389284607,-0.017434797617955442,-0.01177129201467779,-0.004635648944461047,0.0008028199157934547,0.001815500013021994,-0.0027978217799128615,-0.012230748805814836,-0.02502052690283558,-0.03878547328394155,-0.05018750233104845,-0.055466568983740645,-0.051903435629736615,-0.03892612450280698,-0.019019458374280894,0.0025750108091602787,0.01963117256877716,0.028342105818845706,0.02859527801280348,0.02303490892238042,0.014867823194768183,0.006269416705527026,-0.0015225942836648626,-0.007833092600855976,-0.012999638278455829,-0.01719100988623542,-0.01982585098146264,-0.019928999065787316,-0.01658152319973023,-0.0093896173276733,0.0007184297630477004,0.01085461172612982,0.017943375299597115,0.020493831449240125,0.018834158638098123,0.014661538597588912,0.009823177168763382,0.00550053128290056,0.002293710685723434,0.0013935498278667266,0.004412837973708464,0.011754773741133536,0.02190971074292706,0.03226155366539714,0.03985666741251503,0.042997847109922764,0.04206018196037829,0.03842203076582268,0.033930605153041846,0.029964269709711906,0.027235659206662717,0.02537907468910911,0.022772363837654977,0.01799025711064058,0.010770220994810563,0.00240623050366877,-0.005029468885843228,-0.009980352446908109
