-0.4115123050065077,-0.4338683193499565,-0.4556540717800468,-0.5078770038587552,-0.5829009632190653,-0.6574387394255846,-0.7076713849892917,-0.7062636623580248,-0.6304666745220224,-0.4457428713466487,-0.1816812253578999,-0.0032801878178573083,-0.016863445946270754,-0.20247808949581006,-0.4185430624690412,-0.5406733751591192,-0.5717017709834029,-0.5374539385681366,-0.4496483527353027,-0.3155156487709813,-0.14701300818294702,0.00586014057988087,0.09368211493134637,0.12551030387888107,0.14291577792149024,0.1806343465235924,0.24740399500615282,0.34054757320855433,0.4479804512087822,0.5501930882086062,0.6154033495008105,0.6098216045665646,0.5184194750933122,0.34811489501716936,0.15990797759527245,0.02072861412087548,-0.043603089504949503,-0.032235771921184445,0.049630519194862145,0.19207305637746466,0.37966872428735116,0.5552564189952103,0.6432867652344056,0.6652655785205579,0.6547339296930392,0.6060384333571242,0.49466852535229217,0.3421710992013363,0.2504094107457531,0.25998823480988037,0.32626292410722674,0.40442473997510575,0.46302112175442406,0.4815202200992198,0.45117287577153153,0.37954989379133686,0.2801974997302825,0.18201992205363332,0.10219438016906163,0.02451098905793566,-0.079551711915757,-0.22126419876787215,-0.37093620347116085,-0.4660251080239713,-0.45531997969572796,-0.3347371352375708,-0.16351465927362246,-0.06875235383279953,-0.10503384301012046,-0.24405075675521876,-0.391156537666448,-0.43237087939079394,-0.3392870775920812,-0.14070988186063735,0.0912861551909837,0.29741789108313815,0.4638038977194183,0.5832170131469543,0.6415418405870826,0.6080650333916076,0.42938451036436387,0.03480463758492337,-0.35906036447166073,-0.5006696985273686,-0.4778817668433459,-0.35563503451087874,-0.1747055706151967,0.011959822044680256,0.15379272551077847,0.21051611828159975,0.1810825423105753,0.09695787243627532,-0.013014914017148797,-0.12469056759078674,-0.2175460945530201,-0.285685864041238,-0.33354155358041593,-0.3684075456939841,-0.41240490734514323,-0.46337729962936797,-0.5111867384193429,-0.5382029236647122,-0.5418443599404397,-0.5293306159990571,-0.503747694184282,-0.4739338017033892,-0.44859875538111765,-0.43043277381749534,-0.4221191239190928,-0.41849032089149035,-0.394329194546254,-0.3234993201977763,-0.1840973634413845,0.012833740112801428,0.20085657011823976,0.3395867987403844,0.44043879708741324,0.5266057276272514,0.6076731547948316,0.6775150252635643,0.7239626491967285,0.7443387601155584,0.7258976853604557,0.6471622600478125,0.5282295768004579,0.42583637992362683,0.37250861926261425,0.3774698139990489,0.43366318945883303,0.5097433117355685,0.551553137527602,0.5599708763744444,0.564800784313715,0.5774525655333784,0.5868087513481672,0.5701428198944979,0.5253725703323595,0.46794475070458413,0.41461854441061097,0.36528584103410766,0.31473083663044377,0.259358637639719,0.19462922454743325,0.10955843112835305,-0.007821690495580298,-0.16503324447451456,-0.3435280557078661,-0.5015340198987518,-0.6286166412546687,-0.7318635653586979,-0.7956712106411324,-0.7293403463958653,-0.468341294346297,-0.18812158887902422,-0.019945608308885955,0.05485727997340779,0.058810276432528216,-0.009088438359936871,-0.1846236303866114,-0.48521349041369466,-0.7482094790420222,-0.8585517466467127,-0.8845775034837399,-0.8766182946113723,-0.8504594180471957,-0.8069452987447037,-0.735826591646841,-0.6241071153143951,-0.4801309987757557,-0.3648674264560109,-0.3270173636776467,-0.34529020939273963,-0.35892955201130594,-0.3168005299473509,-0.19122094727287356,-0.011033417581039751,0.14615798743464187,0.23802758975571525,0.25431973612687847,0.2062152056457996,0.1296131444619797,0.063457209582921,0.024764486019427885,0.021642154687683334,0.060310679183877954,0.1361252730813071,0.22828054245166618,0.30687494745692334,0.3663995023222763,0.422101088528663,0.49445328235898856,0.5857068835428799,0.6666957018474894,0.7061319328032921,0.7183708406094824,0.7302041560334259,0.7538348223909616,0.7848093649444606,0.815880286169844,0.8467857964008806,0.8787630092776312,0.9038589428940118,0.9125858232605949,0.8955537088679022,0.8371582559963301,0.7008928372719406,0.4012775751445617,-0.08334804493201,-0.44325944558458186,-0.6124912106250675,-0.7042423339768462,-0.7451981492461075,-0.7252660754820827,-0.615357778190869,-0.4102482173748038,-0.1905739759685231,-0.025982971815067854,0.08335470915563173,0.15542347590741037,0.20798764586581858,0.23667242890482076,0.23882027442018777,0.22093999352216723,0.19492940298953668,0.17994789307340828,0.1923335703514268,0.2301434875751566,0.2733255457874522,0.31004751881483217,0.3454122605922915,0.393867670763698,0.46205983702068465,0.5382845042979536,0.59884121682039,0.6275872652464257,0.623864614790161,0.5835259935691427,0.4976945361253835,0.36112466397466175,0.18247254421746129,-0.021456922809999442,-0.24891303648949129,-0.4994139351870066,-0.7083753160847184,-0.7955714690908693,-0.8053280030306287,-0.7907277271738428,-0.7659039011911264,-0.7319370076479582,-0.6829476404309801,-0.6105223715821273,-0.507782652804142,-0.3806834431745015,-0.2506541454019157,-0.13856243784728905,-0.05199076683398892,0.012525499790225814,0.05492529439525688,0.07835820174421022,0.08374468361987408,0.07829103656043479,0.08001535723199134,0.10619650753171936,0.16754096909427216,0.23425328537412263,0.2730092817053507,0.28672710231647963,0.2871798922675629,0.2778579561330041,0.2539818468991804,0.18228342725849672,-0.014655750069355947,-0.371587915270536,-0.6859694320999572,-0.8218771899874191,-0.8607903113679028,-0.8652183845761596,-0.8512687321009096,-0.8050454693056247,-0.6484887754874837,-0.09890598071887119,0.6108872338039615,0.8223168902790461,0.8231577267660334,0.6599414603620107,0.3270523293279855,-0.019712651180467156,-0.27241276725603714,-0.4288098637400616,-0.4481015776095275,-0.295537160798094,-0.09201127637887119,0.07524193200831374,0.20362106340335476,0.28931679403506533,0.32932258398341474,0.33276469667625513,0.3238065673190574,0.3190898581777826,0.32507373796180616,0.3341669781127705,0.3383501234750813,0.3349804099301173,0.3150532829419619,0.2664765258842383,0.20037005803106753,0.15274163992245188,0.16041016088480714,0.24241380619732805,0.3792797736061689,0.5022763193092028,0.5634414237619907,0.5667123436280214,0.5284607807689201,0.46297356278332125,0.37510229192093,0.2593928685825061,0.12322412838605468,-0.006339701878425478,-0.0909521964678018,-0.12458062855493192,-0.13403137687990077,-0.15102813219593766,-0.19303104706150861,-0.2547016072198903,-0.30854373850547234,-0.3424331345332023,-0.3646962635160688,-0.37740604838802944,-0.35995380404413324,-0.24983130830573846,0.010254240500464125,0.26854041318496735,0.4188022640445874,0.4605807290337962,0.3703094660369663,0.11447616963902865,-0.19205347643102627,-0.3880964331846682,-0.4723526842734219,-0.4665848464336802,-0.3391898726169726,-0.04956913472494397,0.24429057226514056,0.380109384577034,0.3794557055477668,0.28461503877943267,0.1284780443709052,-0.026242639272548142,-0.1429997229150994,-0.21698232575971133,-0.24711342218250132,-0.23321167507461413,-0.19026601452073114,-0.14738876194645698,-0.13057804622948496,-0.1519574301979231,-0.205288707383901,-0.263089893145341,-0.2918263893509819,-0.2831217616236528,-0.24449603099528355,-0.18366777739127582,-0.12165494557314181,-0.07906131374610563,-0.07580313172782904,-0.13851399260789,-0.26267196493265454,-0.3685364298877959,-0.4253980241880152,-0.4339118187413259,-0.3864909902753007,-0.26130622516686314,-0.07470647897546756,0.09863664515971389,0.21707271655102828,0.29192095536758533,0.3459319951236942,0.39861437027738994,0.4417335570086429,0.4450538116866887,0.4285979173858903,0.4169844143152211,0.4119399313107229,0.40738823332869617,0.3943323889927929,0.36156698647490687,0.2883093738060291,0.13470539382831861,-0.12442724286218278,-0.40307117136303655,-0.6091256159518205,-0.7335548367301923,-0.7134012722032622,-0.4329634697419331,-0.143882158161798,0.00291190358333119,0.06703083690815638,0.09637973971537524,0.1175778533340902,0.1479199337978697,0.19151508376003443,0.2382353823193604,0.26757638219788876,0.263857519073639,0.21226515682425964,0.051615555281347855,-0.1681425400112624,-0.32784491881276956,-0.43652359110381855,-0.5115249539179114,-0.5667211486473828,-0.5922705038792501,-0.5641720236503609,-0.4734507648109664,-0.36128509228483763,-0.25382346999555694,-0.13898547192024094,-0.005298477620236555,0.12570338554560517,0.20301552513117357,0.20695554361233068,0.16725200107602733,0.12159630053742754,0.09710798157021386,0.10925002070755364,0.1500830809690603,0.20964606704308966,0.28843894675065473,0.38272115470815726,0.45960705055132184,0.49054887541585745,0.46458737897436125,0.3902304651702366,0.29177864320236374,0.1900085348994841,0.10890812410157076,0.06405503981928413,0.04646632382817622,0.04780589217663417,0.064740038042156,0.11756076155218675,0.2254492332306469,0.37715342712868505,0.5320638520547456,0.6372708610793171,0.6728290288658654,0.659181094228778,0.6246998405239849,0.5821856334994501,0.5343367750104648,0.48943122392277955,0.4607399811877173,0.4591858657226377,0.4814084700796647,0.5113469018605062,0.5268831810138955,0.5088664960884908,0.4498141764744945,0.3461957614041358,0.174086926745092,-0.12132305549935067,-0.4822563983348176,-0.7108745751416509,-0.797929889024073,-0.823367742840744,-0.8282660326262703,-0.825260946974263,-0.8082729370784366,-0.759587033045611,-0.6500454247631532,-0.4452150823722245,-0.18299583518646542,-0.00432633431164467,0.043552012789411246,0.021421879039380833,-0.0018190077454960589,0.028386362081709554,0.14281433845380503,0.319859986826747,0.45223583260982975,0.4671764765194853,0.39789204614840706,0.3151200561308651,0.28293266287928537,0.3423892075730507,0.5085987778399779,0.6505093921615972,0.624279896287358,0.5574270244702864,0.4712587683040831,0.26790132693055996,-0.1950622844261924,-0.4991890800023356,-0.5765422238020136,-0.5820991928211693,-0.541844348886081,-0.4403711360901386,-0.2798609129543922,-0.13045615659576631,-0.056394843139745486,-0.038093718925786293,-0.03121744921065676,-0.007837841094339281,0.026007175445104825,0.032306861835969626,-0.02537918987244973,-0.12362623631433403,-0.21283009232223327,-0.2718670910039707,-0.30586762650692384,-0.31727787484321784,-0.30339634749979205,-0.26948987563222343,-0.23008406175665447,-0.18410000539141994,-0.12095821969147037,-0.037665185948020125,0.05891453410373155,0.15224298546996523,0.231615762143216,0.2929867356683648,0.3503156635348174,0.40885799929488403,0.46644973223169317,0.5208110127589383,0.5574170119947999,0.549063920895806,0.476021852258697,0.33680102322306626,0.16359555719290775,0.020622757930634335,-0.05311115765313156,-0.06249430991220718,-0.02307787814578055,0.04759208636266322,0.13614050434924496,0.2342997362879554,0.3376774930580503,0.431042879327051,0.49678588127806866,0.5295291546603829,0.5283549548747158,0.4835131037060538,0.3802865425462886,0.2200160317487465,0.051130404059300034,-0.06398625973522849,-0.10443183081896512,-0.07038748648875039,0.02191549256278662,0.13189303470225022,0.21356339164348587,0.2660031037759569,0.2962339588197907,0.2956253293066669,0.2576851166526462,0.18597332505353317,0.0921473366299599,-0.010600099387638721,-0.11572385722094287,-0.21655589571948528,-0.2962240984984647,-0.31403689747398583,-0.22338615786794605,-0.023550522788156586,0.16364739396031253,0.26111528976743625,0.2750047810132621,0.21636684825417363,0.12555082449108762,0.050570988802108044,-0.00014283692556052644,-0.040417151389583565,-0.07326305910025235,-0.0885312301731868,-0.08152076302225778,-0.0580922373547205,-0.029665968997040472,0.006268442356735789,0.06585804242282146,0.17339543230107918,0.3581966993937157,0.571947830455246,0.7069300428744454,0.7306877819884386,0.6927854819887299,0.6437229335904006,0.6020950993334545,0.5458941275636217,0.40274067692890775,0.17829144081186726,-0.02962961641552727,-0.1946888699203246,-0.3259695995117747,-0.4233133007197611,-0.481813172701647,-0.5055266598900312,-0.518216639554724,-0.5467357995491298,-0.597249046402576,-0.648665020000668,-0.680581525373138,-0.6898617441516848,-0.6863203471267008,-0.6703882031096897,-0.6446678517806513,-0.6030565366543627,-0.521735661190976,-0.38589735857894036,-0.2440380542666367,-0.1545197873643234,-0.10239972101210558,-0.04215066528976801,0.06568362477802626,0.21788760421715367,0.38002353406903905,0.5050719007490413,0.5707133530029551,0.5814941059152723,0.561124120117192,0.5283527184549696,0.4879829401823097,0.4436916219609354,0.40479569348002636,0.3798707313287429,0.36297811195959184,0.3302838776752435,0.25764784054859713,0.1316291258986173,-0.050330599517377214,-0.2599750119502467,-0.43308661004412263,-0.5426911788891599,-0.6017988469176635,-0.6216299083788945,-0.6024565264896081,-0.5404660553823813,-0.45252888862564916,-0.38739403581243004,-0.3735938425234328,-0.4097892784199941,-0.4758794979386048,-0.5339504228855234,-0.5402093751687411,-0.4724870704980764,-0.35677500903001924,-0.22319159265029836,-0.08578853671185539,0.08140439988108707,0.2814612430099767,0.3864420630359135,0.37352843760848686,0.3436027020173674,0.32280625277753033,0.31282979673848077,0.30999910339674763,0.2960237244793944,0.2645414664019423,0.22848507160018902,0.21452624544109203,0.23008495635984905,0.26543573900911965,0.3110244461223055,0.35912899859005615,0.4036174052573343,0.4440498555554685,0.4852662150966919,0.5248275561424506,0.5589997085886894,0.5865771947145788,0.6017049346353578,0.6063358297197603,0.5924141328619477,0.5525849369670454,0.47981671843935914,0.3625710636027945,0.20146024858436165,0.031728558000945144,-0.11020851122784761,-0.20789256872668907,-0.2710097055793853,-0.279270221883514,-0.1718527528629313,0.04051187339560239,0.23506350867336687,0.36078723872098517,0.4379719283664677,0.49094087363027505,0.5273994833240293,0.5444924267428402,0.5306587341549248,0.4562924654929169,0.2802366663636244,0.014005396225735474,-0.2879818863524217,-0.6042974228579763,-0.8243260196202744,-0.8824380679550548,-0.866241065173501,-0.821673461834839,-0.7380498065820755,-0.554110237488881,-0.19405871838532163,0.13582084650958806,0.26616335755319415,0.28835668011215176,0.25188229133572937,0.1508596991383173,-0.024293252697019423,-0.2129825560406895,-0.3415310039271142,-0.40851051965637747,-0.44618386116696324,-0.4856465538779663,-0.5439036861828019,-0.6065611306421769,-0.6471227643340344,-0.6530132796357488,-0.6222517612767096,-0.5304316956036155,-0.3462130586838265,-0.1022743898478207,0.12951132821215308,0.32160104839092607,0.4643230004436632,0.5615175838302003,0.6340130367941746,0.6925934264529992,0.7394424968484359,0.7667148413376297,0.7467219977592296,0.6494287620421332,0.46514105967971275,0.2951996450994429,0.24390260585778814,0.3133587076651599,0.4369500772923497,0.5404243878874245,0.5872993598602819,0.5638516089188929,0.46089925512377095,0.29861922830958887,0.13307744276087555,0.01232487548052133,-0.047563533459886974,-0.052788299548663674,-0.011719376132560454,0.0570270543186073,0.11716612247893993,0.10869275306700835,0.010222873624976966,-0.11882529823936892,-0.20797541439989356,-0.2505746372327487,-0.2571134498011464,-0.24387155895802592,-0.22312051063394947,-0.20650118016021993,-0.19136135872606339,-0.17632538176055945,-0.18692638471726922,-0.23552211475852602,-0.3140505039595465,-0.40804375453928077,-0.47288027485887996,-0.48102553235977935,-0.4442908123293291,-0.372598744150503,-0.2625578636957472,-0.07773958127086593,0.23606295125671312,0.5389622663812554,0.605340649379497,0.5534636873892056,0.4923990533195087,0.4603632865808629,0.46396598824379454,0.4837657620375108,0.4919298360958528,0.4780552612013909,0.44409552493356447,0.39355091261891295,0.3284161135068191,0.2572741409846189,0.1929206866836072,0.14548926637518936,0.11350071714251009,0.08313126994621033,0.03529061299948863,-0.03970564904693881,-0.1456024992219709,-0.27308520564298067,-0.4037177960581223,-0.5213205958139245,-0.6140152539687388,-0.6669477178903573,-0.6716963817339368,-0.6021109833955298,-0.34854005929717025,0.27155270888969085,0.6881436601057173,0.7962895846890018,0.783035220631855,0.6133729859772137,0.24988405298511274,-0.028870407696756764,-0.10245772121596598,-0.019436427875137826,0.15669311696855653,0.3184602720177648,0.3803876520768472,0.3272353378688503,0.1646534671018813,-0.09427717392671393,-0.37819310588286636,-0.5473012553525051,-0.6064145273098561,-0.6247619486615626,-0.6350878840227273,-0.6336904451041059,-0.5966249756032312,-0.4927255660158352,-0.3156957202389978,-0.11764854712954392,0.024101336012768593,0.0859590515096666,0.09008151018904556,0.06797609377724623,0.04124045140870863,0.02029361672678841,0.013902846589733018,0.03448974065246887,0.0750884529957423,0.10057642188288995,0.06566421908360434,-0.03532233887882875,-0.15558964591932384,-0.21724761365901235,-0.18323665310535855,-0.06347455286724552,0.11022514892230083,0.27080530377590234,0.36471675110686497,0.3869808028466144,0.3450901686652807,0.24600749528796226,0.11509320917127645,-0.010906014998175166,-0.12268138785743991,-0.1861724718473234,-0.16160948179245357,-0.03958503013787433,0.1430210258765731,0.31691954699461977,0.4367849310347524,0.49445246792240194,0.49253136707671635,0.4307216911961868,0.31053391036674577,0.14900177013187674,0.024195048288319122,0.004801629573658551,0.0884448656082268,0.21082899973175115,0.31111057422098876,0.375833073313327,0.4190513399428109,0.456495285344141,0.498896927154824,0.5401349598194903,0.5651631789148986,0.5600142390901582,0.5173756404425709,0.4398810828640312,0.35145348327547654,0.2818052168556573,0.2375430192899714,0.21815347959317957,0.21943344576655985,0.2130446431921897,0.1377040128565507,-0.032784401234462836,-0.1871842205726056,-0.27673548169040496,-0.3275206577871213,-0.34746124626271624,-0.32427613872306627,-0.24261314128882971,-0.11037904505183993,0.019958311787875303,0.10092193221823056,0.1137751235012019,0.05972577529911902,-0.028195302446379456,-0.10317739223371233,-0.1438215829643682,-0.15802125432416217,-0.15854190459941772,-0.14863423551875832,-0.12500350597360613,-0.10361273006461089,-0.09740358878499888,-0.09771909111040637,-0.08522024117424455,-0.05630781118352076,-0.016113405089867108,0.012665749384795234,0.011630441434321025,-0.02411397970842065,-0.08358057594589939,-0.13871918500837474,-0.1616038705332794,-0.13792293215863133,-0.07049601839700073,0.04017222985035372,0.1809594120668531,0.308771066994583,0.3799875060444181,0.3879030478393688,0.31593091211193763,0.1727353706783796,0.08072632245119425,0.04491515109567316,0.03554202374738305,0.041041676789655694,0.07423984001958407,0.13857192143195982,0.20179899232863355,0.218766075617155,0.18573811577716925,0.11773442797777656,0.026436607041550028,-0.07543389598981266,-0.17269672952789847,-0.2525408134032018,-0.3165823740197544,-0.37170738688485916,-0.42211141228238946,-0.45327665070540957,-0.46337953460983017,-0.44768535765493656,-0.37760947746758117,-0.2632752773178076,-0.18018214740942168,-0.17459779462049477,-0.22451633628745726,-0.2862826571946044,-0.3133696743213481,-0.26654331788623065,-0.12642000479580778,0.03977782909206306,0.12542848491418093,0.10443740338652673,-0.017122793779467155,-0.23469316271870114,-0.4893847911494395,-0.6682903601517438,-0.7339004800254375,-0.7146343302563002,-0.5960023307252185,-0.3103489827608237,0.12098994941577461,0.469810106333507,0.6403909714517337,0.6908099617577128,0.6714606781131276,0.5777613526447962,0.37511991808569506,0.12998010877365432,-0.05234796195384512,-0.13842698080728516,-0.12303294505356327,-0.001770887040868001,0.20971490914878113,0.39807821378621844,0.46423869717296035,0.43376295367093953,0.3459362271594663,0.2215184737085099,0.0931719849211662,-0.0004612841338507375,-0.03613630894291969,0.0011041225969652818,0.0986640116948739,0.1843095252051193,0.19562601326081427,0.1288748835682894,0.000942305955422226,-0.14334066115451927,-0.25240499722200377,-0.2955707600921804,-0.26050385676395643,-0.15363963304350198,0.0005331373376293063,0.16446000770221988,0.2892728613827448,0.3603708524861224,0.38504693617358987,0.3846676357389216,0.3871491821553704,0.4009998859710904,0.42601063685925883,0.44835613987469725,0.4643789478463856,0.4828346195815017,0.5092430494602435,0.538879861795745,0.5640428958453905,0.5617234754695256,0.5174770563260378,0.4648807709210385,0.4408954225217988,0.4531990709829491,0.4811133280675256,0.49114164496521223,0.4645348753239407,0.4151880207837611,0.3631820286857473,0.3175987378219718,0.26933762614306367,0.21045755889385645,0.14706770111819287,0.10485074233339749,0.10535959830165494,0.15735294950083784,0.24189825200034543,0.3239321055246107,0.37445621496406717,0.38146441688053745,0.3309886829723016,0.192983222304386,-0.037462873180257455,-0.2699630473276164,-0.42546210808024304,-0.5069022774361883,-0.5185281813950802,-0.44081842000752514,-0.31123569723144545,-0.223394503393411,-0.20386353039412144,-0.23516999036026692,-0.28591530818499433,-0.3294682925426594,-0.34380154460525214,-0.3062420570431905,-0.21753065951461573,-0.116035550851461,-0.06332832502323776,-0.10040838670865335,-0.21148972707137734,-0.3470378073032291,-0.4610748803626305,-0.529606647301775,-0.560436914430978,-0.5607835146459648,-0.5352536872646303,-0.4831347725989312,-0.4038810605913236,-0.2966215057183767,-0.1511496948160212,0.03271547762438858,0.22761827476666555,0.40169660804290547,0.5510762107016562,0.6686772460405817,0.7456783524368424,0.7703324408427146,0.7621828493782441,0.7448596802294729,0.7179876961598461,0.6473995226704411,0.483455449703679,0.2227529029214217,-0.03346527463877004,-0.21078135774949355,-0.3191229561428018,-0.381549956599668,-0.4202481586841261,-0.44381724880415724,-0.4620517837436187,-0.48617017883547964,-0.5157513697848175,-0.5468220685682658,-0.5655905056596066,-0.5419484349520829,-0.43754457387001117,-0.20099585698184586,0.16322862619692108,0.4695035253910978,0.6075600650959794,0.6197931618669977,0.561908260388098,0.46713280542740365,0.34751359730858866,0.20468532960212674,0.03247332677600644,-0.13977817140908821,-0.26360039735765267,-0.3183431581657885,-0.308942408579943,-0.2533371902262683,-0.17314413092053468,-0.07771656488923638,0.0313460314232113,0.1593595191417905,0.2835755114373633,0.36616121630470305,0.406543237118088,0.4216200607914495,0.4203202375274803,0.4035222286250726,0.3718607398784461,0.3409801916580983,0.32892638418606684,0.33828145481271055,0.35310523081215184,0.3625666213077843,0.3522744321534542,0.2981370412457202,0.16708316305976614,-0.028385115728361644,-0.19797903791496424,-0.30481648994309923,-0.36988756479771506,-0.42409091707807484,-0.49439269113800627,-0.5673711160214532,-0.6198469151275631,-0.6415956478545618,-0.6397795277214472,-0.6219529816287224,-0.5899252991269375,-0.5454807108436724,-0.4875166472772517,-0.40668954615345004,-0.27509912984669244,-0.1294875685772577,-0.03794046412424747,-0.00015599222629831993,0.020512046595743037,0.05189235074854156,0.09743599172939321,0.15925192880379221,0.22820839675592217,0.2951087333304069,0.3527816536076524,0.40438273977627576,0.4503476931601063,0.48846532354823746,0.5088773151424207,0.5115561014960277,0.4957804110529296,0.4560615134909346,0.38922224910500547,0.30127193210551356,0.21053778127704578,0.1392736863973787,0.10995239016785824,0.13803748758825182,0.20933971778583457,0.282665468342581,0.3335611802091931,0.3603144698567049,0.35744127254910507,0.30928256501015694,0.18808417654232498,0.025498884519091356,-0.09149155230273062,-0.15305744898587903,-0.18579794594929755,-0.2244585701807697,-0.2603736833174003,-0.24762048143515814,-0.1703141690977948,-0.06686705868754034,0.0022637189238785926,0.0313216983709426,0.05647274385465071,0.08987725945304975,0.12363200717322727,0.1428913404360336,0.13954372008427265,0.11016774129921987,0.040250943724448485,-0.08295500128305902,-0.24663048926700243,-0.38980837336605195,-0.4684771524705256,-0.4720985435986385,-0.3773275101215545,-0.1476784793457969,0.15504560420859959,0.3597058831458326,0.4483010326624386,0.490472943285679,0.5126843664058248,0.5153414681543306,0.4797096253708036,0.37182802613969895,0.20412899149455535,0.08538536824821878,0.06596943754710562,0.11864437871911064,0.20499977807627245,0.27358327567030855,0.29421313173005725,0.29923383168192647,0.34363331630769123,0.43695186080320303,0.5358469573975427,0.6059799674686764,0.6435257610910107,0.6445324584199378,0.5758807319345646,0.3760139110161298,0.03526829175862116,-0.2778737605813342,-0.44996929658558366,-0.5107433460274976,-0.4880601545573179,-0.39769321235916344,-0.2630868155988227,-0.11370113638009047,0.03508246347100027,0.17466839186368022,0.29721682646066516,0.39283258995209075,0.44688873430094905,0.40055266196682365,0.14266700678317631,-0.1792400721112713,-0.37346242821292164,-0.47541503605468016,-0.5293352371566844,-0.5397401473654587,-0.4906368787824049,-0.3869067419714572,-0.2770971311851491,-0.22862775257342163,-0.26950481352422734,-0.3153666454443759,-0.32842025736945424,-0.3285909336537014,-0.3059222434886874,-0.18945204953197706,-0.0024243782260227474,0.13774835056468385,0.22444801288345606,0.283504847417276,0.3245571961232915,0.3509444009142762,0.36723730633580454,0.3743456746407249,0.3678146713470821,0.3303859323349773,0.23680791858294925,0.10245399621035621,0.003292380491139223,-0.018365245956374267,0.02602382260261108,0.1057751469217083,0.19337586650712454,0.27112535816743777,0.3194525979021633,0.32796176858334664,0.286709393116393,0.18463028616181953,0.01621820819959411,-0.19561134271917657,-0.3883034530100774,-0.511003870750635,-0.5647944987253511,-0.5736478854129143,-0.5557244203098611,-0.5126867276217252,-0.44251935882029125,-0.3413770535267052,-0.20504319720850994,-0.05453799589632348,0.05541659403592087,0.09448435446380289,0.07407059595237084,0.010040410002092142,-0.09205582971799522,-0.22132657922931662,-0.3307985210294432,-0.3673310588516361,-0.3299455924369632,-0.23597422299818274,-0.07938512457233177,0.12199784923972942,0.269113140545663,0.3167852819903708,0.27130646957779153,0.13960936489380163,-0.05509966494145993,-0.2257815049610005,-0.3092014952604929,-0.320900432954796,-0.2901990618215752,-0.24500457117836957,-0.20301196459615126,-0.17789900602938985,-0.1826903793962319,-0.2112524580408407,-0.23282235171339669,-0.22225252155149128,-0.17348006891424145,-0.07784440288256003,0.08487198107618146,0.3109830377572496,0.5256815373665472,0.6576423652463302,0.7141027722169149,0.7353608203431722,0.7471707977449451,0.7537699354858036,0.7435395743098685,0.6991493107389849,0.6008869024350465,0.4428627844425705,0.2481449198270584,0.07852932167712737,-0.01603741523790578,-0.03861899140654545,-0.02634749696362676,-0.024703851221668523,-0.03765059429865547,-0.03490531631699384,-0.0066122516728298955,0.02403527956075025,0.017115110148713936,-0.05051172513354382,-0.16864744311498364,-0.30552480127888776,-0.42744139479963567,-0.4887766704716242,-0.4715686253179443,-0.38985975143245516,-0.290721109117184,-0.21613831296944985,-0.17700218861356834,-0.16438097521764597,-0.15081864327141986,-0.10408075734101663,-0.007522167663112293,0.11143507737220008,0.19691120261026324,0.21896128679577953,0.18431793949802958,0.10843655973209006,0.028902245144795113,-0.0067891276300878715,0.01963099311401964,0.07771836026236091,0.11632869386926852,0.11571695521439453,0.10053466263110086,0.11155067434019504,0.17322266308851755,0.26649058986806407,0.3632622656855848,0.46404879879239097,0.5600574885430126,0.6441277990056612,0.7142885865810001,0.7589826937926398,0.7393245459206941,0.6029268908208463,0.36142923923461806,0.1102917924573872,-0.07128834859664236,-0.16298575249179834,-0.19008449029927746,-0.19668426069534461,-0.21609468766667872,-0.25707299818423157,-0.30959781238623646,-0.35089709889570436,-0.356087987419141,-0.3137468014572235,-0.2201756138658324,-0.09551683634566796,0.014415147676836082,0.05508298225202471,-0.015460557822296684,-0.20157124659458472,-0.4437700515432581,-0.6419837741313653,-0.7336148462543116,-0.7403948075879251,-0.6904696660919106,-0.5806829510430271,-0.3821402853406444,-0.07945522682603091,0.27146061795877297,0.5417728060140519,0.6644115143334681,0.6848519151767125,0.6725075277408051,0.6527360815843326,0.6294940276078651,0.5943020862282576,0.5032358337963181,0.1827442704123476,-0.32554088625562444,-0.5231139616686454,-0.5285839935431025,-0.3647585394189751,0.041083354768685854,0.3856549228273289,0.5034604396671033,0.531607712362541,0.5287944581737634,0.4963059877100796,0.404606467485166,0.19703780585555222,-0.14263964454693093,-0.44235006067175037,-0.5942632357677027,-0.640608196193907,-0.6190388013405497,-0.5206978292184898,-0.3355784540959487,-0.13204350792243438,0.009833676394928192,0.08984304736153294,0.133788622331378,0.15119064959476988,0.14607151124401177,0.10984497918206869,0.028571269129980578,-0.1055695870335321,-0.27084045088474384,-0.4176481959906567,-0.488200988133484,-0.43270434572483596,-0.19097765785722712,0.1374320885657975,0.350004815058376,0.45949926697437554,0.5310152791535565,0.5918238832490222,0.6259792096292505,0.5941177052827928,0.49693355491546154,0.40107366187801297,0.3517319803647501,0.35520371448810545,0.40054280167402834,0.4645878261543117,0.5164984151357049,0.5421972153524702,0.5399287980970381,0.5085112800891636,0.4382611323296895,0.3342926427456094,0.24009142821191465,0.20993749537599968,0.2640625193671929,0.37793908663926845,0.48630909338245853,0.5581374757936771,0.5987536964828758,0.6083433408918156,0.5707454438288924,0.47944774665975703,0.36571607613664053,0.2825135842985613,0.2596022385574983,0.2945984994635826,0.3374006301829147,0.34918832343418615,0.3263823691952335,0.2638321942312538,0.15885086182372135,0.024766840369332212,-0.09419964136534989,-0.16196161758939545,-0.16549100937690264,-0.11172995409431306,-0.007340905775191123,0.15120208143611027,0.30572496401009647,0.33419755195929335,0.25322574281023474,0.0940493824031831,-0.15266527500273422,-0.4566532391202368,-0.6772876090196109,-0.7757800283104875,-0.8153639653752699,-0.8128189129983576,-0.7614087678928992,-0.6950241534047293,-0.6477420104335899,-0.6149840154833006,-0.5755671808817424,-0.5226612363520021,-0.46827490154309237,-0.4272633133491262,-0.40705961329583484,-0.4151401075942139,-0.45844731981023046,-0.5403539482307611,-0.6397720105666982,-0.7195252504806284,-0.7649450365039973,-0.7714581338361947,-0.7218095985167329,-0.5730698483911544,-0.2595990930255595,0.11364195254972731,0.3372379233887917,0.43221747015787415,0.4765641025108643,0.5128277490985503,0.5541889540856586,0.593262567950845,0.6134722306075728,0.5995608092319694,0.5307994302108516,0.3752789321846546,0.08286504388097732,-0.23699826694947973,-0.3746701658075078,-0.3278968393004988,-0.11566346821696849,0.197967388269383,0.4450382692533172,0.5543970486694332,0.5524360850604276,0.4682126453009135,0.346910948757086,0.23946737363797932,0.17243525050429592,0.14881386951804282,0.16602140976568647,0.2101601518105164,0.25049552043497564,0.2590979239526299,0.21960835806532492,0.14315787311080433,0.06261782926252506,0.006869755987692216,-0.008988526755506166,0.02654463117731649,0.10938778592068996,0.20301640352304307,0.2606968413111271,0.2695038606027123,0.24921133050456756,0.2256664656097093,0.20764008476221543,0.18376348523268543,0.1341301192187337,0.052588339148589666,-0.04603664197706405,-0.12259413354165354,-0.144495668551398,-0.09227862933077924,0.024650792305683546,0.1467810632543467,0.21168456944888475,0.21187313821542827,0.162004646434596,0.08916351185375192,0.029472141465989633,0.01153700351688461,0.03522990279377849,0.08055098062955092,0.1196443614793423,0.1246929380159558,0.07882862677870994,-0.005246122651739871,-0.08183543317628533,-0.08589077284154299,0.012477353029802046,0.16615573145671297,0.2858011758013283,0.3289454657089105,0.3087176427310564,0.25406522194117226,0.18904247607095184,0.1421404200784903,0.13227702379207218,0.1490760924272767,0.16790713857653058,0.18047734939994073,0.18795396580657606,0.19043608278164162,0.16463332737360425,0.08589357169943415,-0.03959403759058878,-0.17606224024400421,-0.29954798490580914,-0.39186774523411666,-0.43145631547443547,-0.414812703569333,-0.35345293879834594,-0.2817213261573748,-0.21627027478800187,-0.1588809160991105,-0.1041865886814858,-0.06518117387129928,-0.05625699100828793,-0.06815745460516222,-0.0424149997474959,0.042235186142823795,0.15440592713036433,0.2492577254427945,0.3019409496351214,0.29239863782677933,0.19155025284190874,0.016855821538387585,-0.14736680382344286,-0.22966089457640265,-0.23638824611819065,-0.2112940246619005,-0.20775190098132315,-0.24531670755594143,-0.3029081019247837,-0.3562303596762252,-0.4013128054980641,-0.4341707049477966,-0.4452250429854027,-0.4246473942641762,-0.38407533313673836,-0.3438321052572744,-0.3204548914409526,-0.3107494037642359,-0.2938053989801551,-0.24300954502433703,-0.14168036578417725,-0.003098104291575403,0.14758737459171448,0.2895511112267021,0.41037972449496607,0.4907370397183192,0.4854857536020537,0.3756143628773043,0.24811891682584158,0.1637064720560676,0.10697659374948922,0.014788945053191716,-0.1870769238839543,-0.4343134860729856,-0.5628471091622006,-0.5688551475115917,-0.48054414901118153,-0.3071898372477024,-0.06682765289569538,0.16306980349554273,0.2887563862851868,0.3177447631827633,0.29335699630492984,0.25861187658896845,0.2449425912748717,0.25528083013476005,0.2573430792064645,0.22984594110976206,0.17941519545060386,0.127388182277115,0.08521833774923195,0.062325968980757825,0.0681802104795505,0.11820647003471921,0.2217030406127334,0.35587414323909133,0.45994540268215145,0.48570896192715807,0.4007598518518054,0.1891235772516142,-0.08125983329701127,-0.3414754861400419,-0.5625163776133352,-0.7035474185031293,-0.7535160093456379,-0.7080009335756684,-0.5055677684000621,-0.08056740194952354,0.30336805964291935,0.45283120055959086,0.42780053115629557,0.2840554819432642,0.10766485052042693,-0.03192386815607354,-0.1210044379632209,-0.16967308356126587,-0.17961301509307512,-0.16055304411429874,-0.1220513885789833,-0.09736011366392686,-0.10093841692200095,-0.1302663088264233,-0.17148818979936037,-0.21066520359027707,-0.22619848111873456,-0.19502309042063798,-0.11224671624082361,0.017955714799107667,0.17694794673972608,0.3152353928265847,0.40189687818124464,0.4199426249917534,0.3529306725798217,0.2079705769207972,0.05099023148246551,-0.05663058569826107,-0.0987311635963817,-0.06661415439246642,0.032056000919461376,0.1608744319850281,0.26949170806994166,0.34774986720508033,0.4217820322764732,0.5125519633958447,0.6094764919832217,0.6857660516997895,0.7204315328600323,0.6929432645917618,0.5811135279651857,0.3910935834233122,0.22769256091325255,0.16010814791960504,0.1698431936948679,0.21435827325991724,0.26945864676887055,0.31988613479094014,0.35561866054720237,0.36575068596861465,0.34558556498238574,0.2864670444887028,0.19886087109483022,0.1413721466447138,0.16131905555022888,0.2574275919550891,0.3778466995707904,0.4692633196688388,0.5087486040061273,0.5051365603087697,0.4677348921350739,0.3970400164683107,0.2841323382847632,0.12246164985802685,-0.046838923478081225,-0.16212834420882036,-0.21520530531044482,-0.22930708071222516,-0.2289261895642799,-0.2289476901166363,-0.24528595518510926,-0.2829800064022953,-0.32169721019002434,-0.33704258404709925,-0.33396468395203377,-0.33814792891940615,-0.36503408303489543,-0.41658987551560156,-0.47719636942247756,-0.5327644849646425,-0.5724503056357941,-0.5965119303807919,-0.605656698007702,-0.5668553049295995,-0.443836113806524,-0.3089702139428719,-0.21881401906199344,-0.14792391097577579,-0.053078047712090286,0.07549323296142653,0.21520089530127814,0.32403998511685833,0.37500909708034974,0.3709222627967279,0.31812486824828623,0.21069744649761574,0.07217540098046896,-0.027178661735085447,-0.023358629385821016,0.13335223332278232,0.41776004010233564,0.6399610456690821,0.7382034624916131,0.763946684930848,0.737761392467758,0.6422924909266815,0.4507164335915108,0.19384874275789185,-0.017593305433677705,-0.10950156943919184,-0.11804673122258755,-0.10183383629872862,-0.0883887964235212,-0.08802907750511609,-0.13484983777825776,-0.27796077721187107,-0.48987668987940974,-0.6533944528098532,-0.7098895714741745,-0.7142050507698162,-0.708266176421141,-0.705496106290748,-0.7053867114774884,-0.7012873494680841,-0.6737642873348254,-0.5552484523353463,-0.279528217491314,-0.03901699136405682,0.0696539658969758,0.10123887986654889,0.07464528327611437,-0.01679207046295893,-0.15879281740219997,-0.32347307402508146,-0.45813638113391053,-0.5287288165889991,-0.5357619051950155,-0.4896068682387244,-0.38065694738702527,-0.18677265978643626,0.05873020441607533,0.24305748917221284,0.34106574069694423,0.3834631105523779,0.3916734537517277,0.37658561357620884,0.34576727490338155,0.30858032796113416,0.28114572954105993,0.28673365719818206,0.33375273903128966,0.3951914620683154,0.44370647739965524,0.4747774808545773,0.5012261175071945,0.5313150610134495,0.566485372736321,0.6066177321318554,0.6510070406055545,0.6902414957928639,0.7108004098447824,0.6923480102385022,0.5924060941982559,0.34225809204161745,-0.022059727784737932,-0.31466561455799946,-0.47866434915950196,-0.5572527202682983,-0.5860251707313039,-0.5795280106823685,-0.5338846195516697,-0.4373424267432236,-0.30369986833708246,-0.17267347852964465,-0.05984450082024758,0.06721228035806186,0.21888441442494183,0.3581023446808262,0.4453324986010778,0.4786760544088758,0.4522014788017224,0.33424305249351316,0.12517119650805325,-0.060551616314105806,-0.13758294611034788,-0.11583025663577576,-0.027905339501460118,0.0703804363676806,0.1268540379202367,0.13427539584830073,0.11422239519000929,0.09788402877000459,0.1019666899561984,0.12539674553267743,0.16253087121796575,0.1999793429229407,0.22061199307497784,0.19344376205895145,0.09249345166218374,-0.016085812362032218,-0.046698490867289125,-0.0028893301939544405,0.08694323197999282,0.1989681567812735,0.31406090995458175,0.4108838846889179,0.4609126984237738,0.4371683721202008,0.34645558038114643,0.26230945379289117,0.21770416372670684,0.1782675597671896,0.11264549755078423,0.037087956210365806,-0.02094068235662499,-0.05071976302451522,-0.06268015311310786,-0.08359004786489256,-0.13673742197069472,-0.21695809845084524,-0.2998434575086956,-0.3589386122872129,-0.3772518341646711,-0.35261410753182054,-0.29622699828858257,-0.19194033002826377,0.01523295772547508,0.30324252843959104,0.5223021355367401,0.642695746063695,0.6913144379787202,0.6928273963093907,0.6710446839021382,0.6461648068051593,0.6342827954800031,0.6339610813437164,0.6281684674677369,0.5895177503004008,0.4515829318589818,0.017410494525562096,-0.5562443032723198,-0.7415577915974865,-0.7762212468260667,-0.7728668452802805,-0.758508904193692,-0.742558161963423,-0.725369142406836,-0.6997496401990945,-0.6481984504189106,-0.5443905745767063,-0.4107028894284494,-0.31619623182066287,-0.2863934215310995,-0.29817857900561473,-0.3252343573856816,-0.3481662120953034,-0.3503320404797696,-0.31381492619156326,-0.233422179622267,-0.13421557745291463,-0.06933791362577957,-0.07106014679826192,-0.12673621871696608,-0.2095156594772793,-0.2970076282227997,-0.3701886836536379,-0.42886470284275446,-0.4779749918316033,-0.5173802810930742,-0.5400339347355518,-0.530476923122946,-0.4777655283159663,-0.38748401392013837,-0.2864837689677944,-0.18152502417354865,-0.06354147628963812,0.06690050260900124,0.2009646603670971,0.32269993556407106,0.4220292873278791,0.48883336590151083,0.5391817056276533,0.5754278824422071,0.5947753114808165,0.6117123835241114,0.6482567804731517,0.6992860287718738,0.7342050442828181,0.7398004742993053,0.7320227010455285,0.7256947268193632,0.7242604687638662,0.7269299598267613,0.7293256532139205,0.7223020013672773,0.6873469272670091,0.6229328580946739,0.5489606019143334,0.476928160126188,0.39933455875588814,0.3082798453849612,0.1897942315595409,0.001761231272575248,-0.27978751696759285,-0.5456632583105913,-0.6831760313551778,-0.6929322485602374,-0.5789647585915294,-0.3204942306075088,-0.014781142356779683,0.17536942703508318,0.24066225573322012,0.23411040581588535,0.1844388350548184,0.09404587014284999,-0.039023147600541014,-0.18850730769800939,-0.3056995850839955,-0.37401865223667174,-0.40562480314279586,-0.40935339895832007,-0.38889521089866363,-0.34535229936644385,-0.29019182381531167,-0.24110567829085844,-0.21219893476626217,-0.2021839933140692,-0.19413639083015888,-0.15944061740931037,-0.06666228960635313,0.07733411561020898,0.20750483773867437,0.2911392772686229,0.3288194949633234,0.32796032723437984,0.2870864259535526,0.21076940587362322,0.12725753869383916,0.06703719377341191,0.04459650717698797,0.04085203452178082,0.043888102911528,0.05268435897238604,0.07465302052221487,0.10016559239000844,0.12768502796462558,0.14495586136368102,0.13805569577336563,0.09519078734754204,0.0265855093528637,-0.028718008981362605,-0.0461295771422111,-0.03756518099524789,-0.034732293517783,-0.04848014927493926,-0.07100981992788814,-0.08819582674273321,-0.10849843793530331,-0.13819450580597087,-0.18694931809979787,-0.2595486336137371,-0.35711784459579676,-0.46352611437049973,-0.5385984682183669,-0.565702837201898,-0.5497019470603614,-0.5001096294284345,-0.4092635073724439,-0.26459661461067846,-0.06523388664373003,0.15368039106442047,0.32646994464399,0.426856798281733,0.4530939413204933,0.38737059863288775,0.2500728727741681,0.110377059367858,0.014021226413463194,-0.02839118817743419,-0.03955927435239607,-0.06026321246553093,-0.08871141772964769,-0.10522451753944868,-0.10016339478411995,-0.06907141836715958,-0.011641961516478882,0.06739771676101085,0.16073939715158092,0.254632926144591,0.31808128171618977,0.3437330867527842,0.3494185136693636,0.3386019812338982,0.3138809458103699,0.27477225359860313,0.21666790345447193,0.12950990775428842,0.023582247978953023,-0.06453860993445366,-0.11300848175494553,-0.1364789007159604,-0.15128883372524746,-0.14419931865539104,-0.08834265371837793,-0.01175567463081689,0.023739571907585282,0.004451993224678002,-0.04983403215588855,-0.10584655569131997,-0.12554546032665512,-0.09182506066711953,-0.00563118093698811,0.10315983987234982,0.19743841775780102,0.2645439555122036,0.31679048882510985,0.3640700496353252,0.41969071947677505,0.4850431654386275,0.5477017103205213,0.5922276284631864,0.6042350571594993,0.5634312442567223,0.4613611845385917,0.3300055251329044,0.2267031872124751,0.18656651045567887,0.23293815705375104,0.35212373618109605,0.47093284314128886,0.5360245023124512,0.5508859885366741,0.5349110038781651,0.48572488203662295,0.38171837931921826,0.25125470640167674,0.12024590390104868,-0.03829271158938047,-0.23725112245147031,-0.4263857140167832,-0.5712008502863286,-0.6657401193271731,-0.6986562391517739,-0.6381980354601079,-0.4791162965398186,-0.3507662771626183,-0.38505484789098304,-0.5286027048504034,-0.6192179762140166,-0.6559741618780788,-0.6806077461915374,-0.7017453923584619,-0.7162580502762943,-0.7104942541702989,-0.6373229352107594,-0.3754614687060617,0.07060225211066587,0.3595891028804255,0.4405857281360258,0.40658262913517756,0.30831615470817064,0.1751143429013114,0.038457974530218375,-0.06865817878254891,-0.11829850193632743,-0.0867375532568779,0.04907967787307718,0.23176405931205454,0.3441300099968298,0.3656323709785468,0.33772245247873817,0.29797353531439036,0.27650762718761696,0.29032578069242265,0.33449396600833786,0.3854853786144776,0.42313252075834,0.4346322324803219,0.41259003835467345,0.3467408228830701,0.21105882882408486,0.017896107859789675,-0.13112860773768634,-0.1771684170315019,-0.14924249810184387,-0.0820455552269559,-0.004600663212170388,0.08722399585282924,0.21242097644495955,0.3577605407539986,0.4766570113047728,0.5384823543368529,0.545637963642349,0.5052496723921813,0.4278328448559393,0.3387594907963627,0.2760591314358252,0.24812462277163425,0.24235016034284998,0.24411890958138868,0.2574185179161455,0.2907661592719245,0.3382898740395447,0.37140977958186827,0.3393658088336843,0.20597052297864502,0.03703803274413345,-0.09276525857665953,-0.18586163704869457,-0.2603681067220473,-0.31950986294613526,-0.34723445913336354,-0.32057534419940487,-0.24783492166188537,-0.158172793186681,-0.0721558005991705,0.006280887949750281,0.06811376760448942,0.1053800958035064,0.1091018306517143,0.07253285763001593,-0.01209063376100669,-0.13199487212196825,-0.25041980397965524,-0.3337651451434317,-0.3595480341525806,-0.3374971484138073,-0.2898783462279022,-0.23769783387941906,-0.1957834362961411,-0.1542166811856667,-0.0867018529117772,0.004149761857480299,0.09981064333950779,0.19687888562491332,0.2920459922675514,0.37272013947408233,0.43178043557699647,0.47859570925246725,0.5189051594860539,0.5459555705923663,0.5432825956341603,0.49909924969920394,0.4280078675610895,0.3771879984082216,0.3757873394417066,0.40971137520984624,0.4571510808611293,0.4931380862598157,0.4783648357815325,0.3616247088053425,0.1118750133614707,-0.18977738328064475,-0.4227415513383382,-0.5745435506257978,-0.6704594403058131,-0.7302941224955851,-0.7664105539233608,-0.7865537053410647,-0.7972864378552441,-0.8048683866735896,-0.809609685635453,-0.8069844503866255,-0.788434051767985,-0.7360984612624197,-0.6164026444081246,-0.4073048866111558,-0.16626851357017783,0.015067789975899425,0.11765413833498342,0.14900912134044453,0.1161130006806026,0.0420824932377037,-0.03482601639083657,-0.0783773817224577,-0.07336226044085334,-0.02975093597124551,0.029742918124585332,0.08565007710967848,0.1314909934798565,0.16508199337452686,0.1914867008618715,0.2157656584109382,0.24140994686905182,0.269190388892355,0.2972698183399616,0.32477425328363846,0.3579569040987267,0.39480836103499034,0.42199572978055655,0.4125264517897531,0.33701319411658165,0.20696491315964272,0.06054150214924353,-0.07147797651490415,-0.1562061182733035,-0.15993415325518212,-0.08113261530946207,0.045444528720871444,0.15715627993682596,0.214257965081067,0.21379227326793585,0.1679434725246356,0.08462344290952953,-0.03566173698271571,-0.1885382985901843,-0.3422967084433994,-0.4857615472298249,-0.5947413381873733,-0.6227614446525188,-0.5151454995185459,-0.20939599066072515,0.24400329377051017,0.5658090523498701,0.7074652013673584,0.7568626884300267,0.764596969324063,0.7506578075134648,0.718255062486131,0.6552971034958853,0.547430305469279,0.418153749982833,0.33773222942526987,0.3400220786491467,0.3925041871464271,0.4524378693728003,0.48783599634900604,0.4722756091790797,0.380686465873361,0.22874313913258643,0.09239945097551379,0.039996081761134505,0.06669688023210278,0.13184549984497076,0.18180970873446686,0.16532539763124837,0.04313974360398454,-0.1606813704497774,-0.31672913341943326,-0.40059399260213213,-0.48943491545137197,-0.6339600270008466,-0.8020841645293876,-0.8833707719845366,-0.8930785976592664,-0.878563440459422,-0.8535241862512202,-0.8146550517457911,-0.7442965707811888,-0.6072140437890834,-0.34595744945959717,-0.0013043600110416804,0.23732282210666686,0.34083430648344465,0.38625606543497915,0.4214683343637905,0.45841753866577484,0.4764016487820843,0.4320246194605081,0.32215753373000455,0.20906864348309348,0.1416806608803841,0.12977385319917667,0.1642577395413153,0.22671712278639644,0.30228692776491467,0.38316453065128203,0.4661060503099459,0.5384176134993061,0.5715752631262236,0.5217771518414518,0.34418474577540126,0.09760613821114641,-0.07574862508890588,-0.13835049833314175,-0.10805318614357201,-0.029654662985661155,0.03838081156668272,0.047685864078332064,-0.004958047893124739,-0.07859070441296057,-0.12585416291342869,-0.12520567133238342,-0.06853431286693905,0.006986953446904916,0.059558317545968575,0.08086996782910501,0.08159856898587399,0.08378769776363791,0.10511264052267558,0.136553903913671,0.17014361744474274,0.20468208441565208,0.23707883552403275,0.262969661961084,0.28399243955196624,0.2933916407126123,0.28688254242803823,0.2631077149003013,0.22008307196880103,0.16121075079605238,0.09955584770515578,0.04504417610102694,0.004015046077190307,-0.010248137407640592,0.020815615484372142,0.09718627057141029,0.19489339401596903,0.2887518122115912,0.35739254791605957,0.3853142741275926,0.3838991540423197,0.3720469042191927,0.36863888967751546,0.3766180624007038,0.3758876224650518,0.3206809809445379,0.14437704835432882,-0.19517069280227445,-0.4948717335736704,-0.6003230213367199,-0.5922116422464709,-0.5252968532036669,-0.4164350296570449,-0.2962829837202936,-0.23742642823694876,-0.2543817954217299,-0.2951774078435023,-0.29889227378208727,-0.22586096566699992,-0.022533873586337638,0.22421625246154536,0.36716728417968464,0.4436620973506548,0.49043869269848583,0.5104344419070047,0.4856665999223158,0.3565958628222031,0.08694468079123753,-0.18574591158093828,-0.3491768642173562,-0.42800748974470554,-0.4696916732379749,-0.5010220011370656,-0.5270707113668561,-0.5411442057867064,-0.5450376044342232,-0.5336367350135739,-0.4940317849856286,-0.41381985656599796,-0.3040271191207305,-0.2060456783148945,-0.15425030762313957,-0.1536690753379436,-0.18668815178445466,-0.2241973494246007,-0.22999715418762182,-0.16209711950167324,0.00939502471045119,0.25040215518134895,0.4451673540871181,0.512335239121776,0.4351476540024018,0.23345599015003746,0.029964236722670366,-0.05881472942721887,-0.02591337261538616,0.10773962664080697,0.30157114846864363,0.4664962255424839,0.5498820143886183,0.5607592066433568,0.5275040580675452,0.46670692425426913,0.39090063405440173,0.30217803044869135,0.20135654650293594,0.08304902731072981,-0.05808302954360839,-0.21146953757692796,-0.3365171950917683,-0.40302520825739613,-0.3911214307293536,-0.29285128967873675,-0.11668312732655153,0.08961406807077976,0.2685576722028928,0.3894457924351114,0.4539442729631247,0.47349842550953625,0.4458216866041078,0.3643423437026483,0.24185570021669298,0.10194771828743326,-0.03497435047080291,-0.16533250617410125,-0.29217987538689844,-0.4020408077154958,-0.46874792969382706,-0.4877989372654346,-0.4736754593206442,-0.4368099435311079,-0.3852210993619329,-0.3383353614972594,-0.3242546078711484,-0.339541413261078,-0.34599153073852257,-0.28779922824806814,-0.1276261779227996,0.08738455978056935,0.2703142741592168,0.3602200476808491,0.312191800525118,0.14573239716964614,-0.052895423901033606,-0.20441512065795567,-0.2839903409924577,-0.30441813547456237,-0.2900620403778451,-0.2539232803504243,-0.19420504042779727,-0.11769858584381233,-0.036344228237177034,0.04105036805414084,0.11495915160813051,0.17220075980035127,0.20786106160391732,0.22413462070782889,0.23032948844137746,0.23136967353428162,0.234135910654549,0.2456131111102436,0.28814226019173034,0.37879896679037395,0.5009268444459211,0.5986331684111877,0.6249602375310189,0.5696259813002768,0.43455915738040285,0.22438481885495135,0.0009961689041982412,-0.148359740950233,-0.20140557865905684,-0.17403463995580953,-0.08500141498708395,0.01977033119428473,0.08529171205948619,0.08658228763318897,0.04859290959615064,0.009044542088735754,-0.008477649287837894,0.015907105599211453,0.08535452560054227,0.1765500751664979,0.26432066709118185,0.3371521209350908,0.4001408273545417,0.4605959749483294,0.5193117310211967,0.5728872083714452,0.6134402635164073,0.6390372478719489,0.6472653035538829,0.6306687044337925,0.5752498847990907,0.4602801595153316,0.288101536711015,0.1006319490347511,-0.06445061931700552,-0.20433992188269887,-0.3254916465673231,-0.42535110729506276,-0.4968808725517892,-0.5382663471334038,-0.5487233531984803,-0.5258538874203962,-0.4829713669915748,-0.46182554698510414,-0.5059858491950032,-0.5978520926611178,-0.6845876547107382,-0.7269601684149329,-0.714145792760107,-0.6501617695068663,-0.5601072356800548,-0.4756195431282346,-0.40192696513041015,-0.3256502030996568,-0.2040421403067243,-0.006026051291794967,0.17546609618047643,0.2789918615228191,0.3253961998343298,0.31445950632500597,0.21604068072574936,0.057094705080873144,-0.013310398029112571,-0.009317944436381533,0.014472983741571592,0.03757974188577709,0.0603164934815268,0.08963909299295503,0.12357247567129587,0.14995720161416407,0.14915054598605093,0.11376875924987585,0.056741426425647265,-0.0016092246107749296,-0.04292828834149564,-0.06437857394628181,-0.060461719574336444,-0.04128222772121776,-0.016209080702791222,0.007310227942847294,0.008376375128059724,-0.02629516071676549,-0.08131367211075799,-0.14723990444931165,-0.20371919911068773,-0.2152710366222752,-0.14877364087931844,0.03398766254891662,0.28986087964918583,0.4723344588134902,0.55692189848491,0.5904930274810621,0.5949737420656116,0.5777505411393643,0.5421861927522913,0.4817982381522394,0.39103565338448465,0.2802799013082847,0.18475981949884257,0.136877149212023,0.1476721067343849,0.20562809860032702,0.27766058065734417,0.33285920509754213,0.34529822023639256,0.28791325731984835,0.12062100362262736,-0.14898810281984062,-0.4075931238078635,-0.5886449517760985,-0.6836646053866866,-0.6761351464662428,-0.5674879319671301,-0.40636103885883074,-0.24873221767462503,-0.1440512475828015,-0.12731752162271887,-0.19820272224725427,-0.30825184829413316,-0.3600875572563688,-0.30535434507728604,-0.18683886075567535,-0.05907131495321755,0.06095089514981943,0.17644360181147967,0.2806405995724324,0.3305985182124898,0.20026091343943195,-0.34800874555142974,-0.7371167922958723,-0.8356203004037583,-0.8599675221368612,-0.8442107092240323,-0.7552725284870255,-0.5029182094050715,-0.1250127396168253,0.1330153474966371,0.24136125147261986,0.2845182791477893,0.3227443327853425,0.36561722593470225,0.39783582849500526,0.39893245146271966,0.3695838700904447,0.32955920946247275,0.3009911660651117,0.2891692793320334,0.2828118552123449,0.2622871288591298,0.21354764319669092,0.14481842101139453,0.07899028772646853,0.03767209045837504,0.031787049653422834,0.06836649408150625,0.14415699322023356,0.234357095049635,0.28502948770455444,0.24796252945454783,0.14023479047956622,0.0393231842448269,-0.023107854503621142,-0.01836170807931592,0.08517966498041338,0.28320837964065454,0.42926451997444637,0.4607692533944707,0.4269376631295936,0.3694992246194266,0.30372857913627715,0.24952260493076214,0.21534111770766026,0.19992649949299307,0.21234171568438753,0.27881859810624554,0.4168831786787828,0.5605888492486482,0.6458851241134778,0.677722316250184,0.6686177654025062,0.6133028552318678,0.5105080756141264,0.38349975305196193,0.27320858559147354,0.20297496774733498,0.17327910811227892,0.16554847462279332,0.15159307933672547,0.12630119409138002,0.09772691951296901,0.075160335920333,0.06616710934432503,0.07837843611568399,0.11846404218270702,0.19045631070746386,0.2794859450113935,0.3652472081347324,0.4283753196128688,0.4586230841281766,0.4432459400689047,0.3508818304940408,0.06057418995766003,-0.4761172888673091,-0.7370801374835657,-0.8076468390592777,-0.8439624766607882,-0.8729159025896825,-0.8912252476581873,-0.8885853915767818,-0.8529220982392023,-0.7758858161995038,-0.6825081925357765,-0.6050712725901425,-0.5593830011152044,-0.5429858759606112,-0.5289864525663119,-0.49242368278367143,-0.4251540427663018,-0.33211266116620414,-0.22058671592600096,-0.09549903756589279,0.02984568881963108,0.11459212963399301,0.13990102982077626,0.10871992412537575,0.03817839460760669,-0.03829349787731748,-0.09742221339590114,-0.1309586230949526,-0.14122930627438735,-0.13230098538492116,-0.10076408857443321,-0.039201506575423775,0.07057988569370381,0.2226905944868987,0.3742849993025216,0.4818718272949729,0.5325927844395234,0.5428329215102787,0.5528763931235032,0.5891149459916933,0.6387932186204881,0.6799515829682372,0.6972634869636738,0.675928530531768,0.5740179694488561,0.3507538361935163,0.07441125580523371,-0.12054747554712317,-0.19285554545223924,-0.15423902922722452,-0.06853157201617228,-0.027707879500201937,-0.06890410030103827,-0.21905085845881037,-0.4637424356768412,-0.6823521465857731,-0.7972340592568594,-0.8282766492520579,-0.8032189626580744,-0.7454834964013373,-0.6662928790483024,-0.5734347009344775,-0.48150575451210564,-0.39575698920452357,-0.3050877168768123,-0.19583230596212853,-0.06401862706731543,0.07438822774852585,0.20242978745824677,0.30996312673957815,0.3954914035595133,0.4642023962685812,0.5164866712170372,0.5367981890707005,0.4814509338439299,0.28081544818021925,-0.06982537067837477,-0.37028034722477415,-0.5117251891876734,-0.528809413498763,-0.44340879290462953,-0.2611423139701022,-0.015936472411631715,0.21506235456559172,0.386303397358424,0.5133249057734033,0.6196303246698102,0.7202479496816646,0.8128703739079103,0.8846504187264116,0.9208301576597033,0.9276287757537461,0.9324073864542811,0.9415349192435236,0.9142135554531965,0.72661841590828,0.23578533527811604,-0.26141803631580524,-0.5238837897586275,-0.640275179777665,-0.6853454364923965,-0.6985275213827671,-0.6992026046683043,-0.6914519093741042,-0.6713361348191466,-0.6259233479519224,-0.5450285314025788,-0.43479143529213965,-0.3185639627926251,-0.21073022349929663,-0.10398671146007163,0.008907171027936369,0.11338686741704763,0.18709693368044794,0.2191141938958563,0.21112215252182584,0.1774697070509332,0.14003192785324733,0.11538459276045204,0.11764939091292285,0.1461613264798645,0.20048765041882768,0.2744666396008396,0.34930770882140694,0.396811468350614,0.4159767258961078,0.40864710372178675,0.3686891336427519,0.26823368685175897,0.10995152615624953,-0.03746284913956278,-0.11301693512688206,-0.12273304693172793,-0.07138551917822256,0.030334112313627325,0.17321197383400627,0.32177238365756433,0.414436788308019,0.4482024313805844,0.44576698510933266,0.4208767540185531,0.3795293087616271,0.34382825730978034,0.3277141550817742,0.3162377909812169,0.30084313949693814,0.2863988769270304,0.293968667643154,0.32831805646642886,0.37470467804978813,0.4169590585391543,0.43522079594720814,0.42312026726345026,0.3945319702954971,0.36128174763370563,0.315890725964222,0.22993001345099304,0.09566627677823455,-0.07349121048428395,-0.26165025818393195,-0.4420157511387403,-0.5875273655689471,-0.6824596789163886,-0.7241726119063914,-0.7184396102655828,-0.668714895604814,-0.5759437519099555,-0.4411760573949761,-0.28219615381114194,-0.12226840257355578,0.007350455810486842,0.07610442900639339,0.06260773206341178,-0.04141750736895711,-0.21420833712213982,-0.37483208810715163,-0.44725721085807324,-0.44007060808258885,-0.39956023195999985,-0.34359510672952603,-0.2706715616089391,-0.18333964145608717,-0.10286668523768064,-0.04696795647198609,-0.01892312356044459,-0.007306876366896572,-0.00535952596837789,-0.015339384020813869,-0.04600589711749132,-0.08783952857867781,-0.10491213322784138,-0.04913789631692883,0.13695949475452102,0.3853028581250618,0.5596483796113025,0.6624544967947008,0.7038898027088171,0.6305632085662575,0.4030614954603096,0.17128055989802327,0.021840442047200925,-0.07096129672504457,-0.12591746619459657,-0.1203104108064271,0.013757861208410023,0.30694123319821676,0.5291536828973212,0.5998125397399019,0.5709262788947662,0.4559234311857137,0.25787871524718764,0.012700957759159243,-0.20780448370482035,-0.37180657327981304,-0.4894177983428436,-0.5795814496695635,-0.6390792416432748,-0.6577528118451923,-0.6510880161766637,-0.6275399197941333,-0.5742453851742275,-0.47307794710943646,-0.33941928244303887,-0.21042265602907978,-0.1031400937652769,-0.015813417040816045,0.04953743728916418,0.08467175547757741,0.09561942459169925,0.09565060012604404,0.1092153230968528,0.1574729227636561,0.23594974172131147,0.3118873364672222,0.3523620901396974,0.3570789700350535,0.3533512500314982,0.3567305142474146,0.36418931131227933,0.3616712125218755,0.3318737006616255,0.2723883879339513,0.18169879031178301,0.07897438833373881,-0.0025683547593619563,-0.041331824127381074,-0.0406154830123373,-0.005281014139006384,0.047675765192488444,0.1255073949026938,0.2110955856157486,0.2711135861647537,0.2580379803306093,0.0702720844945622,-0.35080207442543654,-0.654357685421843,-0.7097681962818019,-0.6511244705966018,-0.5317080104181711,-0.39385638281575336,-0.27019067148526066,-0.17209569520871426,-0.08850410735170024,-0.0033216877583162785,0.08817797357915899,0.17215076313974065,0.22310753790467433,0.22915862504159842,0.2012926444547704,0.16971243109342254,0.16877102356376658,0.19523142577423158,0.205283864682627,0.15113764283095715,0.02831810264556987,-0.1175082396390959,-0.22598326716740888,-0.2708336843494771,-0.24889863780886065,-0.15258261477799864,0.05498475623505706,0.3747103849725277,0.6075151115012019,0.6703057711990286,0.6636564402056475,0.6235997314142129,0.5523168949273051,0.46300606163172586,0.4017693882921369,0.4018194407952858,0.4395481470253648,0.45329282545235106,0.35810053638680517,0.041768434964570174,-0.41566463224280664,-0.6667749530602474,-0.7515200440145867,-0.7625279620778543,-0.7108142072850522,-0.5866963837264517,-0.3982292990035947,-0.19734824556734462,-0.03937863435253088,0.06525537768420268,0.13918592440294186,0.20203623578114208,0.2596322799058468,0.31150940214058775,0.3540854291528647,0.3868460628582965,0.41156800247400804,0.43674902798894644,0.46485245134766434,0.48737405498768593,0.4919048872619787,0.4688761105560447,0.4154119462402308,0.3276730935233413,0.19692078773390337,0.03641142415372354,-0.07721516758423763,-0.06687515511783651,0.07996416840923261,0.3565657215701739,0.6250989631543443,0.7284432078668747,0.7200059872112329,0.6559906543054552,0.5310148668422758,0.2740669396399509,-0.14841091840242887,-0.49682826624976356,-0.6485732898591806,-0.6800717145651255,-0.6312031940479769,-0.49917602969937475,-0.28914323087458127,-0.05538346403277291,0.1267671731717959,0.2197195004673166,0.21058070227399417,0.11735957554580177,-0.012142578386254661,-0.12341661774505712,-0.18867901413333285,-0.2084201430446121,-0.18881769124719275,-0.1308540587471092,-0.03063482645679794,0.08859561361812703,0.1413673236443201,0.06811295219947455,-0.1188707357549189,-0.35755261488180895,-0.5623626518370048,-0.6709331012552026,-0.6935803525643325,-0.6703979284973486,-0.6184592188719757,-0.5367880169583576,-0.4169249082558948,-0.2795097323899279,-0.1806968431638373,-0.15514801959308713,-0.17924358974164362,-0.19954987341908517,-0.15669896625303534,-0.021402953901843304,0.17867783506237722,0.3746018769300325,0.5225495279635385,0.6182164271637932,0.661038899043172,0.6390483253467851,0.5327053186432137,0.36226089395874556,0.1895959312390323,0.08020186495568034,0.05210568197145719,0.08615484265985178,0.1350023730285148,0.16733479152768158,0.1792439444134884,0.19079465161330245,0.22344339039983896,0.2917957397966565,0.38083811735677514,0.4550735721395204,0.4973405393260889,0.5099305139491719,0.5010076112329,0.4759463230874175,0.4316573792430323,0.3534096384920137,0.20228022353281738,-0.06575347191585337,-0.3667835703176941,-0.5495895468229487,-0.6179591582050027,-0.61279122352185,-0.5585860437349879,-0.4584134020667658,-0.3324301569893648,-0.23213443847167234,-0.21042043195796872,-0.28955578246770536,-0.42203036780462244,-0.5314749618180171,-0.5803030089093785,-0.5842859024589562,-0.5774081567170495,-0.5769997410038001,-0.5768959068405384,-0.5637968792977467,-0.5374784005626589,-0.50087164416626,-0.4428391923898719,-0.3445047552899732,-0.18843030878602593,0.010738781370604822,0.18960560264437154,0.300943854702789,0.34214909223660334,0.3236741431878154,0.24940402498892564,0.1488552822698871,0.06145647597036198,0.01480567954437868,0.022148155909973873,0.07232019326521845,0.13764824824798264,0.19599685760873725,0.2344394095113235,0.23067155039084428,0.09326074424623211,-0.11922459633865629,-0.2041439882697518,-0.23162991017570195,-0.2581401321223208,-0.28987417956125466,-0.3214305920298347,-0.34192176652727935,-0.33295707193772883,-0.2765098306597131,-0.16369458750197727,0.02484585448667257,0.25025020237661655,0.3995765826739006,0.45850329329132206,0.4729523007861339,0.4712019519845398,0.4645720375415664,0.4463639474915086,0.3944530941923884,0.2640040394214055,0.0007408057445957221,-0.3521101156468181,-0.6145206612065294,-0.7492572206046229,-0.8171412003354298,-0.8209818300236967,-0.6736823713585686,-0.386532929546566,-0.13228386988909807,0.01927743382977524,0.08069327760934511,0.08155882895456529,0.0539959316603018,0.020545870229423405,-0.013457013855738553,-0.04533558479238341,-0.0645682406248519,-0.05443544621320089,-0.0131620625683278,0.05187644987130372,0.1361940203229045,0.23225355454216434,0.32208188921544506,0.3835429436625447,0.40425504460563044,0.3933113766950244,0.3688880945965419,0.3474985571606187,0.34558143979274103,0.3878272210758514,0.49497328636521787,0.629209992135475,0.7250344780780981,0.7511467972853586,0.6950827635018427,0.5150382251345269,0.20859110971488834,-0.13029026691465137,-0.40630064172681885,-0.5657836342533263,-0.6184652580495836,-0.5956821056837639,-0.5048459322862177,-0.3226541047762575,-0.060900860506346,0.16810652801129328,0.26631391073918664,0.2596609476495658,0.2075652966058157,0.15968713233152024,0.13245112038038495,0.12346242530712608,0.12414436500392265,0.11683134144519527,0.08883057986068933,0.037374276374675934,-0.023159374894155087,-0.06531186715752836,-0.06546414286988665,-0.011309754945101717,0.09373387128784468,0.223467331619753,0.34640755453860245,0.43280090768106033,0.46447675008118505,0.4240455187962526,0.2743308988225569,0.031815934751723944,-0.17094674257278009,-0.26523939948230874,-0.26173694799592007,-0.18370608142054792,-0.07350495321721935,0.007790877253787381,0.044214202715371506,0.04117298131464397,-0.005821567048580005,-0.0683398835513478,-0.09799299956166974,-0.0855957557523059,-0.035924462494330206,0.039530289936803596,0.13145811150201678,0.20613389843400695,0.24799146832817465,0.28157574898363397,0.316683425761709,0.34492851942328584,0.35191395067975245,0.3306113139524316,0.28026786906918083,0.20618023626961876,0.12627497913983485,0.061900493874919305,0.026532877390440614,0.016786720254996484,0.027684879864337923,0.055908546020273925,0.09694932499433463,0.12320425158979754,0.10841503278874644,0.039855158426615446,-0.07828304405870783,-0.19886389583100414,-0.2816803681347283,-0.29482675864633834,-0.2018003016862431,-0.015525078530895471,0.15652647713718862,0.20876033977641242,0.11863551788086024,-0.0554040063702676,-0.2350710509470919,-0.3704558733477172,-0.4514381797726649,-0.45338505638257237,-0.34578330387331835,-0.15171982568410697,0.01516018788547607,0.06711232108912138,-0.03305775787975744,-0.2695799219686291,-0.4953877351802209,-0.614550967253581,-0.6586498432289434,-0.6532044949999928,-0.602336433027765,-0.5073181914108212,-0.39701515391699593,-0.3457940962978974,-0.4225058063375574,-0.5548770245253485,-0.6073129626723583,-0.5838199598182626,-0.5235493714624821,-0.4302197324823982,-0.28973442596089133,-0.0975289632586973,0.12872045343784022,0.32794049157771804,0.44477556536038,0.5140104577745495,0.5880132010727742,0.68188888861484,0.7722401459535718,0.8344842194659056,0.8592603470231697,0.8441015972924636,0.7758647698548159,0.627481937912095,0.4067294126800124,0.22658207623654092,0.1748303348270716,0.22727412649261974,0.3224656459131601,0.4153230198983501,0.4880491595292806,0.535020460953113,0.5470183369108363,0.5089292698831489,0.40050511049075765,0.2099305266445496,-0.012786223798894509,-0.17802522457450745,-0.26018991118871904,-0.2816493256919625,-0.26364065421206734,-0.23611158141955102,-0.2100528259606249,-0.17435597627317684,-0.12598430281659967,-0.059506950870392414,0.022835478480962478,0.11415553549900298,0.2026472246229976,0.27099723096083217,0.2985071439451454,0.26088899818866274,0.1226240346946577,-0.1162839203333407,-0.3583739126653532,-0.4826917756645302,-0.44697014090802023,-0.32134096917946314,-0.19384101924187377,-0.11518872502259025,-0.107667413799685,-0.17161756147288054,-0.3062084270426679,-0.4764263827181175,-0.5655675601155908,-0.5683224655030917,-0.5471382648124126,-0.5102811837136257,-0.45732810863614076,-0.3955338685665943,-0.3380068659913054,-0.3155408306969357,-0.32039080705376644,-0.33178063209545183,-0.3187946910982631,-0.27077594298309515,-0.20038897705580622,-0.11508325747994677,-0.011306599256304591,0.11147139715436519,0.22540710802805364,0.3227088425407012,0.3808104819130065,0.3801380184678491,0.3171246555796148,0.20778043596933857,0.09917735008058441,0.03385017811608971,0.02702358946541137,0.09014741701382999,0.22205838160166333,0.3759196307277221,0.4690960826178392,0.4650820424270957,0.3988649608480403,0.3287155255908155,0.27170608561662746,0.21741671099705195,0.1628304443352689,0.10930665663076289,0.0758708351852781,0.08550604467972175,0.11816942353516498,0.13329629022248193,0.11867704316425814,0.09361589031216665,0.07847406615796608,0.07592232454582255,0.10297993493940995,0.1458533277174355,0.16136932838447574,0.11985454208865028,0.06036471071733879,0.023748252914606232,0.018692340793261007,0.0388432568080255,0.08338947947546226,0.14995994269841778,0.21459040288304765,0.2518572221592875,0.2598780236487061,0.24284168140750823,0.20773655291148538,0.1676282500582694,0.12784894027708651,0.09395125689876836,0.07810300727843271,0.08652674777804698,0.11264281219327398,0.13488583215275624,0.13573646816777019,0.10662734315237454,0.04857948761014352,-0.024027012010148827,-0.08885713948132914,-0.11583023730726495,-0.08699447636065508,-0.014619437079439282,0.06883354722290747,0.12818319060380015,0.15271793454274887,0.16565381684478941,0.20354905932419326,0.29007425669960396,0.4143073731453459,0.508079173196748,0.47556002295865485,0.191122597468036,-0.2762782483224774,-0.5490002276289008,-0.6612631310761827,-0.7113843465167055,-0.725572471579481,-0.708354238950805,-0.6742871500575476,-0.6262724819055824,-0.5325995411218469,-0.3318868019337833,-0.019528971811252842,0.22550072751518593,0.3193354890447468,0.32617220988851026,0.30005162557788295,0.2789783062508368,0.2938362896927196,0.34168954036082805,0.38351600000963126,0.38120637592512285,0.323826228037631,0.2222373080476378,0.10932543900583383,0.0238486017173102,-0.004880886038880163,0.04023649003361727,0.1432819140687609,0.2642386827797686,0.380753232486389,0.5227276131563963,0.6687555776025067,0.7470403563038862,0.76805124277079,0.7469282846258283,0.6811455398657155,0.5726240278924217,0.4324793966042564,0.25628049114245416,0.0032291529331646045,-0.33257903668497696,-0.6341291173037835,-0.7886574737513051,-0.8398559895922367,-0.8564130978936306,-0.8681323920283011,-0.8762211993586668,-0.8251865013071294,-0.5470573256542507,-0.12170883096571676,0.16614158754342756,0.30807760898202396,0.3429091009462411,0.3212890542934456,0.2971114022445165,0.29001804006167675,0.2925357874195986,0.28331502113864787,0.24819841947737933,0.1884243435573217,0.12474443126039626,0.08056892311849446,0.06823717235175002,0.08005788915901536,0.1028498212754349,0.12790156806641267,0.15033168198926886,0.15743712801188095,0.14508247554377457,0.12079141132035408,0.09128159764688211,0.049880593109213986,-0.01684710954900654,-0.10936119453638823,-0.19461067797473877,-0.2413158650194573,-0.23149316075630952,-0.16445914503862638,-0.025708242586961243,0.1670977804334922,0.2786592487516518,0.23681139887344918,0.09510713082853309,-0.06848456630359022,-0.12618771803072212,-0.08006261480983984,0.045756836475932344,0.21038404505470187,0.35566526379184515,0.44421936858166966,0.4737803936800105,0.4522414285621544,0.396273291802794,0.3161862702168232,0.22103773269420704,0.13056275197625866,0.056410556559094785,0.0016817122562221118,-0.03990925825227908,-0.07216826826216259,-0.10566739806053775,-0.16635718247248488,-0.29971374279336904,-0.5178500986423,-0.7177706940058267,-0.8104818426537181,-0.8307736391500931,-0.8044258311661951,-0.7109989948962858,-0.47515227238103785,-0.06407409496001802,0.2807050712488419,0.43861744144775794,0.4921149094522794,0.5078267960461048,0.5229097125611855,0.5468521807901372,0.5703248571931789,0.578950444740508,0.5816159517723809,0.5853314727683091,0.5794864457693424,0.5504177363520729,0.4993313221982967,0.43653403194305684,0.36112513703847715,0.2420521430355196,0.04204119517147239,-0.1583276254280282,-0.29063247518680047,-0.36093885170665224,-0.38172188815883173,-0.33754570174147186,-0.21017271516220687,-0.024131265554124523,0.1488249706036368,0.2612426299313634,0.31357588147130727,0.3268060221297053,0.3155992565160715,0.2882239593570413,0.24946061842537945,0.1944887317711709,0.12071139905852626,0.044493144608960145,-0.009801483353316697,-0.02207329028848612,0.0091067869482593,0.07338713521469094,0.16008023767672075,0.25912115403665187,0.35411224248699325,0.4239805565896849,0.44383908301828595,0.3993517555687441,0.2909148567636248,0.15053814242361352,0.04152211608919632,-0.018107516828156013,-0.05007734998959764,-0.09567392266959077,-0.18942622859686292,-0.27910791104098237,-0.32626200266163524,-0.34999216946761813,-0.3633337096482455,-0.3645523760991027,-0.3577432863153889,-0.3613915726067184,-0.3737426325260886,-0.38603974777783007,-0.3816814083470645,-0.3497822473309083,-0.287708750659977,-0.1948845445375989,-0.0846356004317567,0.0362785714928437,0.1548350601911329,0.23952666950534224,0.2717075727402931,0.25454851615981816,0.20686886470311952,0.1539746138888128,0.11441653532286777,0.0968521455587185,0.09638861732793617,0.10550688732557054,0.11970265382215797,0.14008893078376283,0.1753306726892381,0.23993906214450275,0.3440125445265538,0.48332497778233857,0.6190477664037348,0.699704624553803,0.7245488397964848,0.7118451458370446,0.6687252508147106,0.6028766079893483,0.5407085857190044,0.47993513832651374,0.38555762719231984,0.21544777161025092,-0.01056310702820977,-0.1978069223496066,-0.3118422089744924,-0.353950699283283,-0.2887476817741142,-0.0932941272201429,0.1044619329142042,0.2121672574983532,0.2414856329720198,0.20110430967619802,0.06588104727112895,-0.2186258713191387,-0.5636763270733046,-0.7413299953358982,-0.7762282690313188,-0.7617638627393181,-0.7248999787440439,-0.6619400188634463,-0.56800260361282,-0.4563020053567759,-0.3585923693931243,-0.2982922927064618,-0.28258721570707684,-0.30971225581282874,-0.3437960796661651,-0.32733258427456224,-0.23079536718933955,-0.06873196781959048,0.07923779354955784,0.15506034225723503,0.14684485896443672,0.07587960743573931,-0.015279109359754784,-0.08861033537183897,-0.128564246033221,-0.12479192114570169,-0.05462600540859523,0.08078695643044789,0.2134150710373602,0.286428575194282,0.2887053953982131,0.22270487862111024,0.1114827401134338,0.00053426976479986,-0.06578371135849484,-0.07173924290292025,-0.019393499325263776,0.07847571816116987,0.20128137194088208,0.3376851186268305,0.4744492547195505,0.5881819295315579,0.6650704764784843,0.7030488742646158,0.6784521722745196,0.5401443544445891,0.2828317524141259,0.05480332777786764,-0.05303965393291902,-0.06611341628866123,-0.026681790165106654,0.030582696043152065,0.0721069338918041,0.07661398649000827,0.06826556367367555,0.08282754504623194,0.14685953087595002,0.2687845141458436,0.4137340134633299,0.5404750902278582,0.6421136338517702,0.7086852839955856,0.7260497351362701,0.7012740887368512,0.6591380065988849,0.6165696781766168,0.5689985599535947,0.4910986609259692,0.2999015269151574,-0.14872548508880704,-0.530918115033412,-0.6658887106443494,-0.7198282672164398,-0.7440968652048662,-0.7095553554637278,-0.5157670848518933,-0.22699353282631987,-0.034073449171315426,0.05821334483843006,0.08762459117556466,0.08106883320132295,0.06224202611711256,0.051416488260008865,0.05187587576770502,0.06527211964570429,0.10691796626876154,0.17592324267588838,0.245410283966467,0.28866800460343506,0.2998450129080072,0.27943361287762747,0.24703418432268281,0.2285277443800628,0.23018452980022455,0.2411391784815365,0.25803598040962544,0.2757453927439204,0.293061876898866,0.3036222271237244,0.2944341686980125,0.2404142519008819,0.1038126184876107,-0.13490576027804685,-0.379337640220949,-0.545674546732869,-0.6531947438710131,-0.7335940061255143,-0.7982720768333391,-0.832267717688266,-0.8224872804256816,-0.7749901253443168,-0.7045175829338316,-0.622500372361668,-0.5337171402415478,-0.4433782808498681,-0.3459878441258728,-0.22365162278837647,-0.059561167593445305,0.13822650353096927,0.32625893451989557,0.4545275664800436,0.5197741889443847,0.5424227034075397,0.5259659479425545,0.47682376861013576,0.4154782068046415,0.3745353230898383,0.3669442165466393,0.3789646397046091,0.3947385782451802,0.4059730194897533,0.4077895602110464,0.37848541004108877,0.31364706240374784,0.21818322996294104,0.10779920125874914,0.004638945430209616,-0.06563976637983658,-0.08778753579353658,-0.05982045439357501,0.003249012800213991,0.0790253894212311,0.15171685108089236,0.23142049253941233,0.32424367597452114,0.4232779967689718,0.4938558955677379,0.5130809004410731,0.49968275393184136,0.4769189202679249,0.45629288280586666,0.45883335926400376,0.5184771261804063,0.6308951371506096,0.7320768570408115,0.782961116961846,0.795805159900312,0.7861747989959236,0.7577493375885843,0.7058806029652522,0.6105347743921704,0.4219383589742569,0.09969941097109324,-0.24746668839663127,-0.45603784613358045,-0.5280586290442356,-0.5304354385343992,-0.536558847609457,-0.6147907650460007,-0.7415555043690868,-0.800956747350459,-0.7754524447396827,-0.696650156888821,-0.5743858764925603,-0.42389679437956856,-0.27942360142560896,-0.1717091742497219,-0.1131629797286845,-0.11030009581503866,-0.15556304957470418,-0.2265920934404841,-0.31118861404864556,-0.41212632498388485,-0.5235842080087892,-0.6208881622597855,-0.6809468335121538,-0.686262014070001,-0.643134559191227,-0.5766228122598509,-0.5245676173129982,-0.5157601363607361,-0.5411704406713309,-0.5679156474370158,-0.5603514950994413,-0.4784411094492228,-0.29702881372072926,-0.050707199065474357,0.17371000215690063,0.31434339020183505,0.3477297440956472,0.2986793370867093,0.2280388474547021,0.17282092164355722,0.1260531267266931,0.08968658543007994,0.07084945117902018,0.06284400061897097,0.05906610349160806,0.057066382993409125,0.07653730048369654,0.16128553922800543,0.33229826554624065,0.5096597342160907,0.5870574784863881,0.5744764853868086,0.5044432792074002,0.39694946981641105,0.27848623092249186,0.1830974510599869,0.11615636053053799,0.07434338313494461,0.0421132130172021,0.010016757257363201,-0.014608631674986087,-0.022660633361274034,-0.015434812376905242,0.011571578464769854,0.04695714573715478,0.08251191256770171,0.09262030928609924,0.05276092618133343,-0.016625000442949605,-0.08153283486057017,-0.10062218265413875,-0.02623659085425306,0.13290054850676508,0.3148412869976318,0.46962207988779037,0.5861356366982886,0.6619694472386243,0.7027319476456729,0.7176892054763079,0.7053579561521934,0.6653192905023463,0.6074570112936739,0.5420657634036621,0.4755364386520518,0.40529323428862757,0.32311216100215756,0.21832108348123888,0.08967755854243821,-0.051157063689459645,-0.16517430410915354,-0.24001896028433614,-0.2941336927221307,-0.3586346094186821,-0.4561393932979313,-0.5716243823388497,-0.6619162697004204,-0.7052529353073956,-0.7014070005629363,-0.6625520188144001,-0.6114877732816043,-0.5711681802821716,-0.5224879333435339,-0.43761270305995276,-0.3464673266456056,-0.2717266891730955,-0.22003910962197915,-0.19116286294770066,-0.18423941916561307,-0.17934350352741213,-0.1407921965151842,-0.0754681812655676,-0.01641195949338964,0.030580525367323277,0.06567872211531318,0.08651606156938234,0.09320685941729828,0.10466307519805275,0.14936579558402294,0.24878308741153377,0.3677766174133577,0.4233127608470053,0.3883358288808443,0.293308319084503,0.15836485197683559,-0.016544407696028298,-0.22059992836539985,-0.3964773042644979,-0.5140850078110761,-0.5887700980855259,-0.6268334061142272,-0.5867446409389196,-0.4070442107168111,-0.1787233774092708,-0.03281006855278451,0.02640187143695263,0.04560382449382674,0.07229863085605175,0.14289538945686708,0.2754027736796846,0.40219527177022923,0.4074022178852756,0.3554884987297961,0.30915900989648176,0.28483069434627756,0.2883142242339362,0.319009582005594,0.3508457960600629,0.3623410272314841,0.35357714611381835,0.31869055593762907,0.2433463245029369,0.1358710423647405,0.04685569185992965,0.031119755506149836,0.07382909895460514,0.15010030600590943,0.24315026369372036,0.3324644532815852,0.40247419941051266,0.4449373389534983,0.46029522811240303,0.45684944569013375,0.4355653111085401,0.3937778808987862,0.32171050958508685,0.19173412166833184,-0.018560399450355754,-0.268676615439493,-0.47929078664557734,-0.610595880792063,-0.676805194439564,-0.6947991530174157,-0.6673180011580013,-0.6113177734765874,-0.5698773119232652,-0.5724004265654993,-0.6008871517939364,-0.617790248308081,-0.6018044996791863
