0.020258004091010726,0.07220662613380052,0.09351607428899596,0.07500710751758201,0.023279682254382573,-0.03944329687266956,-0.0885434614145195,-0.1230439515845587,-0.15315587155439211,-0.17656941615460284,-0.17482152900811707,-0.12755023925030737,-0.025643556540437575,0.11523967640743439,0.24687242072116827,0.33785153793168266,0.38200045315304815,0.37798663777998587,0.31292587889308016,0.19841870535811104,0.0696104188921285,-0.037907116061696736,-0.10877972190499165,-0.1616492078152545,-0.21243802088768884,-0.254513640643996,-0.26593102317794404,-0.23429931282875407,-0.16751992544330854,-0.09562950073792031,-0.03653125052975024,-0.005600250107099308,-0.002149324987208399,-0.0069979976571120294,-0.0016056858186371664,0.025691926706405216,0.0845920327764096,0.18087977733902993,0.3011740129928143,0.41412460743273405,0.4943923734410278,0.5428030700010779,0.5573339477523992,0.5364955850225844,0.4890292375035121,0.4296308934450079,0.37523202725622257,0.32690875873321373,0.2921066094168303,0.2644341226369966,0.23822566213006865,0.20488099031889412,0.16275994514677686,0.1445823071567825,0.16150496303659823,0.19491173669390693,0.2223879225064633,0.22442600267161045,0.20147664691150582,0.15386407897971655,0.09489401861987568,0.03779959946823788,-0.0021361164438582028,-0.018859758183729185,-0.017969694188522067,-0.006737691159956372,0.0070992161932108356,0.014371043582226505,0.015167946888395182,0.005703853215519079,-0.027483612079269568,-0.09413378377050981,-0.1670798579633336,-0.22311173624144143,-0.26312164355907897,-0.3045219027344202,-0.35461871440346865,-0.40107176991808097,-0.42858542494905233,-0.43131063563259514,-0.40403691600108577,-0.3604526773385324,-0.3239030151321571,-0.28853685428933035,-0.24612184263929382,-0.2002314685304057,-0.15987221946893124,-0.1301976505166977,-0.10391903853515536,-0.08135732969169622,-0.046862740590768226,0.015209748108659568,0.10282270931154408,0.1823277549180941,0.2312883572085852,0.24829219544882059,0.2379687608975362,0.21101051785664782,0.17717849878111336,0.14667482383766983,0.12707986499579035,0.12191466416728003,0.1211757778631878,0.10649569217085819,0.06718662290942862,0.012785385357971702,-0.04457710970062992,-0.08999649614159057,-0.1185523426525597,-0.1405904012469465,-0.16412716596279528,-0.18253504049147018,-0.17507778673321356,-0.11825148470449126,-0.011991270359413952,0.10668990748231723,0.19772742442102054,0.25408270217935003,0.2836117482990844,0.2928385639598465,0.29288893431863133,0.30009266776779825,0.3200535917208425,0.33114412551959804,0.29992290441830843,0.19587839410038693,-0.0007205834171193484,-0.24891566272252175,-0.4271172614044223,-0.5029739071922845,-0.49161049546304053,-0.40905711416760715,-0.2817625953629343,-0.14560158896548456,-0.02774149441573561,0.048108283320569635,0.08331135112607119,0.09819018136896712,0.10146730634846486,0.09633329044308563,0.092635652180254,0.10425044964991748,0.1369308437024106,0.17659555547435862,0.2121457287848071,0.23815412975361175,0.2519669685682128,0.2543342513507996,0.2470639086746666,0.2380815288359834,0.234362532148851,0.23619063061122364,0.23832889794514392,0.22861026547362984,0.20633804273638576,0.17683756936764417,0.14859329146185887,0.12439678148290681,0.11239054623981293,0.11452791378932232,0.12035438587916225,0.11233501178810185,0.08124220314876461,0.02616066173165105,-0.04132945677710486,-0.12332528965050318,-0.21022762503823275,-0.2697741582556286,-0.2868646253440048,-0.27667826129032463,-0.27957475654136443,-0.30075212450288,-0.3290410813411567,-0.34138532359810436,-0.3000481535709556,-0.20161433307689255,-0.06281294797486195,0.0928924320421405,0.23319881700975917,0.3326902434621284,0.384312844505191,0.39614643117954,0.38969525530944393,0.37331685629845546,0.3437198409048016,0.295430063626678,0.23146901513951246,0.17310022047215246,0.1390241505678448,0.13503527805817578,0.15725336284460104,0.20455668908605085,0.2695219715714133,0.3258533716383591,0.3475137693959034,0.33881307471644906,0.30316218279325047,0.22412091860167643,0.09508738269041853,-0.060977415328671236,-0.19896285321386642,-0.29411438733085676,-0.35312857988698865,-0.3892406322222327,-0.40945286748238585,-0.42351687118724257,-0.44737751661028663,-0.4871361502043781,-0.5433469735333385,-0.5875223154269504,-0.5776434592886915,-0.47704313795035774,-0.30462604018839656,-0.1321188027995125,-0.01260624722206668,0.05207986310042732,0.077872068793163,0.08353468012814601,0.08854446016602531,0.1043951488163384,0.12788415929665659,0.16078616724109548,0.18915045460206542,0.18984145376135947,0.1573204674514664,0.10313545591602596,0.03979140642109108,-0.016759080560868743,-0.05868866294338099,-0.09047024274929591,-0.12277835449659555,-0.17033800083975464,-0.24241329694284158,-0.33605945903971995,-0.43422191295354157,-0.5076699905769991,-0.5457804582361563,-0.5347017023568076,-0.45905458703484303,-0.2927303517922389,-0.05159754068927849,0.1849845460545871,0.35628667988569246,0.46393795764736073,0.5295362633451368,0.5671505065299668,0.5758954638781199,0.5618932570453753,0.5266005035660906,0.4820652213364917,0.43341557992452123,0.3839237130690873,0.3291848453238658,0.25368515572128514,0.16723059730254225,0.08787723663686099,0.028370017756557897,-0.01342303324315324,-0.03679060459271493,-0.04297037866659217,-0.03552179166523642,-0.02102445588743858,-0.011376027286159631,-0.017216990772898445,-0.039973489835912125,-0.06701176446668713,-0.08581139557814783,-0.08941176339681915,-0.0704496605407543,-0.02533418198511359,0.031903740210810695,0.07111324600645329,0.07409909781921635,0.045669501760275844,0.007775229271392718,-0.00994965755867306,0.00865491155832873,0.05893830458526561,0.1282003582924318,0.21518329312824805,0.3105000888507556,0.3962176482763188,0.43750847586293123,0.39638549605354734,0.22815720843705348,-0.012241784745646236,-0.22747432522774655,-0.37059653331477616,-0.4333037102630638,-0.4107485735110909,-0.2822811246773505,-0.024155564919453282,0.2818933441794251,0.4829635528786099,0.5741939740267095,0.6022798385775421,0.5828586075824472,0.5006183151554289,0.3492803445925027,0.16971522903982014,0.006665219283667045,-0.11671511629680321,-0.1964491828515186,-0.2370405837309456,-0.24490323640639647,-0.22175988754617326,-0.178578728579142,-0.13379842408481693,-0.10594871213765795,-0.10519397459517589,-0.11599885875685852,-0.11661230788088399,-0.11096910578767574,-0.10937753600250888,-0.11277829378196759,-0.10824474688917397,-0.08693667465992118,-0.02799316231572413,0.07934087951459728,0.194693011830341,0.25551328279140273,0.25393438265416796,0.2151528761130587,0.15873425873539296,0.0861989585991506,0.005077830042694962,-0.054843883690433234,-0.06808917315476483,-0.032787657419215466,0.023282909972658788,0.070372571407957,0.09746511078844455,0.10105306337802963,0.09191533771092349,0.08910280577285389,0.09197476915717796,0.09406233901048802,0.0908616862352698,0.08505923970844882,0.08545144993559524,0.0828828845226931,0.066200237569852,0.038414486492639344,0.021514398397050497,0.03501888404004617,0.07843514543079462,0.14496347841564441,0.21546298369915518,0.27188566825819294,0.3057045665314392,0.3122604731013824,0.2826058384425524,0.22079115320121318,0.15411179068518124,0.11230387331537547,0.10881028736925302,0.13582315347152918,0.18062445075465244,0.22573741180930126,0.25972651690578535,0.2882331328159831,0.32299037878502507,0.36052988520503965,0.38551965197885874,0.375636342289011,0.30068180431338876,0.13861670705970194,-0.07749313978049098,-0.26745302043724906,-0.38865592461464676,-0.44946786547130957,-0.4607416428249959,-0.4247031942126908,-0.3344427030173257,-0.22539785697007345,-0.13042790765807183,-0.08126848908464916,-0.08446791201080886,-0.1301252209985334,-0.18664120001695647,-0.2239100657928055,-0.22726038415224584,-0.20415624076756933,-0.17084772168520584,-0.1347855893415913,-0.0780642698059096,0.012904667480037546,0.1326092294928312,0.25282699641670475,0.3542979013914908,0.43168496382534366,0.4869395409966637,0.5247959568989471,0.5419788390743773,0.5286865744906336,0.4856993653354489,0.4127341109186332,0.31145072446486527,0.20380063269755433,0.08881630349615702,-0.022517943840219986,-0.1138775104982017,-0.17433825567006156,-0.21978739541952064,-0.27053127445964376,-0.30932829384906113,-0.3133079416841217,-0.28226971466051837,-0.23543788477414374,-0.19897503595930524,-0.1878101546748152,-0.1924353882788602,-0.1818423439258041,-0.12932677777050436,-0.03686957629953026,0.05467141958306093,0.11555814479489461,0.13361742019432965,0.09070535318496722,-0.014857465002173331,-0.14933326521294724,-0.2635382287271712,-0.33161992442878535,-0.35013793936878695,-0.32533032998051,-0.26377228864441893,-0.16405060442544117,-0.030933394015956444,0.0871076409530295,0.14319291747987717,0.1293131884480695,0.07191799320241415,0.006975072096027362,-0.023911387896821023,-0.00706431604636063,0.04237146619869705,0.09758563782620186,0.13766162914053173,0.15315939844483425,0.14007644646307535,0.08310280846682923,-0.02109730793599079,-0.14334177063747633,-0.24677677813386603,-0.3346905198073149,-0.4141619554080569,-0.48383495739615073,-0.538998418285545,-0.5739504946528626,-0.5733158401631252,-0.51898818145283,-0.400425295066636,-0.23448367117247917,-0.07234812445873261,0.03864519100834796,0.0682391949951885,0.01924599615464215,-0.061189511235053576,-0.10422363142446171,-0.08131155800319563,-0.011862752827188147,0.07203269662616155,0.15459235564254908,0.23660460843731995,0.30829504626115833,0.3617866793985055,0.3863363210783468,0.37817277735323157,0.33801761716632805,0.27872236342254986,0.22255399697818218,0.18906494261084514,0.18915728635502313,0.20484019279901342,0.20733326717814574,0.1830058708505854,0.14242663517910953,0.10149460219406907,0.07706324071535933,0.07653840514277271,0.09852397368526619,0.1245289407067297,0.14795634260646717,0.16490421851650827,0.18738015325991664,0.2333594926088637,0.2986160618126499,0.3718677539080305,0.42587269823124146,0.447678643485609,0.45112436118622856,0.45106238929283116,0.45354452515690064,0.45592776943986685,0.4523680250370394,0.4416182333941354,0.420669730200192,0.38560862703303495,0.3341307790360762,0.27388009180657297,0.2233474764709517,0.18434720102558136,0.15140558899834083,0.12243178320099682,0.09001855050834263,0.046871130094612135,-0.006622724005684775,-0.06411532601722994,-0.11620284922904286,-0.16310531445900497,-0.204745766196629,-0.24159402260565324,-0.26382778105880217,-0.26959446121340086,-0.24446393670661926,-0.20356565369035903,-0.1547086506459395,-0.1120613916445047,-0.07489003243884981,-0.030507166002789646,0.03921049533321717,0.13720411446441821,0.24062955116410242,0.3335338765990338,0.4101832798875781,0.4758848836001005,0.5359415537366155,0.5726909529631512,0.5764028097984697,0.5500275065122953,0.50668217335052,0.4472926321221394,0.3757019330250717,0.2776775018227805,0.1463343722619104,-0.00016662805977157985,-0.12617718352305302,-0.20639675239971553,-0.2270250061173886,-0.17672253560423523,-0.07890645912755784,0.025189612549121887,0.09477460629161819,0.12440610087511143,0.11329203972684256,0.07010403817043846,0.01136957096139039,-0.05272396101049581,-0.11362070633190247,-0.1728103958677969,-0.21351923271571363,-0.22058312227438676,-0.18313717165555407,-0.12241905367576368,-0.07111147626870179,-0.04274052520011449,-0.04729271348087505,-0.10073952446359612,-0.21290490100422058,-0.34763020456144106,-0.4445462614136457,-0.4929686983483996,-0.5062216598699886,-0.4839217050517861,-0.4131358049952825,-0.3003857337069162,-0.18808566657321055,-0.11691818166112741,-0.07794637402716201,-0.07131400010083552,-0.10749545238254926,-0.1609304810890597,-0.2187649153230087,-0.25793324293753217,-0.267061028752406,-0.252957113036679,-0.2278397481071857,-0.2003176776707648,-0.16945578307142445,-0.13178491722072144,-0.09257514644012521,-0.05390765141006778,-0.01113123418370467,0.03510135992603751,0.07508191679866483,0.11566392482857481,0.15894930244659733,0.21323299393515185,0.27492364753397175,0.3315864126673175,0.3616676578369692,0.35517666900608635,0.3168515244521513,0.2546171712648854,0.1883020753213967,0.1317720777258844,0.07697416749545044,-0.008509210703855356,-0.14494666211856963,-0.32119250737135985,-0.4732917081152403,-0.5552808447472791,-0.5781923912410577,-0.563939531819471,-0.519413211876799,-0.44677687372913,-0.3461808940161437,-0.22876339924345046,-0.11341589780579349,-0.011464598077053028,0.0826985831349822,0.17015662174364013,0.2570840935210143,0.34728879211632907,0.42733781693444733,0.4814474279994707,0.519447199868673,0.551877377537039,0.5784505801537703,0.5970549734229635,0.5971224245524333,0.5690829860751401,0.4950765312582146,0.3356699720164654,0.052464354589766116,-0.26313348815344356,-0.4738048350042369,-0.5768134228891083,-0.6049908378780872,-0.587182576331332,-0.5340844580984297,-0.4401600540628543,-0.30131183670855294,-0.1442670468721662,-0.010772217321772163,0.08410654860693934,0.1557043750154716,0.22580985304854007,0.30232462882377276,0.37868895877667264,0.4396687995101536,0.48495012620022643,0.5150502502724253,0.5340983373988564,0.5368997203608785,0.503193832492368,0.4148385472531343,0.2723202944549131,0.11542132388772096,-0.004102428505381948,-0.06044150812685278,-0.055712434366024015,0.0025430638617266535,0.0870732391216263,0.15574175591370953,0.18238056720387016,0.16231272363754667,0.11151645278891575,0.04162667797164153,-0.029416649978144936,-0.09248827283223993,-0.16453750668845482,-0.2526763282884053,-0.34431877710992015,-0.4125419664688215,-0.43729558988090017,-0.42036375870283893,-0.3679529100545752,-0.28558195619585874,-0.19646546895058742,-0.12876851625274718,-0.07848145908571097,-0.034263357720605354,0.01972265261302331,0.09066189276934673,0.15481313965896057,0.21060646712378914,0.26519287241983447,0.3139497625319366,0.35355469458587724,0.3737244288608541,0.3781821104815396,0.3745872052169826,0.36199618613998985,0.33949191055966754,0.30300716318313625,0.2554106494400129,0.20161748650759587,0.15808767567544213,0.13429136734982777,0.14137844429511878,0.18190862131714547,0.2458928571119491,0.3123415823003562,0.35239120343215397,0.3636841223051197,0.3549800803409062,0.3208426103742013,0.2450154522306308,0.1255540250562389,-0.015409658279853538,-0.14642386009068065,-0.23871746176927325,-0.281061237496565,-0.2854956219322136,-0.2695863604641187,-0.24493645563093674,-0.22164850409939263,-0.20228635679318122,-0.18775993353899448,-0.16586915908354058,-0.11772847365995552,-0.04314230670867483,0.04123072078599431,0.11965727432629779,0.1936950077082245,0.2596130204998277,0.31092584600808626,0.34057227491081493,0.35203842933172597,0.35544226198021045,0.3684597717770144,0.40260704375610407,0.44774560596795726,0.4905120831730169,0.5090832266002359,0.49368296953944085,0.4535538232743302,0.4024104978413591,0.3414765044447644,0.2696114267931322,0.18160180388188407,0.06967397877638627,-0.04513438655771552,-0.12510462597378186,-0.15635945656861572,-0.1509726090616178,-0.1275288735195377,-0.10459698401294447,-0.09150783396671335,-0.0841896503553785,-0.06394161101587352,-0.019206312276572886,0.03761750494697225,0.07153435671134338,0.06461365033326515,0.027671470578616644,-0.013458598788383513,-0.04286838764577736,-0.06074260686352917,-0.08183357344423632,-0.1265155757206652,-0.19901690594518154,-0.2805409747165968,-0.34103419435394944,-0.36395954822659016,-0.3546223506715163,-0.3188823663403848,-0.2645476572909739,-0.192876340639692,-0.1159806410220479,-0.06345093127573956,-0.045907645232412794,-0.06900560266856116,-0.1250048241457334,-0.20468254030932034,-0.2820228035473661,-0.34624522802328295,-0.4017778801280397,-0.44897194177412153,-0.4680338462173376,-0.43265863170486807,-0.3266189086862635,-0.17714788712760676,-0.04052702569783088,0.06531983531034144,0.15364556807990437,0.2319059893564127,0.2945054581757512,0.32855125035009575,0.32912575190090465,0.3055895965856905,0.26069335899205914,0.19370388193428753,0.09709635744467705,-0.026230849636565582,-0.14456428141153926,-0.21418971252132066,-0.22033122542339098,-0.17810069302472922,-0.09691197470320699,0.0017205503912918769,0.07800558075293022,0.1193191693411217,0.12944423854282636,0.12255105169558712,0.10354572919994762,0.07665191818691645,0.05119981146291799,0.04547421487833425,0.06772389470205348,0.10956926229272035,0.14680955221857822,0.17385763415536037,0.19479356687738075,0.2117438947956166,0.2166617210923939,0.20430002500323932,0.1719835901671627,0.12808949350418966,0.0803109262977037,0.035704662588693696,0.0017734863840241785,-0.025434696100268626,-0.049876290965605176,-0.06944460975272423,-0.07560560719273743,-0.06683548656572638,-0.04329515363409969,-0.013272839408294164,0.008859136643264145,0.01788169041220434,0.017945202410801425,0.02125856789105494,0.042346247088619324,0.08771005388832412,0.14566961105770085,0.1969257915680055,0.2343082167706063,0.26161286101528664,0.2678107998486476,0.2421161014700638,0.1938613984336428,0.16253825244289402,0.16595668724640017,0.18731650757442925,0.2102849883920491,0.2302187740060322,0.25288242494441254,0.2819357931172398,0.3048085915750195,0.2932039690848104,0.2165453494843845,0.08152143210015636,-0.06906737869512897,-0.20248563361319186,-0.30952142883150635,-0.382991721365401,-0.40860084909996985,-0.38419537854876945,-0.31603336831334566,-0.21481644355952378,-0.10137760790879982,-0.004762550476365758,0.04707252969673464,0.05840211518135844,0.06117256508165979,0.05603551736993062,0.043497396031817424,0.030667747237494356,0.01552348299552346,0.008077626310478628,0.015380732096209604,0.036082825944305355,0.06662012313673706,0.09797612239379648,0.12145865584318565,0.14292020628119395,0.17501207927119533,0.21908174810568348,0.267774155818337,0.30203890940252537,0.30849046147852194,0.29627954195430645,0.2856409495326729,0.29315665110517286,0.3171879489644917,0.342885919802817,0.35469071661350476,0.33081076996448605,0.22413934311006461,-0.010434262896442259,-0.2899900933973843,-0.48711914519841326,-0.5846557851850588,-0.6016144475822485,-0.5383678125364918,-0.38100758153027275,-0.15375400575001855,0.05002371956446864,0.15251079717261143,0.15465330898970503,0.08458607915349295,-0.017327232049542916,-0.11207910220445294,-0.176148827562152,-0.19453373697311932,-0.15880623888321535,-0.0906386503901523,-0.009624239477952275,0.07376595097264846,0.13937998160245701,0.168931665275473,0.1586081751593965,0.10545384140717884,0.0159256169176322,-0.07709136817194623,-0.1416989802140548,-0.18308660763170226,-0.21153215175667797,-0.23039167381460504,-0.2307976796842487,-0.19853054010955665,-0.1265332160842147,-0.030515767625098902,0.0749591652585329,0.17075310126575663,0.24081775139423392,0.2709443353904595,0.2598707954093616,0.22344907051440133,0.19377125675288584,0.20379295824415647,0.23877154262642272,0.2662013410596382,0.2703371402159507,0.26112923945986194,0.25284284702597404,0.2659817489713708,0.29429252481870477,0.3187098996888031,0.32894695644148575,0.3235575267430804,0.3081499019859009,0.2895986065011075,0.26413820324309195,0.22218260531531062,0.17676941636077761,0.1414571837909521,0.11595281546115666,0.10677822491080737,0.10956007010473275,0.1197520348480591,0.13599080058139892,0.14830379952677053,0.15261449368290908,0.15103308330941975,0.1421059833356541,0.12215558012573052,0.09059581917028024,0.05906905774937736,0.04281023148969266,0.047440825222379884,0.06343898975035567,0.0759508174943282,0.08270590887541368,0.06911477566737519,0.016078054181472186,-0.08497970179482303,-0.21455402220301836,-0.32437309402745657,-0.3784793711644228,-0.3872506452247794,-0.3644156405700522,-0.3222274577746313,-0.2588570484805553,-0.18140284952018498,-0.10306116019653651,-0.03734431296170896,0.01796424373763276,0.06779986571073024,0.12378019865341235,0.18780356173116408,0.2485106183266023,0.2896402897888113,0.3053159269585614,0.29280489332938703,0.2558429020908138,0.19748592588180702,0.12330258045322087,0.04187117541602522,-0.030769140047405365,-0.08184469468397787,-0.10975391084503153,-0.1139963941729101,-0.09557742862494989,-0.06443547507839706,-0.024573068668025635,0.01721213603335274,0.05307054456113052,0.06339780637478244,0.035653189713387025,-0.018423883102180627,-0.07833382593047784,-0.1253845555120295,-0.15488479416832454,-0.16159957735615735,-0.1469827895987682,-0.11003526736340898,-0.05173116177281065,0.01310956526154809,0.07652872518681139,0.14379907626513033,0.1991332760480405,0.22463605324694672,0.2068048734533528,0.14182198871323298,0.058089612713687115,0.0012220911272847997,-0.014506761039230128,0.0032830819170330083,0.043474239330366184,0.08096671072162329,0.10211215798554103,0.09823007111315478,0.06977985555817484,0.03156776906573218,0.005657404851684183,0.00745591192430988,0.033599435250856215,0.07202350147135157,0.1127427250513127,0.1518304082431255,0.18672153252935308,0.22249897682353892,0.2551463035515521,0.2879745457723604,0.31880886444926415,0.34663725730194983,0.36720542523721367,0.36706648309207474,0.334040991272274,0.26047362283944475,0.1540258055802505,0.04189380022406158,-0.03869018230950046,-0.07262328308049908,-0.06741211356662175,-0.05106694230961831,-0.06825184360279296,-0.1483507808562033,-0.2756512928332054,-0.408462701748462,-0.5111752054655511,-0.5931475072721897,-0.6572809921516353,-0.697561197944637,-0.7157799216081298,-0.7104816650657084,-0.6790941956658009,-0.6092109309927399,-0.4776794854605757,-0.2802729984769917,-0.0683871072203212,0.0856524133643579,0.17436893837330192,0.2139038364041352,0.2141196454436392,0.1661520444282412,0.06661669851529865,-0.06334324060183395,-0.18480989454651875,-0.2788352639746253,-0.32851794866436673,-0.3352445617430698,-0.3034214064493122,-0.2354805842830684,-0.13243630815678867,-0.004516704995128837,0.12450815966353157,0.234243721300544,0.3212647235837299,0.3860376714758367,0.4234669563950704,0.43368195064307746,0.4088787700687746,0.3443094802578891,0.21051331793101416,-0.005273299959240021,-0.21972547111861765,-0.3531867626590103,-0.40663423438651397,-0.38735209079039157,-0.2898164098353249,-0.08920956641602057,0.1793300934187873,0.3990827322714902,0.5264771024750944,0.5887067200295453,0.6118721305997867,0.6128525438176137,0.6002606815924597,0.5713170180658227,0.528342627635413,0.47896878139673754,0.42544691086150543,0.37139691458495877,0.3228968158755083,0.2861033791681755,0.26425809990767196,0.25701718078715935,0.2613668795180641,0.2736724434727442,0.2847089351233642,0.2817128212170076,0.2562749096290813,0.2092044567955533,0.13355261514626413,0.032614890134831875,-0.07971728896686656,-0.17432654354281035,-0.2211578033331813,-0.21642417876907777,-0.17216234203319292,-0.11467431517012018,-0.0792594214257999,-0.08477813592508338,-0.128922869504827,-0.1793215067890696,-0.19741810706405638,-0.16775697435472267,-0.11282589277450318,-0.07939150785725041,-0.0791040443283655,-0.09413069067260978,-0.10823811859754764,-0.11762976189769313,-0.134604153302002,-0.15395189232005949,-0.15666296234946692,-0.14346640736362842,-0.11932708380108857,-0.09949257583503407,-0.09291165420886151,-0.11133077904384686,-0.14420991476765063,-0.1681849765871251,-0.16309001468832923,-0.12985898612946484,-0.07973945972933702,-0.02246641732846289,0.04168223366223629,0.10774829281351439,0.15377566845586385,0.16407623678916736,0.14308631961150828,0.11324525032498853,0.09010989675055207,0.08724521746788076,0.10860355631114635,0.1415442752397631,0.184816995249666,0.22540656546282598,0.25141005690772933,0.27514709762889333,0.29595865408415256,0.29557301595994334,0.24927599929464467,0.13598894056736033,-0.029647855176885684,-0.17697513990812858,-0.26988689311136893,-0.3067557650029817,-0.29395134228347825,-0.24832586062848208,-0.1931382781591355,-0.13899645602207694,-0.0839738214590746,-0.025292430671198643,0.035923873158397776,0.10203879563142501,0.1616826880555606,0.2017306265511986,0.2058011309938163,0.16967697711171578,0.11102298294995358,0.05724956060462315,0.03144813472707422,0.035540803210468055,0.050737089675524503,0.04991530521861829,0.027264158907013097,-0.009805492640425188,-0.03501143065821622,-0.03148955857686946,-0.016763209978367024,-0.005970343517380309,-0.004805145105541485,-0.008828710905260705,-0.016822371927029154,-0.026216237333867205,-0.031402953850752716,-0.03361511667872138,-0.026644762802026815,-0.000453431515065359,0.044415689681601034,0.08924701183918335,0.11398712460829624,0.1055010992495901,0.06464986908175016,0.006391874710833285,-0.05267293434254465,-0.12098686376726812,-0.1851563637910518,-0.22584762543683629,-0.2450767998696046,-0.25057175452628144,-0.2536590814601427,-0.2537960233638679,-0.2332679312260193,-0.18997354206864323,-0.14241174726138123,-0.10949916694538933,-0.08950036785622743,-0.08059931953585633,-0.08329334375573869,-0.09413592597194918,-0.10289714707889772,-0.09711246576442809,-0.06685942062717633,-0.014349854449997007,0.04329085632863148,0.0941256356937863,0.13768902068660197,0.1834830860868458,0.2421609015867274,0.30589743960261623,0.36242812255303475,0.40341762005573695,0.4346110304077739,0.44853675795278636,0.42197030130267554,0.33686162619526505,0.22223133114510224,0.12225861602169188,0.06452830017286443,0.04728535344050387,0.05198949632455283,0.058737545114181854,0.06774456816970274,0.07262080028986491,0.07522355519766244,0.07875998642361874,0.0678472311195419,0.03282096512749107,-0.013178807015637284,-0.06698610630905813,-0.11217664018226643,-0.12816478373603765,-0.10581770324010296,-0.035765762537163064,0.07684478294109387,0.2078560713936696,0.31165821991503717,0.36565821420214156,0.3766647196740854,0.36319530926236665,0.3326886889023739,0.2686965282188394,0.17085382115405445,0.07593710124115993,0.019241913566448245,0.005760047124918435,0.017740311792500574,0.04220183991443459,0.07643871017696709,0.11059931992867367,0.13500896235254883,0.13998510134277034,0.11998357697446767,0.08033621349703719,0.02983612081020599,-0.014041650323250983,-0.036205130200878705,-0.037567399960966405,-0.02843333643904975,-0.027890633204730248,-0.046431338073406075,-0.07729410205767576,-0.08754665494569971,-0.03873079648465871,0.09784639810701416,0.28262060992539717,0.42697166171481754,0.49330602642519733,0.48287973753688174,0.38302699752162295,0.17374939465318467,-0.108505769507101,-0.3368970206735965,-0.4334904776612839,-0.43765269541253127,-0.3923691803927655,-0.32175969763355144,-0.2405929007962264,-0.16416519066671167,-0.09909611517583321,-0.06545023289640454,-0.0809667257332783,-0.1379017905392422,-0.2123943306987192,-0.2820425316580199,-0.3430452892353523,-0.39307854476725634,-0.42890804759571277,-0.447241625895059,-0.4462955309434477,-0.4182011725754401,-0.35738711979262583,-0.2667465004395235,-0.15231226851842117,-0.036363785677790327,0.06327180819804104,0.14395883232218656,0.21851248710424392,0.2849595264529764,0.33867230377716434,0.3725969091514578,0.39345928689472814,0.4135584276113212,0.4474520934672604,0.5014250145084281,0.5775446711015286,0.6326327350671626,0.6359783985255785,0.589517543883743,0.49727601130131444,0.35974291726878416,0.1948414671995158,0.05134556295971233,-0.023301548561978233,-0.011414860473912561,0.07027129960095167,0.1724149026425152,0.24224687621060415,0.25794831579137506,0.2384746727519593,0.20539593193196104,0.17989013990316727,0.1717532376096063,0.17249259143286205,0.16806028595808561,0.15260752762864613,0.12876813637827392,0.10108124038059965,0.0778821613315201,0.06432880128942607,0.0666380451742683,0.09250247263429319,0.13533515146034708,0.18055739645621047,0.21323455680817568,0.2233500240606319,0.21704675052191766,0.21390635135398905,0.22478982125006375,0.24606559145569545,0.2637655056709745,0.25796393308965127,0.22249233719705944,0.16819390654160407,0.10741422822021159,0.042609463545039354,-0.02703836039042629,-0.0910706882654534,-0.12381696367560834,-0.1082002829687636,-0.04727166897927752,0.034375412462403734,0.10608253429515792,0.16559059262130846,0.21463353230203278,0.25241661772888496,0.2678840632912622,0.25833256912349306,0.21784030285316947,0.14701852043621078,0.04917578797861185,-0.0474106512166143,-0.11053487420349029,-0.12709541030685598,-0.11313627595163678,-0.08785360366775749,-0.06815444706964296,-0.062342787878484275,-0.08086314839548675,-0.11813891352992885,-0.1656428949116101,-0.2125968707148504,-0.251786395223867,-0.2907677103623915,-0.32838577006950836,-0.351717501446927,-0.3566218158454025,-0.34179159327136555,-0.3124827786200097,-0.265173235778879,-0.1978300557224693,-0.11913707605648714,-0.05975785862695033,-0.05881517733227636,-0.10461435682501209,-0.15760902275484107,-0.18050221969989275,-0.15286667642859283,-0.06897133336520252,0.03169206545851436,0.09244512523818321,0.09021047620892148,0.022530746442083652,-0.09904880878975009,-0.25288756410040564,-0.38956298180183185,-0.45935751073755965,-0.44712653268056674,-0.3623805656276725,-0.2242275930478527,-0.08590842669873694,0.02159545644025042,0.08146128174337187,0.0925783374332501,0.08285443517052052,0.08335517071227261,0.1130509286214801,0.171992463480701,0.23831749175931918,0.28900319000348546,0.31844491618144877,0.33009676868695803,0.335516385184313,0.3473062670285279,0.37344795654129825,0.4093275906444168,0.4401952002485155,0.4595591400979709,0.461885353564165,0.4479325944222818,0.43395927061239586,0.424413546734015,0.41188668280625795,0.3929738555592202,0.357582801149616,0.2873398042712251,0.17707294295306858,0.029773225063599213,-0.1326159338390775,-0.2739668168494898,-0.3546925280951095,-0.3796575751245133,-0.3720482540114301,-0.35765580223093085,-0.35597637698046913,-0.37292865264428915,-0.38497803539049363,-0.3648062372959139,-0.2916477443034358,-0.17820035570131124,-0.049907041927450754,0.052884122266699175,0.0975652672387484,0.08693961802799692,0.042383233564523136,-0.010243306129331498,-0.056167613277030674,-0.08620000426855022,-0.09787511546493313,-0.08984186137947298,-0.07399259439053238,-0.067031239828744,-0.08295023752251562,-0.11975448448426017,-0.14850238179380715,-0.12716187007772076,-0.05274605232430288,0.042601505113950326,0.12313428089314299,0.1755484525755743,0.18957388915720155,0.16820942633973582,0.1315624719771631,0.09669702349826764,0.078574197375762,0.09142174977306047,0.12438667157852708,0.1541809304629072,0.15706130030579235,0.13529724669113175,0.1107071671348325,0.10836420085858932,0.1370315532067671,0.19157033998003714,0.245780322046346,0.2860461190959134,0.3167101712850565,0.34227290131146393,0.3746055249034372,0.4071265807589508,0.4259132641771829,0.41480581765909474,0.3763016900870483,0.3181143837046881,0.2520187983443347,0.19640651787140653,0.16490342671320196,0.14817882857435125,0.11748457483161591,0.057885550787658654,-0.0337974796114491,-0.16141588247643127,-0.3155057450094975,-0.46969183648937946,-0.5826785126291025,-0.6272472148226136,-0.6104012555681373,-0.5683478232411789,-0.5366768269687412,-0.5320107383957842,-0.5470547767941107,-0.5555791168448629,-0.5285665667145687,-0.42373201048806364,-0.2149877386720904,0.05481945605622238,0.2873254442369701,0.44925400387467446,0.5458986324126764,0.5842002166763303,0.5850243711574842,0.5774767195602687,0.5564435925149243,0.4898451640388017,0.34848184902238466,0.12841060549595812,-0.1282397951638407,-0.3534515680618586,-0.49439074529603727,-0.5564686904977177,-0.5676380833997073,-0.5474536449214058,-0.5071350450278893,-0.46698652000650787,-0.4512612511376242,-0.4715601685782551,-0.5076694620862201,-0.5268497558779592,-0.5147073090433496,-0.4614690977871272,-0.35859336582829904,-0.2030590861379345,-0.021891682942982597,0.1374405253262973,0.2322849634546809,0.25733082389988465,0.2433176977664093,0.23593358830559794,0.28414525447803274,0.39841542014671677,0.5340122320984904,0.6304667599729694,0.6696637889507459,0.6695524934024725,0.6494250244850032,0.6202559026511628,0.5901184032658107,0.5678541024726809,0.550778418823581,0.5407625797800814,0.5366239630348063,0.5324972188741932,0.5180402833407979,0.49397027096086144,0.4730293409153213,0.463233640350306,0.46289144852018993,0.4680556683254077,0.4767130413756294,0.47673275472640486,0.46212429823314527,0.43704823245017416,0.40657328208713184,0.37468951705671766,0.34614168024060715,0.31623855338497886,0.2760041431510173,0.22923840211425217,0.1809237911872326,0.13713508651842796,0.10737216711216298,0.09067295791473348,0.08174714949624057,0.07905411077844356,0.0766665859868045,0.07830423198700634,0.07762988212801875,0.07694097009413806,0.07947549814641115,0.08651374878370215,0.09735629966247117,0.1011453699480167,0.08999879230088052,0.049686879927551046,-0.036288104035386695,-0.17212564520446635,-0.32252050024623125,-0.42694441043815023,-0.4630513584382225,-0.44897840317580656,-0.4057082489666208,-0.35712548454285825,-0.32638599853687267,-0.3347879295639389,-0.38644568810598934,-0.46281713349324205,-0.523423401029117,-0.5447809036315472,-0.5165549786940049,-0.4383081673211575,-0.3158653467618707,-0.17276514627597844,-0.049077600275563724,0.018275526891021163,0.0316823340103978,0.006730579769577055,-0.034286581816471776,-0.06930827118769685,-0.09015875602249965,-0.08896803508186278,-0.06509689263487618,-0.029216187040538327,0.008649662251387148,0.02720038928145673,0.01218797344802617,-0.03466380168994991,-0.09005184307161268,-0.12805468332954223,-0.13460266609998917,-0.10175487191283003,-0.027193057636881776,0.085207277550533,0.20390793353291548,0.2778340406314433,0.2917128333735693,0.2799487039282477,0.2591086594113673,0.2336802414992795,0.2162642295646185,0.22825911944113336,0.26327669417136984,0.29912506259913835,0.3232716941799475,0.32506323181650665,0.30526598200757893,0.2654922959834242,0.2133630747543714,0.1673500871099509,0.13594412978277384,0.12205835288179233,0.12092310660119042,0.1293524500400274,0.14499681020812674,0.15407930214668022,0.14060883346874084,0.09667921576435304,0.03729862250500543,-0.013684475998023332,-0.023271238151743572,0.022008654701917273,0.11686252649668148,0.23852561381227383,0.353311070699117,0.4341966457642236,0.45526220917319904,0.4091128394299207,0.313880373865373,0.19828985100237995,0.09337437801062622,0.03247798957471993,0.03182408474140251,0.07552280016910871,0.13268146525939306,0.17634164779287137,0.185538974027534,0.16152179982545464,0.08778609530538314,-0.06246791440705979,-0.27113411481824923,-0.44297014161240233,-0.5382606549816278,-0.5847242258905655,-0.6087408113428988,-0.6226790467390735,-0.6211765773390218,-0.5921496263030058,-0.5402307554564852,-0.466968502085533,-0.37199010200861715,-0.2676142691900689,-0.17232969457042957,-0.102391163721304,-0.06638277251294158,-0.04747416133147765,-0.036669557320245495,-0.02956474757570296,-0.02222761436083869,-0.009666203223429018,0.010614040898002688,0.039272690569475605,0.07526164067034935,0.10018095761828101,0.095366761687543,0.05724568984470549,-0.0018420256573728592,-0.06626501398754117,-0.1304628329985266,-0.1892838166499322,-0.2434055313564368,-0.2941680326967656,-0.34476476883842777,-0.39199702120407004,-0.4195981078172074,-0.4192054784597495,-0.40208702800590346,-0.3899449223951814,-0.38613365428632884,-0.369519729303234,-0.30462523832475585,-0.14399238286857027,0.10519071185426183,0.3364139643883812,0.47894364731650196,0.5383137006582305,0.5394265997381733,0.5166852303040775,0.49322057102339095,0.4833570015736705,0.49061472560177105,0.5032747803811894,0.5108072278833495,0.5057290556734768,0.48439705447995274,0.45195604300580117,0.4192364517178045,0.38758513006098744,0.35605643613650895,0.327328588657477,0.29532676599246005,0.2523603270491573,0.19073493950514975,0.11638640714444434,0.057673293182767385,0.03213817051360103,0.04578488450516235,0.0843099820480084,0.11634787617947709,0.12602075478939803,0.11082357222369196,0.07171960418580478,0.0019333172613428028,-0.0912755413031916,-0.18103004069496398,-0.2455499456410214,-0.275221040621817,-0.27845261397012855,-0.2751752709007652,-0.2672521898733433,-0.24273899246385247,-0.19323097149065083,-0.11814846239659926,-0.0075260386384554435,0.1169359600197749,0.21767794653914896,0.2632564180472203,0.2491681215952881,0.19331087951730797,0.11637338137297298,0.049487461266480785,0.013341266876049009,0.013189867212994078,0.029166730342617797,0.03629556690181506,0.026448676380263544,0.013103899652366819,0.012497067101780474,0.03751401500222478,0.09794961945586687,0.18995898963639418,0.2820819061959221,0.33493126830279574,0.3476290623692978,0.33737202283800616,0.30443942823236175,0.25136956429866464,0.18870686645413315,0.12489010665401544,0.06894289722429209,0.016118052939593622,-0.028265486761205584,-0.04787416871302199,-0.03452070298062881,-0.013739779379402078,-0.008368176259834723,-0.027154334282967454,-0.048632952988480325,-0.05995235108773435,-0.06897918816782792,-0.11508528913563103,-0.20899270060061717,-0.326504561083872,-0.43041022042586247,-0.48118029594538775,-0.46403772453053743,-0.3969135995227572,-0.31049906385889053,-0.23149153691755203,-0.17622041117722317,-0.1398560242841001,-0.11567550493738801,-0.08423687674961865,-0.02155451240633976,0.07654606148692228,0.18208962323804334,0.2597569381652239,0.28940899529339403,0.267391841936733,0.20167666365205725,0.12053495051441446,0.047578957022505856,-0.0023833031826053764,-0.025403876053048217,-0.028099400188395893,-0.017130620902406146,0.004772644840067723,0.03048027925677102,0.05714463130629108,0.08094578561773372,0.09789834440253745,0.10475597496248676,0.0851061118145005,0.029167819488234555,-0.04590869868037013,-0.10498561913917734,-0.13658105824045652,-0.15955586858907456,-0.19654433688751746,-0.24522332613286088,-0.29449565213576534,-0.3290867545457253,-0.33166920846004244,-0.3021840020893151,-0.24061930123693204,-0.15497061135416357,-0.06195498296358391,0.01097215073094759,0.051971143030775546,0.0671623417328355,0.06881135068982934,0.07516584366687201,0.08758115933818321,0.093131894657254,0.09333172985696923,0.08709788747193384,0.087163025213164,0.09862224821310858,0.10708661512431414,0.10554148382571686,0.10711072112694804,0.11899349646413156,0.14069413242813236,0.17572542218425902,0.24121606953359398,0.33354188323147527,0.4330503715609908,0.511214132832208,0.5583884961335251,0.587446031991052,0.6072613402050827,0.6151953513117547,0.602974101765178,0.5591543566919658,0.4449788198885126,0.21581514039467217,-0.06439004500217055,-0.27409501642563255,-0.40993423952729446,-0.49813981206986674,-0.5337681492862035,-0.48820725725858166,-0.3741160530458772,-0.24036439052232808,-0.11768799418545893,-0.021934279973872962,0.03403075827960057,0.058432486640334784,0.07591685871081731,0.09275343245592876,0.10709281501350731,0.11135436164056735,0.09603493546491532,0.05664991522597136,0.0008714833269148155,-0.05625471363495775,-0.10901007505004306,-0.15653137762676422,-0.18576037585205335,-0.17125844115286223,-0.10202247326794199,0.016065926152602033,0.14877095486853328,0.2627268901658611,0.3473578026304348,0.40508141067101455,0.42112339695478423,0.4027265590208816,0.37181868503922516,0.34335320678443654,0.3161287780053079,0.27067489733984806,0.15217141572369244,-0.11339149083946894,-0.44036926854056874,-0.6414968023727684,-0.7248456192748377,-0.757381862248582,-0.768011611859461,-0.761698293249416,-0.7362614571892943,-0.6916587787135209,-0.6255987044258176,-0.5337358614986569,-0.41304450594242964,-0.2594416084075349,-0.07839486177245929,0.09827172143932214,0.2189456618965458,0.2680641476230271,0.26570968200784784,0.24000070330223744,0.21374408179689777,0.18971612016450118,0.17083886704934328,0.16091726353488722,0.1585677482933011,0.1541700935987514,0.14120415172066025,0.12844410859543692,0.12151980652545048,0.11787823178378774,0.1163114034669595,0.11873956588166645,0.13386290536609075,0.16014038470482975,0.17677886402461312,0.1632413519257249,0.1298724989288367,0.09544313296735314,0.07734694885948955,0.0757737531954243,0.08658201834484776,0.11499485058147917,0.1668368688843761,0.2327168577432364,0.30473273127362704,0.3785460730430046,0.4389931691242215,0.4758462569119606,0.48470350327311795,0.46790361794898844,0.4296166494452235,0.37059019805324156,0.29030095920730753,0.2218322323412167,0.1960840363022402,0.21389032485571666,0.2521068577100572,0.2859850022849593,0.31472644689765944,0.34010638583565006,0.354346784323656,0.35394605708848337,0.34660442476351977,0.333931447486054,0.3321837179748836,0.3465998412495112,0.3782491340311537,0.4226684193362924,0.46123527065199904,0.476979905408331,0.45857490613342483,0.39653053598845994,0.26928026506013447,0.06561859925029719,-0.1760346181867451,-0.3786764072482166,-0.5154348828173895,-0.6104996953840299,-0.6858825067609999,-0.7535192259777335,-0.8088725673068201,-0.839028329406508,-0.8379224216421867,-0.8144530158346381,-0.7875125453113687,-0.7750430054481477,-0.7691666570894334,-0.75250299527742,-0.7131883063470403,-0.6483274596902905,-0.5737538010899497,-0.5071347321494412,-0.43951305364534593,-0.35306915815062023,-0.25560959147747725,-0.17533853242701825,-0.12381796332670882,-0.09346722982279855,-0.08068711051081826,-0.08806916784182632,-0.10703712895835618,-0.12593124667695932,-0.13214657064949895,-0.11548003707194414,-0.054712217400317335,0.05743727996066008,0.20153798043141605,0.3358692612667506,0.4325477730927715,0.48856896216892653,0.515042214942947,0.5195437383736482,0.5086573894539954,0.4849685535068741,0.4493798180405846,0.4013698877890767,0.35142267336914573,0.3123220865665841,0.282924963839191,0.2519529138964444,0.20774913986175475,0.14851237711286316,0.07840702724933245,0.02546505783265045,0.01773357074998487,0.05856748354150207,0.12531259053598848,0.17401209723681998,0.16306049596267205,0.09066986441952649,-0.008951651572823507,-0.09864300280151475,-0.15179562007974945,-0.14065563075102896,-0.06808460515520766,0.04463677468890901,0.15983966431043334,0.2536965516020552,0.32241519906125965,0.36617996389074337,0.392608579706184,0.4133182378499056,0.4339972210446758,0.4523251837990684,0.46579345139662,0.47016872276956306,0.4650409401499233,0.4552796521659834,0.44767368517661854,0.44884620525084185,0.4535375524409036,0.4547465417690493,0.45107640128010856,0.43727452262163075,0.39483317882362384,0.3133202662136936,0.21483264063441115,0.12930094531760059,0.07855725369571095,0.05714008045835062,0.04012283140893011,0.0022957393422234247,-0.08334015464321133,-0.23078202923758662,-0.4312025652724905,-0.6361713854000863,-0.769006670829236,-0.8080308150750034,-0.8015848927273502,-0.7877031480130743,-0.7769341599309626,-0.7680568112901675,-0.7583529234310625,-0.7385281015855565,-0.6996270139349552,-0.6384450854183038,-0.5628334809830842,-0.48270946430913947,-0.40089025844064374,-0.3120918348867596,-0.22026279831020856,-0.13026769185367884,-0.05598543870625605,-0.0046799665154858465,0.010501491721020951,-0.014057580818333294,-0.061812985292967,-0.10795980008520265,-0.13880364249114,-0.150106026509902,-0.13919875736476658,-0.10965001269931128,-0.06759261003997889,-0.012359144856522595,0.0691356874259475,0.1791486765436151,0.2988198629632784,0.4049466345945588,0.4956926725937536,0.5800216515387003,0.6583128868715261,0.7004815645991839,0.6928427406505655,0.645588827670278,0.5739768205879526,0.5081747742279316,0.47611537071294047,0.4807992049585019,0.4964507773562381,0.5014821040426728,0.47419977425220533,0.40308795467525715,0.317944084589015,0.25739390515822014,0.23895178183922172,0.24732611491391515,0.26642640721129174,0.2868140915110551,0.29441206956624566,0.27879747790535336,0.24456842290954683,0.20297318002103462,0.16693486114909084,0.13714827050690093,0.10349764663059846,0.06831599836333549,0.053848325185535985,0.07042974378283438,0.10970991650299525,0.1530496492497692,0.1829192435843513,0.1881425996858155,0.16914131961093404,0.12744868769796913,0.06864494575189359,0.022549944793274646,0.0036309803180140775,-0.00338972177060956,-0.03479997317212934,-0.11139677530707183,-0.21220315104885534,-0.30658205010903944,-0.3694248897661689,-0.38660482594859946,-0.3579529842017589,-0.293417728964871,-0.20859818434350033,-0.10945094773723762,0.003712371294748337,0.14056801598565355,0.2844885879219855,0.38510750191706117,0.4308416604765742,0.42750409734920897,0.3765188640504268,0.27742091797418905,0.12855491806871497,-0.05417543139792292,-0.22259293307443634,-0.3321392622320211,-0.3846416532464585,-0.39683649532216575,-0.3672921273305744,-0.3072248041398572,-0.23261998756767843,-0.16378460465044103,-0.12207895633691618,-0.12257413847803562,-0.15870210372971197,-0.20158432424246783,-0.2255980453144774,-0.21356773800339707,-0.1541597170202982,-0.0552485928839071,0.05820565743764698,0.14789179543817885,0.20866435165498476,0.26484125051161167,0.32443467787417596,0.37279303008458753,0.40254590320814565,0.4158312197371993,0.4109806191939147,0.3909961936648293,0.36195741909335627,0.32726458172951045,0.30001912980025214,0.2821775886152052,0.27232195922316466,0.2811567297470099,0.2934468982493179,0.2507749902834345,0.10052928977767281,-0.13527680832592665,-0.332042585204936,-0.4020462914220308,-0.3471462283093091,-0.19789141875971158,-0.016408435554198485,0.1264831642724228,0.2022453069048006,0.21321182222421242,0.16793830691117567,0.08579888586324418,-0.008960166770265081,-0.09347612602352574,-0.14990720857177037,-0.16455799678892885,-0.12805875600740582,-0.03809319015414283,0.07820046127978046,0.18507681730029404,0.28077087697737196,0.37218904657126994,0.4473632351860996,0.49154829772792424,0.5002529574753372,0.4783969627326088,0.4297273580108762,0.34336344129713126,0.19770522499926665,-0.038750322159969784,-0.3103922868678876,-0.4990732627473305,-0.5856822572345313,-0.6104012414953097,-0.5800875559381108,-0.5020808798457768,-0.4047253666291055,-0.343696661614036,-0.35271844378995254,-0.4274907603031609,-0.5284221471548471,-0.6104448263777001,-0.650849628156713,-0.6520306137543042,-0.6211865434095333,-0.5516810723230022,-0.4137527241990169,-0.1788010632995148,0.08587536645637836,0.27519864444879144,0.36671281120675375,0.38041266499681387,0.333973866501455,0.2491236348648126,0.15219776247170982,0.059559914103716784,-0.011773200468399119,-0.0527838576867828,-0.06500105556281616,-0.04806514166320548,-0.008341687877764098,0.055783407351236776,0.14934660440542433,0.24356416015658083,0.3053730288436114,0.3340132181567822,0.34550624982970046,0.35730254817194046,0.37503851562809964,0.38696138601997176,0.36888393852318957,0.3059639177805798,0.22922522591202987,0.17615408595481363,0.17265111920137916,0.21314300859018537,0.2647812901299854,0.30272219362038083,0.32188656891360673,0.3303694162270949,0.3386627930532133,0.34333754642138564,0.33979259677338386,0.32379106787660406,0.2975503488469354,0.265940919117271,0.23300642549072184,0.20162726916614618,0.17233345462897492,0.1558177239503311,0.1559393606007605,0.16366276034669977,0.17340298393161047,0.1837202611706906,0.1930686422479543,0.20142406771431376,0.2041342673399926,0.20590972910624997,0.20532082863131526,0.1993549764816969,0.18375572517512812,0.16504752354335395,0.13881501549598882,0.11107951433754222,0.08717234305039524,0.053420050107330766,-0.0030120108393056812,-0.08830797618536645,-0.18748985207744176,-0.2838169802714378,-0.3710470944632669,-0.43380166884820553,-0.44273053265229856,-0.37824087353913644,-0.2521925781328411,-0.120201548313421,-0.022365498311679707,0.027327203777793626,0.0013457295553310025,-0.0999469392220552,-0.2328636206884219,-0.34067241301182943,-0.3884018382364517,-0.33595769531487024,-0.15764286896121946,0.08244416743230162,0.2728542169592921,0.3728743080205383,0.3945855278439417,0.3629757609246294,0.29542857016752155,0.2095648347302095,0.10459755582813815,-0.028447581977670063,-0.18400533826339147,-0.33637920889926404,-0.45957222657592023,-0.5343365304593529,-0.5699042926147487,-0.588875223993666,-0.5980809945679747,-0.5858695171220181,-0.5282812945746869,-0.396577413152558,-0.18298055594982943,0.0845160375006677,0.35086104323775624,0.5635036467081321,0.710983711751689,0.7999914861952784,0.8416013974704093,0.8505132215869738,0.8444101047031719,0.8293556579004553,0.7989876363260352,0.7446449111281219,0.6483098857120705,0.48685527421284935,0.25176119530153857,-0.0033472296144883814,-0.19535229516078673,-0.2921547464643792,-0.3168253823521294,-0.279588747980914,-0.20961304725095498,-0.14070660764246096,-0.08955710524727786,-0.04870076436876451,-0.005969451726343769,0.03366920581431205,0.05491708247433296,0.04615367255770265,0.0216586990025249,-0.002980888289083014,-0.014730855033679923,-0.007602589485054489,0.017580759259647014,0.047433535491397914,0.06174516795189899,0.05152268514695172,0.01911896318546272,-0.0187179525818407,-0.04991332190258213,-0.07062470498421483,-0.08542291859783387,-0.10709835892125169,-0.1471345652508762,-0.20227020457766975,-0.2343866192961475,-0.20310738912376838,-0.09259180875442763,0.058173014194665036,0.19040881638068965,0.27063975134427554,0.2929822916630598,0.26704668913876217,0.20373949934759195,0.1394788276961594,0.10966316187409068,0.10096504833023504,0.07457369851410574,0.008488579268676757,-0.09635294371366156,-0.2182206457085838,-0.3115026768788783,-0.3675803290814394,-0.4025934346823671,-0.42823915991871087,-0.43545522195713865,-0.4118099534305996,-0.3585202138187938,-0.28529636644387424,-0.20814679024840355,-0.13180508005018696,-0.06249889056378149,-0.009820976915168311,0.021040618429987664,0.0418844878195413,0.059249705951575346,0.0711698456927915,0.08619077823693196,0.10782391242835662,0.137282457324038,0.15591017323801953,0.15268707043514068,0.14529859869037498,0.1538851203740856,0.18612437198483375,0.2286444487411011,0.27746083901826646,0.33552172504743505,0.4051529399488294,0.4760205525394271,0.5318836947507256,0.5620091309827918,0.5739673038014411,0.5781982769137436,0.5741647936200389,0.5590067267726797,0.527342991846131,0.4860926302721194,0.4438095138063255,0.39882555045519963,0.35024161656973213,0.2950299281879046,0.22877723515527967,0.15698660017697705,0.08654439283056743,0.018657095682357086,-0.04719288394085619,-0.09813991793886796,-0.1246539833627787,-0.11750408325825736,-0.07254717796794581,-0.0026758565562456354,0.0715960887543428,0.13420097210317405,0.17839627088529147,0.18752033269451074,0.14026574121161767,0.03710096409964161,-0.08350992201436969,-0.161771040333317,-0.1979489029807163,-0.22003076156975684,-0.2528184940347044,-0.29497153207109017,-0.34089995074341467,-0.38927873850681016,-0.4304661083748684,-0.4376358496624653,-0.39016403303190805,-0.3099945256142316,-0.2366081019666798,-0.20026105195384566,-0.223816733236139,-0.3071994828097809,-0.39427150448969345,-0.4324340340220531,-0.411820920919128,-0.33516398424175375,-0.2382167989273051,-0.15986041879421314,-0.11267120023923986,-0.08865452005567959,-0.07402268016495932,-0.05982946484024349,-0.04061417376271291,-0.019506271397408625,-0.00013634955464024431,0.010154240439149797,0.020894560166556133,0.04331722927763171,0.07935817072576913,0.11780642787402743,0.14802382782159776,0.16086807292393387,0.16055572385923159,0.1651777477408758,0.18849868537018996,0.23956380576970057,0.3187406581591488,0.4200001881530373,0.5006331019073018,0.5271311781242907,0.506236033239382,0.45846519029218297,0.4059221556921571,0.35692930783974613,0.3042381477785528,0.2409670977186735,0.1675781377620967,0.08995981750658215,0.04435431872919,0.05262498433428799,0.07120196091924041,0.06074399215798643,0.0022840105684654183,-0.1120152699187916,-0.2382982757070157,-0.2925967819812094,-0.22861044298559244,-0.06655303243608406,0.13612092966498812,0.29870441463467445,0.39675023061522857,0.4459985977355341,0.45916858045642506,0.43682050300297803,0.38706658050806614,0.32902705666223364,0.26471178644776155,0.18341771442059157,0.07222186988471158,-0.06323329412607515,-0.2037374202589893,-0.3260290690235395,-0.40946154319317807,-0.4454751433395841,-0.42977335201532785,-0.36013949198516976,-0.22686416975637874,-0.03832477708984517,0.13627712560787542,0.23680805815584863,0.2632224727165643,0.24538973035321202,0.18735588713090487,0.07549451499522035,-0.12322345598538285,-0.37092479173477044,-0.5244344213262646,-0.5497733530047912,-0.48379570043603387,-0.3518771479622653,-0.19378587247767093,-0.06856016523132018,-0.022409495945054633,-0.05617299751738543,-0.1244995503948141,-0.1608418154731961,-0.1518094246544103,-0.10914331369056117,-0.05270986961213155,-0.004083777315095319,0.033346569494609506,0.06111982272337542,0.08048664712407443,0.0900817899533794,0.07468674198430278,0.03381416821320098,-0.006510995695771536,-0.033038659471080846,-0.03292338875678636,0.01147804833466212,0.11235624832415722,0.24014731194753194,0.331082633239517,0.3495764108344062,0.299702164945853,0.19500600931870674,0.06036986991541286,-0.05758183017257307,-0.11497070350788427,-0.07971949249071224,0.03560650206468988,0.19243947365779285,0.33225133190430844,0.42263667763806684,0.4743142712167275,0.5068259489270878,0.5152965811852178,0.4841072851111944,0.39403637935171154,0.2470998036344786,0.0856908782836632,-0.05070595882543168,-0.14652101095967784,-0.20231687035478055,-0.2370362333263267,-0.2575471647613038,-0.27087858686385113,-0.2861877271151867,-0.30238465434465817,-0.3115888722445049,-0.32000940205805156,-0.3297142882556552,-0.3227683515795837,-0.2884535082601575,-0.22115193575717712,-0.14155816184598138,-0.06808424691034559,-0.011183451797352504,0.02370281870912465,0.03597947683681038,0.021600650301457074,-0.021583627034294332,-0.07901377439789746,-0.11989854086366915,-0.12150907849104053,-0.08395842267378831,-0.02612815262300239,0.037414400489334004,0.09637963643560546,0.13680140731763754,0.148161547140041,0.1376319951209716,0.12281740586870478,0.12392684346827303,0.14635844512282356,0.1883059860701422,0.25328812207745705,0.33367916850340756,0.4125044963079577,0.4537612063441012,0.4313771365857541,0.35941920314362036,0.2714406029432977,0.20522730834582834,0.17777044899050895,0.16858844365250772,0.14509854314860562,0.09710281784578763,0.04245532734275466,0.0046370936661889245,-0.01842513292213939,-0.03635441168540762,-0.052855478692366606,-0.06037960645363578,-0.051859121533344994,-0.026238076868284988,0.007532873066199359,0.0332460720659869,0.03300171744406764,-0.010313862044813995,-0.09713024583472464,-0.18680252887532725,-0.23149537883821839,-0.2160378733991906,-0.1519685179844264,-0.06671878522804092,-0.00838778506099948,-0.013144434704636894,-0.06519292680177287,-0.12584027700942144,-0.1559043006685487,-0.13309569340501173,-0.04234302945895158,0.0845899011474902,0.17558448440670862,0.19654354087811018,0.16312294929357013,0.1122857025179981,0.08138248914824357,0.08415623650294239,0.11934444594427296,0.17387702791324913,0.2192366909104437,0.2162975434904872,0.14989528659926468,0.031838477746827354,-0.1021085980021613,-0.21009653622765498,-0.25896392225899506,-0.2420753350400121,-0.16116837161826902,-0.04344496931156742,0.0865518076262415,0.20653626248626006,0.30207701406984283,0.3708782605261056,0.41639088470758906,0.4431414592092803,0.45646158499977585,0.45829539612427317,0.45217044369852466,0.43965692440869436,0.4148825840908528,0.3709366485161786,0.3038970097582436,0.21469101756260714,0.11312140844597658,0.02889057033472343,-0.014105677855557464,-0.0024877615431106817,0.027898090926201796,0.04315148528306452,0.031773679034999475,-0.0028455447000870415,-0.04805615685524035,-0.10605198241909713,-0.19455917997261762,-0.32838976283320925,-0.4895659541032674,-0.613715008701628,-0.6564944388830319,-0.6466215768180122,-0.6050694537046902,-0.5524325744368878,-0.5091062634293435,-0.4882172212970144,-0.4895653699617787,-0.4975447856309972,-0.501244656699613,-0.4892489051710569,-0.4697834472542663,-0.44569787779693343,-0.4071035861905565,-0.34506624671098624,-0.260858665115656,-0.15594702394918938,-0.043950177427927714,0.052333475591108576,0.1089597423552293,0.11272811984693021,0.06658243511044533,-0.009805895673314814,-0.08155787290305648,-0.12278335075572702,-0.11655274516374939,-0.043733865740628125,0.10039293822803048,0.2596777461692332,0.35307803497956963,0.37436136662712854,0.34504712849917496,0.2762650133307214,0.18892960969202058,0.10880060538524126,0.04777363801062985,0.013982819418746613,0.026493244861821936,0.10304824369616018,0.24169940404067652,0.40335755763604336,0.5309940768202595,0.6077319943445488,0.6402216193878066,0.6354454821880123,0.5929533934015987,0.5221665471401045,0.44469624522382145,0.3894794452900655,0.3612648534424197,0.3448993080764712,0.3215441491236788,0.2812295737951615,0.22365757529626928,0.15508679928731584,0.07720634241180394,-0.017468620166938845,-0.13243207782748231,-0.2522868508490677,-0.3444526458288892,-0.3984766108698537,-0.4237724266545073,-0.426561616427766,-0.4056690855289915,-0.3585664776074497,-0.28408403732740534,-0.18671464244650254,-0.07006700142543153,0.05521160952347342,0.1680720193457792,0.25417691697493866,0.3255715685424151,0.3814304698072061,0.41873034790972885,0.435670302427467,0.43490915199867997,0.4240663903810134,0.41045048031795967,0.3937659283691607,0.3535656944284981,0.26330327520468827,0.12919557019131953,0.005304711545560235,-0.06103159362424808,-0.06546705147278901,-0.008221420495138309,0.09932491198017104,0.1995813346710665,0.22803679835870275,0.16454857974914225,0.013600529527159984,-0.1560462768776362,-0.26068335588415814,-0.27734695283404653,-0.22179688895595925,-0.11357600972932765,0.022624202257574746,0.13958038404577774,0.19731192097833122,0.17488601082789323,0.08384979183866735,-0.04404478602712481,-0.1681333898901121,-0.2559991354979829,-0.2844223751584993,-0.25115216240462596,-0.17192335401917833,-0.0714211079982488,0.02366241384070364,0.09414312757465576,0.14332416789862498,0.17592217885895717,0.1957095865305525,0.2074488708336315,0.2142986502755721,0.2208161791117352,0.2313301566582422,0.24326602165409963,0.26281265097102513,0.2853754790445523,0.3010236662249121,0.2788750305966418,0.1953346862573849,0.05675875977963111,-0.08219792049274181,-0.19153409974530441,-0.257936962351098,-0.27660145996303687,-0.2654616470393867,-0.22713845590747006,-0.17199303683484848,-0.11179215153661502,-0.0452466201822335,0.026425211123774828,0.09376884869257757,0.16528124279963866,0.22403569827178912,0.25203295924430263,0.24939854650553975,0.22004058691093423,0.16903710221325058,0.11143850659192638,0.06600001718745069,0.03761041169568032,0.02752075432213193,0.03176429331873936,0.046732247848621705,0.07462866372880957,0.1036913742039923,0.11315459193125504,0.09536342499333726,0.057482529324250506,0.010314832131984053,-0.028237561322748433,-0.042013655194851264,-0.04255568851620601,-0.05548331209156089,-0.10411663561792453,-0.17154173669765507,-0.19081763401350982,-0.08641694575265442,0.17438511452776184,0.484466253059295,0.6568265045073926,0.7023032250901159,0.6636384090615144,0.531007617508146,0.31038983479924603,0.07900338260820255,-0.08923041278959194,-0.1599010050055276,-0.14042335953863289,-0.04690151563459386,0.09078576467951814,0.21942326315056185,0.29383723513480053,0.29534798186937294,0.2269825737528803,0.09785449207131967,-0.06556579020219427,-0.2123807570109711,-0.30203074846682065,-0.3373064728224362,-0.34326534379413276,-0.3410947665726284,-0.3459286127365212,-0.36769338654525835,-0.4133540426459827,-0.47009590252951455,-0.506161989729,-0.5010288596354894,-0.47528085712915147,-0.44772843870582046,-0.4147957540921854,-0.3543613849951538,-0.2490582508756014,-0.10823942454372139,0.030387242768939938,0.1411631633345769,0.2198153558960958,0.276455775636301,0.3171210569302226,0.33818984535758484,0.33256212927144724,0.2980384026957192,0.2321014002938018,0.1398877571342909,0.0435465992171457,-0.02144795650757922,-0.039430974806665096,-0.019370268831731575,0.023626428946149084,0.07629426974096187,0.1259125363479349,0.16015643273373498,0.1779534367031422,0.18218629870188713,0.1811407488001025,0.18149285803388365,0.18596041948324735,0.193951320223579,0.20018956299170704,0.19513467348306052,0.18706245766607202,0.1843260051481354,0.19099223952597852,0.20542889596706854,0.22168817917900457,0.2240771719615898,0.211915113686076,0.19143232184368925,0.17787856253416537,0.1751440930172464,0.18959716023682488,0.2301397263233092,0.2982920721506624,0.3891001303812792,0.460667853676321,0.49010607714516935,0.5007555912934951,0.5093545385881231,0.5170442936315727,0.5054180180024695,0.4491578322273767,0.35188485312927703,0.22641079983989848,0.045438792475307854,-0.19038743617279966,-0.39200274466936,-0.5059780555014428,-0.5589644430527626,-0.583674180085994,-0.5892938455282262,-0.5606297680340551,-0.4820098719482804,-0.3479835529323218,-0.17856568128053946,-0.024591738297293414,0.08175505025420597,0.16244058745889847,0.23928677646359653,0.31630208117436626,0.37589145712242605,0.3879604926153794,0.32570531198387,0.19875174468012202,0.037130798202050286,-0.1227956272153534,-0.23702437170706905,-0.2852199823543581,-0.27857251092528335,-0.24421188628173024,-0.19959807336961327,-0.14963894342333853,-0.09321858129544662,-0.021535241955753626,0.08030501024207633,0.2163422403593034,0.3413778448492899,0.41031729680776313,0.42544693464651245,0.3785434564224694,0.23948247852263374,-0.027226948478119257,-0.3022174935082563,-0.42483155743065426,-0.38933676578870685,-0.22524391434500515,0.015112130103032933,0.23976323076192824,0.3845507994026894,0.44346393432677567,0.4407672705807475,0.40992638795466,0.3697525310854652,0.32873275912680305,0.29396074630558305,0.2593478098737847,0.22035867926604386,0.17605977099629275,0.13318173893637286,0.08972723308815306,0.03920793710277386,-0.01304198246685251,-0.06269311159510012,-0.10567701880960312,-0.1429834544465529,-0.17173926168729686,-0.1921855136980941,-0.2037408561795539,-0.1922163359680251,-0.15258930575662139,-0.0880684959137729,0.003299192535571374,0.11556440112991573,0.22379526612706468,0.304197584434563,0.3574046692936341,0.3934993119577992,0.41535933416173804,0.4165337465252147,0.39467702103177227,0.3562273013999014,0.3109540431084636,0.26818633545082027,0.23013428873643682,0.19720555175913204,0.16410722300399241,0.13012068915935915,0.10382124640140579,0.09549036763093198,0.10744820443085856,0.12957605906951594,0.1440770517778092,0.13832147603453587,0.09832267459969578,0.03206922337610344,-0.035383804240850684,-0.08606650752984035,-0.1152364583950334,-0.12110009103907456,-0.10601705555169769,-0.08454102941901184,-0.07762594113221113,-0.09491651553346261,-0.13711101454204327,-0.1913419558026844,-0.2485549193878792,-0.30117107743485677,-0.33585675122606923,-0.3469503110989888,-0.3427341082866976,-0.34101830154856716,-0.35287753017580126,-0.37437012664449143,-0.396697469155634,-0.4062121925496326,-0.4014598232485268,-0.37716163783233086,-0.3243667225870555,-0.23948730415111347,-0.1390623096501157,-0.06645016173708389,-0.0620038417099353,-0.12582952657473054,-0.20546995489718314,-0.23544820000764374,-0.19321549561058807,-0.0902950274101099,0.0430395902371908,0.176120557695274,0.2796356241251161,0.34376112815870385,0.3732572307259338,0.3809727336040301,0.3723695269623707,0.3474572627450494,0.3177223406240365,0.29771119062919216,0.28220083216706043,0.26125185315811195,0.22806867773257275,0.1744490025556526,0.08818242335619801,-0.026064748993640884,-0.13502464315136234,-0.20423340883619792,-0.21577174054337936,-0.1787988793353605,-0.12558176577988944,-0.08025458250903672,-0.05280827821687782,-0.045065837691747664,-0.035076897459239344,-0.004894946359281015,0.046314004548961764,0.0964817162459403,0.13396027824313864,0.16270057647934538,0.19393968518694155,0.22133193309372487,0.23497109698272767,0.24671010016401074,0.2757383919061603,0.32976698624726464,0.37645986372426626,0.3742659607002393,0.3151178395257006,0.2393508773542142,0.19152457955674773,0.18574998852356336,0.2241690770583351,0.29896196618994036,0.38043539571394763,0.43661114181023414,0.4381578873418473,0.37814394504809123,0.2705069662387012,0.1343749182541939,-0.008945728184532336,-0.13110270213242398,-0.21386917170495415,-0.2554276629297021,-0.25997810944311384,-0.25004099777788763,-0.2344572553025922,-0.21683856321522388,-0.20073012580938387,-0.19193598274362678,-0.18965199445425562,-0.179529373919409,-0.16432802782313083,-0.16877813963407104,-0.20323833819802462,-0.25669503946714384,-0.31436839297124225,-0.35962947447608395,-0.38510284838264747,-0.3776152458276746,-0.32695437389638154,-0.24120353774281394,-0.14458863192648583,-0.05670938099411581,0.020129569456836673,0.10267501809937396,0.21023359243203096,0.3265581260015182,0.4049591934774932,0.435759649816774,0.43133006238864285,0.4066386880960558,0.3839918238136287,0.37153755986050024,0.3704356687541944,0.38213004955344,0.40226588186905377,0.42446125587431377,0.43570126829566536,0.4272204004034225,0.39926972335447686,0.353406505545243,0.2919704586579746,0.22080186647898398,0.1525716114288939,0.1090775673040228,0.09667408236108876,0.10731363260779087,0.11435914770904511,0.09971013037062061,0.06487672042798973,0.023635952232944707,-0.007156082400982344,-0.019377969605914067,-0.012693169178790618,0.010359745353227114,0.05524561911758532,0.10965038914728677,0.1389474955966231,0.09863085686038114,-0.013356678258326501,-0.12289122866804145,-0.16888715690359943,-0.12903874365529747,-0.012890881756897704,0.13843861575592079,0.27743146226067145,0.3820396283499331,0.4389792206489799,0.4391830845165714,0.34790176427142194,0.1432747858522487,-0.13471330258867775,-0.37291650288079176,-0.5226701007565856,-0.6033947110635594,-0.6381839705759688,-0.6380468081946065,-0.6149942369579794,-0.5790354822433837,-0.536946498968741,-0.48716294742225297,-0.41647692824098353,-0.32007191178953354,-0.20733009920774464,-0.10472431199633246,-0.028556587380346422,0.01858486982506943,0.046031938420875655,0.06940296996945255,0.09143831724374252,0.10773604268943651,0.12481812014839254,0.15168184242961807,0.18518165652775365,0.22302031847716747,0.2746346485952432,0.34180000029437047,0.41042053317407234,0.4738629051002536,0.5312729284238359,0.5732589633351965,0.58963166746823,0.5783699334940364,0.5352933191080036,0.4742156709551311,0.4255773861041173,0.4039725015009985,0.4116464983683976,0.4414304522931822,0.4858854559711453,0.5213257069290514,0.5284792117379487,0.49229759057595424,0.40983050050263986,0.27934432401198517,0.1336082821133815,0.01665036642186832,-0.05377269191398063,-0.08541720087863443,-0.08286427194161075,-0.05223984440542805,-0.0004396663606896127,0.06339283029429157,0.12736579552186697,0.17463217241952222,0.1991410787127596,0.19889482019210628,0.1733687833333679,0.12734140447193285,0.07403349610295383,0.03147061829862505,-0.00013870874540364866,-0.028022695779474478,-0.056653283989393594,-0.08474921467367542,-0.10959461937977381,-0.13602603388403847,-0.1618466451047091,-0.1916019820090557,-0.22737726490046895,-0.2535489219892945,-0.2498134853001252,-0.19918140250095628,-0.0930146630056725,0.0418282040566733,0.1504929623913951,0.20164081449537025,0.18847106959954124,0.12282399982905026,0.04525262144594591,0.0034718736741080726,0.021252479059457135,0.07845245368154716,0.14859850538654765,0.2023747112466695,0.2368493772373236,0.25104174922093914,0.23834111968386373,0.2080484347725825,0.1707243877667577,0.1279567331426791,0.07090593830843978,-0.003725067477311394,-0.0890777953303584,-0.17718391266833447,-0.2559951071709867,-0.30837843894662226,-0.3208901637917361,-0.30502399679212944,-0.27783204018350033,-0.24462118749807243,-0.20507852096679977,-0.15051412392860494,-0.07421669432180175,0.010347335880764901,0.07553700463638838,0.0958102229864616,0.06551323961099781,-0.014623602676437438,-0.1299687517353935,-0.27453977336630164,-0.4245829692720722,-0.543161665744082,-0.6072842374452957,-0.6226576635519601,-0.6090712208335153,-0.5958995535413452,-0.6007756591362748,-0.6154140621275442,-0.6111920696272568,-0.5579427719948796,-0.4374553106739619,-0.26868788846310415,-0.10300350804035535,0.022737563288300327,0.11715539934420023,0.19784207374837162,0.25499972149879324,0.2823722825645944,0.29469411617721797,0.3068359965370996,0.3242609603695892,0.3460006394955765,0.3708463818635977,0.39717149338691776,0.43070925417075595,0.47555483749980365,0.5216272796175903,0.5534020926893641,0.5642782518892211,0.5503550152812301,0.5113373304180536,0.44943284663634614,0.3708081339912159,0.2803206815536337,0.1898141717423091,0.11673440996442364,0.07057333799182212,0.04954404450488653,0.04194689601663226,0.04576211710043536,0.07536177275218281,0.10833947889937101,0.10876779537293514,0.059541425905446206,-0.046737523382579985,-0.16586106913802645,-0.24057060885246664,-0.24703505468439332,-0.20422462381697562,-0.1537563433012736,-0.12281395455805252,-0.10562836904874953,-0.07045858341151962,-0.013219311721688951,0.0482354413019786,0.10184426965464047,0.1409255687473695,0.16578607144896076,0.18226125009013794,0.19029092642552234,0.19074019463129918,0.1853183063260358,0.17941652356301954,0.1881370990003745,0.21604313599292485,0.2506268512149203,0.2766523815966428,0.2802157211667338,0.22755619793944676,0.1142274789905909,-0.01622429438355629,-0.12664972064869215,-0.20569963194200278,-0.2625398937139032,-0.29931266008612756,-0.3159813403341148,-0.2938764387095528,-0.2453682656509384,-0.18758721947212037,-0.13253872299065855,-0.09814860631779168,-0.08496138000819238,-0.08499982615504481,-0.08161054738409533,-0.07155180798881945,-0.055919599152093394,-0.02768905326674732,0.017751694769283052,0.069692558789526,0.11994791134980763,0.16893141947521542,0.21144270972316564,0.2408473404103296,0.25736057750946884,0.25728987885105903,0.23849204462273482,0.20046787899079008,0.154539246416785,0.11240889447704865,0.0888365745908984,0.09322717774887904,0.11779031972989755,0.15001573532687731,0.17720664092183958,0.19744741626926587,0.21903112651610238,0.23954334157796076,0.2548404144007417,0.2561000258153043,0.23538180947570966,0.19522094019720387,0.15005223919972333,0.09811922608746963,0.03678718443891887,-0.029961399122355802,-0.08367469686676625,-0.10700216241991604,-0.08907202894862463,-0.026535753865831502,0.068644717944118,0.18320451641409286,0.2927495607749204,0.38017618978710477,0.43527118029699097,0.4531795566879363,0.42682055116583695,0.33443574732909753,0.1619758998278583,-0.07761955563506376,-0.2998470280864548,-0.44960664043909626,-0.5349566983351266,-0.5739532825724447,-0.5730672413024738,-0.5362474507453957,-0.46908845112269987,-0.38352806644858056,-0.2971536744303298,-0.22585041888862012,-0.17359106956576859,-0.1377779950085,-0.10695588663334449,-0.06642075334157815,-0.010362431497705849,0.04903874307909998,0.08680025511628614,0.08987763218941651,0.07054139511637776,0.04690628659818618,0.03129793857769571,0.0176329391068121,-0.010020243714299402,-0.0604670447127637,-0.1285334556062881,-0.1953052949002986,-0.24651256874218783,-0.28409657055273896,-0.3088894958941459,-0.30249899011015996,-0.23889831703958406,-0.09601926275611204,0.10890717793318387,0.27940187629006497,0.3927193355403346,0.4718951199443936,0.5247564542358536,0.550460237369124,0.5475288124459062,0.5216367281333325,0.4820518780185939,0.43579197087800875,0.387145095517546,0.337462608694725,0.28478270333107125,0.23722345532508465,0.2122179048768055,0.22396095537180044,0.2690119334483165,0.3300506401497631,0.3780976757316244,0.3816190186057689,0.3253347417679557,0.21266680382133724,0.05953769808768251,-0.10366346807305674,-0.2460825459373602,-0.3468834569176972,-0.3996609399766254,-0.4114102424492794,-0.4008041546602233,-0.38729395680590956,-0.3839121703114079,-0.38390164114313163,-0.37859136974299873,-0.3500472229280395,-0.296496084235272,-0.2458678158705664,-0.2179225388766865,-0.21057519005589967,-0.20206105559371887,-0.17332198723516656,-0.12579543905402032,-0.0959018224698162,-0.09345603923153414,-0.11103725476142567,-0.12203724252858976,-0.11057192172632846,-0.06394779291990785,0.008332129465222297,0.08383758314768157,0.12731982186134028,0.1408229863251608,0.1481679517109943,0.16415637679098818,0.18871644820301212,0.21426627220255287,0.23272972953788074,0.2437083168731819,0.2535337767010357,0.27015009938320306,0.2925478887160985,0.3094269358384675,0.3151215609564682,0.31996736539544257,0.32995382977463344,0.34674377285626057,0.36425080946331834,0.37933965652389645,0.38377414864210924,0.37493674118132164,0.3507566041673286,0.3088406695233777,0.24256020007486484,0.14507121145556154,0.04862375850236987,-0.014421333289988,-0.020265455076772437,0.014486169215790188,0.060327346008512035,0.09331962179117377,0.08863909876211262,0.04700954671521854,-0.015279726998783896,-0.07524827136674335,-0.11291571382380773,-0.11134541069828557,-0.07205195719700792,-0.016487033673064467,0.030274772865478326,0.05738704403827491,0.065668982234945,0.05005281991821253,0.028367383293865376,0.02335963023093793,0.05471673205987915,0.10662158757148837,0.15104791054421804,0.17168747028486084,0.16389670477429963,0.1261597904075309,0.05199849299738362,-0.04518569861110179,-0.14285773895887852,-0.21333267588963814,-0.24262283030051784,-0.23097954853904143,-0.1952022466034249,-0.15910576839414609,-0.1311931926641423,-0.10987389451347643,-0.09866876589433302,-0.1004892985041443,-0.09796808808782537,-0.07212338092027444,-0.021847928531559948,0.03814323143939424,0.08180646636242518,0.08444850757315404,0.04490953759029303,-0.01401376450952667,-0.06558408771088585,-0.09643144184344887,-0.10189216632959038,-0.09550520433592505,-0.08366633742596293,-0.07987427672673807,-0.08972299786298386,-0.10633018679406134,-0.12656167269430518,-0.13537237717468964,-0.12541852801338005,-0.09792094736690293,-0.057197332084824,-0.014773106212512432,0.00542140964080554,-0.005151039037308008,-0.031833427777687676,-0.04181241026257786,-0.012616773623778077,0.06149020685612548,0.16997578956882897,0.27979242861094256,0.3574536088990033,0.4008403955928539,0.43382836387285884,0.46806899150050735,0.4961970449113857,0.48966544162754727,0.42884983952315103,0.3204354675783526,0.20123452616677054,0.10900904391767462,0.043432813474624875,-0.016099445554200054,-0.08369409370137863,-0.16385834735072327,-0.2429492192876626,-0.28500280444486886,-0.2650305997437599,-0.1704371981765114,-0.011102206571866956,0.1526061095146893,0.24550366219296915,0.2687712841195219,0.2460713993437237,0.19791740867627822,0.14234104025132005,0.0918915212505832,0.08013928073517408,0.11310589668273477,0.15930275859816198,0.18842790842247809,0.17950987521361939,0.14060916767782144,0.08702123927151685,0.03521136957021613,0.0068873665180947735,0.0063381400280319074,0.024874518313598194,0.053203403709749124,0.08176351140165328,0.10160210566980159,0.11149070631099378,0.11310684190213291,0.10341877796770492,0.07446528702498495,0.03222724564079676,-0.012977994759397036,-0.04983078553262698,-0.07524624175922999,-0.09532060237951567,-0.12086807421064005,-0.16552387527937049,-0.23249814594429205,-0.29607837328008024,-0.3450072832722272,-0.37315042172708424,-0.38761393953561696,-0.4005105852723591,-0.41005038033081337,-0.4049589150510028,-0.38598146240033615,-0.3576358033545977,-0.3089032049850514,-0.22313510079600515,-0.0983643381984943,0.03257493301357297,0.12822556569016638,0.17831894554353356,0.19529380359605458,0.18898763499191604,0.1800590186628882,0.18228337412444215,0.2019476287678372,0.2278966527752315,0.2509713757309335,0.2732746261980484,0.29712162556510247,0.31112047727870623,0.3124779875012137,0.3013605746664984,0.2789776165525539,0.24808562967691114,0.2054316810822993,0.1466183274370982,0.06695724052137042,-0.03168541576151774,-0.1348924238333704,-0.21668579281325334,-0.24952063365517443,-0.22303584920346484,-0.14361522597053708,-0.03602479806874965,0.06811669514797843,0.13600337454676745,0.14822309765519262,0.09710017451111277,0.003375744480437017,-0.09037953260363364,-0.1460635164147773,-0.16160700873499786,-0.1669327281666745,-0.1589355408445651,-0.11828488779336821,-0.031051635742911487,0.06673480939965315,0.12748760361323339,0.1264560267769302,0.07078574191982569,-0.024420735133796178,-0.12691028307698335,-0.2004425313200403,-0.21343022094756417,-0.17220007059347442,-0.10491378084130322,-0.02793139566401333,0.04660992314735776,0.11094346302669147,0.16055405753226354,0.19615120255943883,0.2144934260543675,0.20748605512083465,0.17764690522998217,0.13844746986921233,0.10755204864039641,0.10280612519099719,0.12848065655690322,0.16121550244554536,0.17348508267129495,0.15924363338694644,0.12104863945730268,0.05065010622900712,-0.03811170528218603,-0.11859379309121518,-0.1751800126757389,-0.20873814915698988,-0.2158537344588411,-0.1921389819728749,-0.14435798781758774,-0.07291366332604521,0.03090144441706216,0.12489451562549922,0.17130966789309698,0.17969879340793266,0.17167776921318031,0.14055424190936278,0.0712525391941645,-0.044125931171352474,-0.18079019461149493,-0.28918471292651937,-0.3250746546576598,-0.2998911369855355,-0.246556982685576,-0.17579230316394262,-0.09347328892841401,-0.01494341691814817,0.05674587199813968,0.12178175194843957,0.17579107537100738,0.21885598129310554,0.24809199956972525,0.2567127504549834,0.25476900747326126,0.2571439581025945,0.2741660668236431,0.28667373627868487,0.2659847128796384,0.21930928327514035,0.18073844141093315,0.18181401061091026,0.23005829201589165,0.30803493178436975,0.3894071431397777,0.4464540797520799,0.4574787437391654,0.40550115309391793,0.29313457168119406,0.16002019120892358,0.0740087316417385,0.06253557269610373,0.09241847425152104,0.08742159909004643,0.018205006493356945,-0.10476903811092772,-0.23418814787584347,-0.3423088239413427,-0.40903639269942704,-0.4156361360415202,-0.3655807033864135,-0.2939091223731979,-0.24515192267964658,-0.21484352967438194,-0.172674877695804,-0.10706073491451415,-0.02619908158667486,0.049820464235819845,0.1115140207073329,0.16032938081010625,0.1972346949756619,0.22376881464631707,0.23748912230828093,0.2378823862864782,0.22844899899064766,0.21108465596412787,0.18422615570362783,0.14731944450075932,0.11250296203827836,0.09660560790464767,0.1033601297927591,0.12108426337828576,0.13704120373104775,0.14158429839120534,0.13203972492731283,0.09781674449432469,0.01991198824958754,-0.12147461610370072,-0.3255686017335083,-0.5370321555480672,-0.6822593334450723,-0.7530641168362909,-0.7669019582149537,-0.7432478648624524,-0.6889371634666109,-0.6045306071503912,-0.49475647938906997,-0.366187532198151,-0.2349907247177965,-0.10503142526440275,0.023691126840656662,0.13644567261364923,0.21049021890182848,0.24812434318659082,0.24981873555943052,0.21866262898783098,0.1666197405577483,0.11924646205326206,0.0954206926804864,0.10760725112662493,0.14407643028369915,0.183601346984804,0.21679410632801863,0.2532173441244079,0.2991619523216736,0.3529158010022169,0.401561194233457,0.43025279827434926,0.43797152804907163,0.4271381010408566,0.39081432327643123,0.3157773018405525,0.2131559416897887,0.11363606056367836,0.03191917873323802,-0.016386336773656047,-0.010219324649066441,0.050686819695568215,0.13390520402028283,0.18866086905252952,0.1836638383265187,0.1284243602295464,0.05219446717480353,-0.020406237410935713,-0.06878494191720513,-0.07436157523529426,-0.03224926598548795,0.05456492423597687,0.16013302678088337,0.23271708221160353,0.25653213172281863,0.24923214147817835,0.2316365785847088,0.21358248740037253,0.1958339409377384,0.183441592107123,0.18735325332863773,0.20883157720772702,0.233001597308705,0.25076505995241055,0.25658121699828595,0.24539200395483318,0.2073359581051397,0.14695485146279352,0.08188376837062275,0.01987306617483043,-0.036080057524599564,-0.08777620755994421,-0.13545287160974964,-0.18921313531236633,-0.23835172444639546,-0.27679407827303765,-0.31285072698778366,-0.3535688882434398,-0.39032309880533944,-0.40288581043670996,-0.3727202933769628,-0.27909953454853786,-0.11577813727237249,0.07297146139616249,0.242747513968694,0.3796468368504999,0.46654848107745855,0.489241813845641,0.4453867466674933,0.3447866331291477,0.19772382467441332,0.04191847495643329,-0.06626990964397185,-0.1065708127064908,-0.09710186050510394,-0.07603999265761947,-0.05425634393671153,-0.030932593140544293,-0.0009004283803688521,0.028128119847165373,0.0544457184866805,0.08026717779611614,0.10311825957970772,0.1184026952456532,0.11724104929318323,0.09535300241192514,0.0494601222390762,-0.0077144485275674555,-0.051989549617515035,-0.07599834510518627,-0.09137447824711545,-0.10697336602356584,-0.12520616034596052,-0.14919835100687395,-0.16496762201596332,-0.1660301270818503,-0.15046489261232135,-0.11740197330739965,-0.07220662025673967,-0.03142528699281425,-0.028662322423396686,-0.09140817283219725,-0.1942195337387096,-0.2579640809939684,-0.2586395652504583,-0.21184342857647553,-0.13437223044324376,-0.04631960607757024,0.01654282067122976,0.04459705091581389,0.046063898531535453,0.030636621898766512,0.007161634606042423,-0.03438052832331158,-0.09898627435223363,-0.1675739060392238,-0.21597291103260932,-0.24433314209369011,-0.24975415041184987,-0.23161560926274102,-0.19099899149271654,-0.13403291372481999,-0.08103177020403188,-0.0409051474514033,-0.014201339567493658,-0.00041464696684509076,0.016420848292248227,0.05674841658722089,0.1351663409755148,0.25108289163004854,0.3870197673344321,0.5045515523724584,0.5797498814274941,0.6068599737003122,0.5998333967503542,0.5600928652764166,0.4774040829386406,0.312892949396907,0.021408344630138344,-0.340001383139752,-0.596255192160067,-0.7047545401620489
