0.09155741027414288,-0.00907406004396544,-0.10787064059283913,-0.23762764802300287,-0.40195436678395535,-0.5485566188249594,-0.5936663799893638,-0.5257112342621435,-0.39671421666882767,-0.26430915975450686,-0.15488206997456402,-0.07362100350975406,-0.016502648770022787,0.03789265773499557,0.12070127272517794,0.25396026756081347,0.4182094648817573,0.5453376640434663,0.612794866050708,0.6544093805298806,0.7108779709895071,0.7847762289935302,0.8398754965808869,0.8494281191032937,0.8307583746697925,0.8075530131092389,0.783216278574447,0.7507600105424752,0.6988660597438808,0.6285713277685306,0.5726066785682361,0.5738718091147996,0.6246969533051165,0.6584259274139098,0.627867209595886,0.5215266803374444,0.333664301407226,0.08445243674940668,-0.17080117854263682,-0.38069279192244576,-0.5145153948249924,-0.5765112341096448,-0.5978111614453664,-0.6008402808986548,-0.5938060850145762,-0.5752679466558993,-0.5466078844355072,-0.5129092135011831,-0.48184713657481676,-0.4598219341969212,-0.45009182892533095,-0.45249725326958695,-0.4511694229106909,-0.4197017781617566,-0.34471133140419236,-0.23378504902112407,-0.10519473559501498,0.024447423953585422,0.14776761034050007,0.2405691205265848,0.28105769902156236,0.2568852992643493,0.16854397931146425,0.020430793519547033,-0.13056381325958744,-0.2039179950077673,-0.18996396575795554,-0.13726378303871825,-0.0819258790985193,-0.0511200970382347,-0.08096173103050872,-0.20605173847295963,-0.4138939389109805,-0.6319084279433638,-0.7926545376425325,-0.8543682394136779,-0.8325458863655446,-0.7375216765536661,-0.5715332897965506,-0.28153715003054314,0.17647251612106088,0.49047829103052176,0.5509236706996984,0.4632967789386768,0.2678894350773268,0.03055551064245473,-0.14279735107884453,-0.2283202046135984,-0.25514778555189027,-0.2456783862410173,-0.24180586584739233,-0.2766386423867709,-0.3387508697985642,-0.40666115248299617,-0.4750676909750988,-0.5426127966036439,-0.6048543888992127,-0.6366919758542681,-0.576021318343288,-0.3842140169462696,-0.08921176989626231,0.24432660782012008,0.5309442539297801,0.7158393838159826,0.8291964610078546,0.9028089734769722,0.9426201613506469,0.9458883563253319,0.9047978344387586,0.8161655067774682,0.6958449579873487,0.5773377877704013,0.48772856283961247,0.44298389110850733,0.4525090286917161,0.5504221152105641,0.7275473500161111,0.5299444324898043,0.44328433990520916,0.46931661287885057,0.5381520385313675,0.6125533689174747,0.655131849830275,0.6464691763172546,0.5679914216222942,0.40408526584687926,0.134143284147091,-0.24482123632429614,-0.5599998201964909,-0.6933282539998292,-0.7036442132284091,-0.6415566717983714,-0.5231467451649368,-0.3917381113381604,-0.3111778552059332,-0.29279140467941006,-0.2932971299093105,-0.2610554906823797,-0.17294914136118952,-0.045430332537025504,0.05428095693375566,0.036297990669103386,-0.16089969628043368,-0.41913281899840366,-0.5313493272474324,-0.5242245856672092,-0.428938177646682,-0.23082673537935483,0.0957613628084397,0.47662471082261787,0.7198734980991219,0.8137616423646494,0.8319652807537543,0.8165983838119485,0.7764761723752326,0.6991026614434047,0.559878613304523,0.3759958205468608,0.18464882566506033,0.014115402761817343,-0.12291728489020763,-0.21520095509005494,-0.2681264497965221,-0.2934182053225604,-0.3237803958395951,-0.3753736001878013,-0.427052956284133,-0.45612866151579945,-0.46484899878202063,-0.46595386400929195,-0.47321904589725,-0.49163123944106274,-0.5170389857232085,-0.5306403444434905,-0.5207113864663839,-0.5063476877899244,-0.5197287848838466,-0.5591174034297641,-0.575733341465625,-0.54850780388347,-0.510167358664697,-0.4763037499184848,-0.4409759554056691,-0.40443175821980465,-0.36953924814265754,-0.34431299108270785,-0.3263344750759632,-0.29849879488437475,-0.23332941576931981,-0.11362741697140787,0.034839483295376145,0.17769401965697929,0.3061104522783383,0.40333740613625135,0.4476768012426633,0.42820260745511224,0.35080417785559137,0.23216732443739976,0.10679381185235122,0.006456978380612586,-0.06746092464751151,-0.13554427129234317,-0.21029152753544653,-0.2836717868463247,-0.3281984040125318,-0.30902356620857235,-0.2258244447667711,-0.09489449486328114,0.04380346421807443,0.16138960392581045,0.24258284762132368,0.28544473490379496,0.3004886651571948,0.30333528593673503,0.30680258405572314,0.3084820587406142,0.30415708203429503,0.29442454515800415,0.2943932991975886,0.3117525592883648,0.34904326689240533,0.407564581702289,0.4799853810264342,0.5511084517046401,0.6055769630712696,0.642356499949603,0.6612143743349754,0.6613440207965751,0.6421941052731539,0.6164296869952127,0.6002941398567674,0.5986559441564084,0.5627623944982005,0.4389129684580761,0.31630494762543987,0.23812089585603163,0.16910870827237756,0.07541108873628409,-0.0706329443732329,-0.2557808363361292,-0.39849962234026276,-0.4593713235239002,-0.4594446376773387,-0.42273331224174576,-0.3504777626961606,-0.23335441906801022,-0.08259858203478788,0.06477655796890801,0.1565545248174091,0.1548922969206859,0.06323718368755797,-0.08230117670091146,-0.24962664280965507,-0.4142073933965418,-0.5367495108231469,-0.5949161951146393,-0.5592321758465175,-0.36082009756878797,0.09168850555177897,0.5393397897646882,0.7256565220641437,0.7887858427774455,0.8081896318068841,0.7914063443246278,0.7309965834159884,0.5967127285472275,0.3483727035057791,0.024506663911407992,-0.23369326705427487,-0.3760332480351989,-0.44335251970348105,-0.47588625410326,-0.5048442994659269,-0.5421724398456529,-0.576590483153028,-0.5958890107648585,-0.5991633590906666,-0.5815037658144414,-0.5485136993418724,-0.5121479258900865,-0.47569999939940166,-0.42356791415253164,-0.33297920982143675,-0.1777080092305953,0.06142187060588064,0.3259610767254914,0.5094448926636189,0.581932251091901,0.5787714910150635,0.5273245292596167,0.434152946858229,0.2849649547462373,0.019729648187586855,-0.30918485172143234,-0.46036631422818475,-0.4690516270192442,-0.4132816613209838,-0.26223433014578695,0.033658678657033876,0.391084147757421,0.6471647507575713,0.7822680399186764,0.8327091868228202,0.8321602293156498,0.800914123853993,0.7362166953281545,0.6084357646499547,0.35135438577330586,0.001105580188134757,-0.2571289075507164,-0.3845034251355739,-0.44411590851160954,-0.4866208423050496,-0.5422661854717694,-0.6061437393667974,-0.6364802542475285,-0.6025520891922097,-0.5039698680220451,-0.35938417371530135,-0.19860454044334647,-0.024804384251717354,0.16079160790371552,0.32064049412366746,0.4102522280789908,0.43408209382671653,0.43008557828601,0.4351925761609437,0.44602071167116686,0.4433114150142178,0.41838525241512786,0.3643568834876788,0.2876930704182151,0.21073906474283977,0.15650987607255695,0.1569587184651377,0.28823304975734426,0.5598976914877649,0.7524516006604925,0.8223963643835122,0.8701952119183032,0.8438881438108269,0.3932125646531679,-0.033698099287326005,-0.1925279386850448,-0.2386656781990684,-0.23926781232238037,-0.2242929951084468,-0.2183543030687504,-0.2307239416720027,-0.24771728124002815,-0.24934062515992658,-0.25044340700175777,-0.2923404866349716,-0.390988252112706,-0.5068874877887141,-0.6049365820681819,-0.6709220084704367,-0.698949393861638,-0.6921126024075575,-0.6516596563698276,-0.5712346964325407,-0.43429308212913476,-0.24433960825110604,-0.05254844014263341,0.08885630056546763,0.1622869108039445,0.16399181386221656,0.07289725961794685,-0.11368461004170644,-0.32615996858182833,-0.5048011098013981,-0.6260320884501691,-0.6641674765731124,-0.6239177569386237,-0.5048105441998233,-0.2686288365244921,0.01577200819808439,0.19992339357325534,0.26651029154917455,0.23881691811967243,0.11989331034127494,-0.07557649261467868,-0.2766497891653777,-0.3951619010497428,-0.3831888485230237,-0.2763650604989834,-0.1459507743629377,-0.03544383335340587,0.03577763585149298,0.05553126904417432,0.0029543839064296736,-0.07434862612872256,-0.10256543481522487,-0.060121765341579765,0.07262684693264188,0.256389939261937,0.3669648678467666,0.3951778023018226,0.384418612309948,0.3530547874586777,0.3033305081842811,0.2472506194077887,0.2049411422618013,0.17964269726276547,0.155892951944467,0.10435922316809138,-0.020516768344594722,-0.2767042892556825,-0.60514461438224,-0.751120065276472,-0.7524184624458465,-0.7289055010960483,-0.7006864172868383,-0.6555752347424961,-0.5617618109826858,-0.3971478286777796,-0.2160885667272981,-0.10975086345222738,-0.0749523700300646,-0.07559657012844238,-0.09224772510951854,-0.11628037547997479,-0.1446087570635733,-0.1811909020526954,0.04102083288995564,0.1475149826295956,0.17237686094220145,0.19141925832142923,0.21788341316288826,0.26247979795287363,0.3369400688500921,0.43691268560579366,0.522798303870334,0.5577060260301637,0.5438010767075643,0.4987438027294871,0.44124243677192626,0.3831382522902341,0.33044354686583904,0.2921858808804737,0.27962669056775674,0.30479886984902094,0.36595820576280375,0.4539564470471241,0.5412522938476888,0.5944091417381885,0.5875818760902346,0.5268726293161086,0.4343154671662145,0.324665761171102,0.188391631378221,-0.006730715785122322,-0.2523693335148587,-0.4558358690521946,-0.5588321758878277,-0.5405632362996412,-0.4446073371191371,-0.3434816505034799,-0.27040487169240696,-0.22209303279525133,-0.18983903691301596,-0.17609453071330744,-0.19844806401009737,-0.3049739593824162,-0.4942335157913248,-0.14612502901035468,-0.011553874491017543,0.06629709254643512,0.13049007144260796,0.18692833315749624,0.22855719278393055,0.24380397713736132,0.22986792231490424,0.19367904746531828,0.15301389533261392,0.11705171703860134,0.10858056948162953,0.12898130224299348,0.1621105820690739,0.18147238647091285,0.17491716834443977,0.14316731912466824,0.09381999909211756,0.03342593145650735,-0.029654366438004724,-0.09270478082893446,-0.15538955816221336,-0.20685292206124453,-0.2262550724586237,-0.19144691045158882,-0.09024156004707633,0.07567850829281567,0.26882986696522804,0.4264290693971679,0.483111090735996,0.4024780516057503,0.22488561192756623,0.07867062862650578,0.026522282202768335,0.07083173019396351,0.2191040162763879,0.46371668820374473,0.6705826405115131,0.7453935900307694,0.7425173346044709,0.6937741493764887,0.5970004490381994,0.4502896023205311,0.24267687893500162,-0.04949141091306379,-0.41085907960916135,-0.7017648153549026,-0.8441146161699795,-0.8991942139751099,-0.915436816689948,-0.9135593517302315,-0.9058603167050492,-0.8974242698325904,-0.8859402219413536,-0.8631541535169932,-0.8222979888098169,-0.7652908019048891,-0.6968373718466203,-0.6009992656600176,-0.44755310279642824,-0.22858329143824532,-0.0007190853651080645,0.16348213155067778,0.23335813696599383,0.20546161037713415,0.08701053144255443,-0.0988724007211679,-0.29945532087767884,-0.4468757488029464,-0.5112593998968363,-0.4946879835120072,-0.4247521071993051,-0.3354122063757986,-0.2462671334123837,-0.16209876666387454,-0.07934923962592501,-0.0018428799567491703,0.08241944905351647,0.17066201996439034,0.24672168511495618,0.2879354272500969,0.283912311280402,0.2404729085201897,0.1795496851947701,0.12430907802185509,0.07944624448359298,0.04076283150614874,0.011129576284029805,-0.006550184233978488,-0.0012583702176222516,0.04344747395365967,0.14259354909461378,0.2931098588960701,0.4630759886043489,0.6017346573562227,0.6776051804159172,0.6952337441259769,0.6677809015362149,0.6152956317397621,0.5962981141319216,0.6355317162535032,0.7007479564469352,0.7416071457890767,0.7280580640754784,0.6538286136236838,0.5374666605103816,0.41371715959299366,0.30925138618127346,0.22672879303220894,0.16861525521786896,0.14323792715005912,0.1593459832521591,0.2089251099452978,0.2796671689785914,0.34467827377272275,0.3852262085014706,0.40504751563160063,0.4043322364865456,0.36138157323284587,0.20310488526435636,-0.13284832459176968,-0.39920149478418127,-0.49417469331863145,-0.5185571099122684,-0.5157257786858629,-0.5026552089841255,-0.48411581714838975,-0.44814440229850333,-0.3871535757586932,-0.29662346083297664,-0.20150704445785392,-0.16577957362628643,-0.21415557011553707,-0.2868911847110163,-0.3102170021753076,-0.28408697817735595,-0.24180395662119442,-0.20143380587989876,-0.16671854137417053,-0.13571322282778953,-0.0916939541572833,-0.008881493374018815,0.1130635648674336,0.2533627564433241,0.38334044213973373,0.4916623036928808,0.5868604688761171,0.6694151165946509,0.7238207987135702,0.737732154681387,0.7106232594051715,0.6453060875445863,0.5686129891737699,0.5076077018336028,0.4710917010530319,0.44842594853659123,0.42873355670584934,0.405590658922149,0.3815930325193503,0.3594248307897777,0.333616217213385,0.2772498968412781,0.15587813345086743,-0.03912738506703701,-0.24245848310284054,-0.38283967115091183,-0.46244215109981285,-0.4915848159107062,-0.4764420922113493,-0.43289808751620473,-0.39062278894514335,-0.38942032741798244,-0.43915070824479885,-0.5235461452201796,-0.5343756607969541,-0.2803398958343565,-0.026704840899974984,0.1042563301098474,0.16642594606685518,0.17441034880945616,0.1223693193993442,0.014979833190706329,-0.10595916522953996,-0.19722916062829823,-0.25387913964571274,-0.2854299073308628,-0.3051738877167503,-0.3300175593967951,-0.38062883842264744,-0.4611750900586725,-0.5458712549794489,-0.5551166798065034,-0.39885101654813776,-0.1602109966422332,-0.013675587629472392,0.020385377986028075,-0.020138561930432394,-0.11548350520237775,-0.24568514580373102,-0.30290878014588046,-0.18378850803019872,0.017259182722658372,0.2150212578384343,0.3665327702316966,0.4612885955762445,0.5107252434892704,0.532113866195799,0.5223653124626105,0.47128175844070286,0.3782840387571678,0.2806894492569376,0.20063191162030203,0.14670207781482922,0.11690873424646162,0.11321020827247782,0.11305013904131941,0.0916607552657691,0.04005444313186243,-0.02405228875898087,-0.08705226135298187,-0.12205920124263066,-0.10569552033725903,0.0034564965109303483,0.21102506262305898,0.4156303888284278,0.5332617157572975,0.5899406621420188,0.6239268159082599,0.6570424299998842,0.6815795192761483,0.6797574481668183,0.6393488231926742,0.5405839091976394,0.3313453421582977,-0.044953823706567614,-0.4106389861179916,-0.5972182535570703,-0.6815732376299659,-0.726978530351346,-0.7500035702054018,-0.7506593256584181,-0.7113805468396918,-0.6065233181991302,-0.4597697127128374,-0.36244307459338515,-0.32784191269759305,-0.31120108058729945,-0.259165389331231,-0.1207556315249575,0.09181085171038661,0.27314133745515307,0.39905596273906374,0.48557889368894736,0.531024807804427,0.5287736736740046,0.4525678057503078,0.2658257836616793,-0.005790516519879515,-0.25347401097865174,-0.40353515912373733,-0.45710431952898506,-0.4312363360119967,-0.32795677740943535,-0.12377133776476767,0.19467776057495814,0.5310190000661982,0.7387634465396266,0.7996263984795761,0.7545117550093403,0.6134709078610564,0.36132802042396145,0.04005365456339374,-0.21441319853036564,-0.3507989519147395,-0.4018371629068572,-0.3859072182740687,-0.27198143707565015,-0.023546195734624818,0.2701905024972657,0.5037746725587291,0.6560642774912061,0.7349673265918765,0.7489920851614936,0.6828052103856717,0.5000485616556029,0.2213720394743608,-0.03549013398623287,-0.15431582376428557,-0.06804917152786573,0.10748425098953787,0.21262930027294277,0.22770330046545442,0.12948783249211457,-0.10247346722728547,-0.31940174520342013,-0.4418270066973213,-0.5146487259185032,-0.5682185955919512,-0.5975407972247245,-0.5945665389592796,-0.5716471956870763,-0.5410560914289357,-0.4972213277471217,-0.43764741344743124,-0.3697013091095215,-0.3062914237731223,-0.25894151092967405,-0.2329709233047314,-0.22800647244876646,-0.24808040449019228,-0.28758100707512035,-0.305076854037631,-0.2641609037672489,-0.1633468989383728,-0.04841804891518121,0.025937977804050855,0.006531276471266927,-0.15031575134614722,-0.3705301895694535,-0.44295299976775526,-0.41712431862676513,-0.3543830247323026,-0.2667089261187278,-0.15652835388563086,-0.03161328517283018,0.11585277543498254,0.2885140932596506,0.4415316594882992,0.5203669965579059,0.5366581441429876,0.5282889549377228,0.529115448153367,0.5536782493093313,0.5962012956034156,0.638118512295754,0.6466466684240125,0.5988148234295142,0.530325967043026,0.47547844764674235,0.43649631669979333,0.4043833653902084,0.37384732068908416,0.35223588188841076,0.3530636380258333,0.3536529890768659,0.31499320311859774,0.23983458937337285,0.16086638631570654,0.09611944281680383,0.02557828185957788,-0.074555317590585,-0.16129475911191038,-0.19396770800757104,-0.1984771646933541,-0.1928855479088478,-0.18425049207515096,-0.17801415294628092,-0.18966871808976077,-0.14828245120254202,-0.0025221547157704637,0.030190952926874938,0.04159871047025045,0.050764616533911205,0.06813252777679762,0.11006742326730387,0.2073618940017689,0.38309829349580954,0.5249409592208142,0.48830769065186586,0.33525574586632184,0.15042787002323185,-0.020714122723755956,-0.14465378407870177,-0.2042008828815881,-0.2060912460957051,-0.17485047646507998,-0.13143872221405167,-0.09513397317868605,-0.10074344927874608,-0.18799755927803566,-0.35664909308164083,-0.5356558864774629,-0.660810855429423,-0.706898441521882,-0.6970350904497981,-0.6408393988487571,-0.5053532334333273,-0.21189795337953132,0.1468154374564604,0.372780930408586,0.47376715126704927,0.49595372706980057,0.4603997232483943,0.3850701532234022,0.29427116346747356,0.22412617877571706,0.2021945622088378,0.23775348727839304,0.31890219018095106,0.42623270854683637,0.5382095295398137,0.6283760770747461,0.6409531761083176,0.5677026231336807,0.46039977878748134,0.3236361843553455,0.11236712958556049,-0.19807199248971943,-0.5063923174525198,-0.6741765008787145,-0.7159550792315174,-0.6809316741651136,-0.5867711739392517,-0.5191552845429043,-0.5297592458196206,-0.5764249572524159,-0.6243944625636317,-0.6479873940407349,-0.6119960287127345,-0.4685612299112567,-0.24441090454654701,-0.05657897554984309,0.04695515838227247,0.08214585123436896,0.07735281610348965,0.06861583150679677,0.083152400337061,0.13307941318674607,0.20105038715961135,0.2474712269439875,0.2462203964143644,0.19891479402848317,0.11196372411387655,-0.009636059746909722,-0.1527627400820188,-0.2981548118759237,-0.4169323021123102,-0.48273614611390087,-0.4928702314379684,-0.45555185858262076,-0.3598315545239539,-0.18381158030077782,0.054989168291777274,0.26831299764020855,0.4120285831030693,0.4835330112842543,0.4746276557601833,0.3876738693598206,0.2732391961068805,0.19850896638283727,0.18729200741030153,0.20971971748281332,0.23689615489259724,0.23235372048478398,0.1555138894831668,-0.026367296952711124,-0.2602217884323605,-0.42595066555061756,-0.4949475883859141,-0.4986512344212722,-0.45464133538697116,-0.3667090206327783,-0.25021621473102706,-0.13159641540417685,-0.03502714180987366,0.03792198163413581,0.1216604082667627,0.23676932142465465,0.37026548209008475,0.487773619118051,0.5758065460322584,0.6294286334287371,0.6432287409177722,0.623039369528093,0.5760192991798391,0.5101617365148889,0.4284331361486529,0.3338851932167731,0.24686700794849084,0.2107980799630032,0.24384010419498328,0.32561059601197895,0.41798645454313776,0.499020338422145,0.5533972628237903,0.5601900650440381,0.5057296120664991,0.3879957173862987,0.22241647978638293,0.03175596657353885,-0.15361262564500133,-0.2797594920431071,-0.33254811069149065,-0.3363218309386359,-0.3103923746365051,-0.2705838871103068,-0.23200264692744435,-0.19754197234061405,-0.1789677452839207,-0.19593420764270097,-0.2291934349981002,-0.26477679510864993,-0.29255556347390355,-0.3019467781262043,-0.27683266209991303,-0.18743489428886043,0.043176774395693944,0.4859948121196139,0.7550484896401748,0.8067248856990945,0.8225062837638167,0.812330617849691,0.6796150412856894,0.43119726390300517,0.24483454797360152,0.1582445974772418,0.144442021187494,0.20625975677925795,0.34616611577853795,0.46293231300895754,0.5155785594564064,0.5553542786135787,0.5729167756538567,0.5073953193473434,0.3062152324302936,0.1267472289914405,0.030542261401448632,-0.06093930143335276,-0.2160724788441259,-0.4258194334937823,-0.60922406940384,-0.7134568162336085,-0.721325554665659,-0.6295643428168215,-0.4429269832531754,-0.21013814756492827,-0.014222620464774807,0.08465051358411405,0.0700661050534347,-0.040708768060307404,-0.19550561893028676,-0.32287480298663307,-0.3467799815780434,-0.25279466888800123,-0.12325845901119319,-0.059609336986823476,-0.08407044907636223,-0.19021209056208305,-0.33486709828192074,-0.450090857577789,-0.4866529598377904,-0.4467407490508242,-0.3624815544719057,-0.27341472282864604,-0.20535451128173293,-0.16281212723024083,-0.13741602819109977,-0.12741122916418882,-0.11322564144527496,-0.0798127244812536,-0.028537740325943715,0.012529938874189562,-0.006230766615236568,-0.0895067753053555,-0.19552123284558254,-0.28045571621918847,-0.33383349014154917,-0.3614210915015057,-0.3760490859625598,-0.38556619803567177,-0.3855912921652295,-0.3752564246620181,-0.36079456893325024,-0.3567627813693951,-0.38231052913600133,-0.43846458692060875,-0.48317851462614475,-0.4935716958412074,-0.484137423185705,-0.47239742512145516,-0.46650165909016417,-0.4529884327514865,-0.35737882808133287,-0.09113954008388353,0.20037759017662182,0.4201848013283957,0.5693479867290899,0.6491640564779546,0.6654801040422331,0.6508791968974975,0.6421145959856124,0.6553378624250972,0.6817040645837802,0.7140140957770865,0.7192035277723043,0.6237761578183357,0.5004364856990718,0.5002248395136913,0.6121630657935875,0.7493662517358481,0.8449367086581867,0.8949099084408547,0.9164490531149014,0.9190803336418469,0.8986696855631571,0.8463048192103609,0.7754878161165488,0.7173836710985064,0.6786876003183873,0.6505760476973553,0.6339616705417035,0.6368236043634403,0.6636313356949689,0.7081414605121163,0.7470989949090909,0.7597837695843065,0.7121359350178961,0.5268005994430753,0.22591004836826448,0.0061734277783180086,-0.08343513517859705,-0.08463250587343425,-0.009660286387843869,0.1575316525334418,0.257697359292267,0.2250675759608415,0.09369434182926416,-0.14527841675795178,-0.44241584577357607,-0.6748835409981369,-0.7927547806241362,-0.8283106825307868,-0.8194221928058529,-0.7994883454343794,-0.7940432707189654,-0.8076372231964688,-0.8264692641709828,-0.8375207459867788,-0.8408576287688536,-0.8398253832625602,-0.8318508926201589,-0.8119085004032531,-0.7851351901358523,-0.7580025274477014,-0.7369189293942355,-0.7388154186048688,-0.7515926091674993,-0.7554264478844325,-0.7526876752641252,-0.7510586121212187,-0.7477490791603009,-0.7317502243252462,-0.6891450533862763,-0.6070331735791626,-0.47544855834045746,-0.2998707680750939,-0.09271501495879135,0.126431738213563,0.3119616225322562,0.44775201619046784,0.5438711287447374,0.557474030585222,0.4840168419126116,0.39262563105038506,0.3167022161239423,0.23160265396149862,0.1249947429691153,0.03904613167529201,-0.011900855231208585,-0.030347958560926095,-0.035628880034069256,-0.04526090046642223,-0.07220017616014766,-0.10938700811598621,-0.13255184345055243,-0.11362084076454386,-0.023702469154036416,0.1392503946288816,0.30217235049664243,0.4050660187678517,0.43930750147718656,0.41787244680604463,0.3653653927994753,0.32183873195364543,0.3481044186738887,0.47839291629918906,0.6422767165487572,0.7529252961681226,0.8063619938505793,0.8252100164479624,0.8205655741898117,0.7936830571673702,0.7439517837036981,0.6752269593505066,0.5884388571087588,0.48517816495808735,0.35820262086583105,0.181844779651782,-0.07333943135050601,-0.3328851672761546,-0.49640043021173197,-0.5692556464799345,-0.5848936010445922,-0.5659346779860258,-0.5501463657484907,-0.5680402766772067,-0.6180552659205867,-0.6646313752375874,-0.6845460337926161,-0.6823291477606092,-0.679363561874356,-0.6750102662339662,-0.6407925085098908,-0.5078435657560078,-0.15632243465158494,0.31551626542342837,0.6247461506451742,0.7734014128529708,0.8450554382441476,0.884209382620376,0.9078438679534728,0.9252840820789707,0.9368173710581085,0.9391233174170258,0.9333260872273395,0.9265174456437432,0.9254818161437146,0.9270068333805509,0.9219790281414244,0.9022086558297067,0.8612500858631229,0.790433044766151,0.6760881865263868,0.49743303311479076,0.22586124062970084,-0.1169325270847767,-0.41282638626726026,-0.5876460158798736,-0.6645703737327788,-0.675863173432086,-0.654394421814374,-0.6461383552337244,-0.6841613640628319,-0.7487285522799957,-0.8019168124776914,-0.8295463338927955,-0.8274338214811682,-0.8005413746730126,-0.7585226760469022,-0.705865156517739,-0.6426687868132058,-0.5719359452877243,-0.494390654168589,-0.41974437593569247,-0.38177506369733916,-0.425549732221065,-0.5312333586763032,-0.6070886093747068,-0.6235558241747031,-0.5919026661856278,-0.48077965720306715,-0.08424757181381813,0.4977762014849263,0.5718044880564532,0.5197135612590827,0.43870028667717975,0.348602424213702,0.2604387537662951,0.18088716567210114,0.10376450902638039,0.0013433586232620184,-0.14537709476896588,-0.28550695760423084,-0.3722704448634105,-0.4116772597491939,-0.38960368197221495,-0.30418713642145767,-0.18197534541975702,-0.06478016228327035,0.028931293742896522,0.09808685980425794,0.15992449330662378,0.2163248863714578,0.2558598185423248,0.2728479354980207,0.2736305632890155,0.27669039903778775,0.2901452476449344,0.302313005307265,0.29812386433378846,0.2712805643841348,0.24714843421276825,0.2403725794599668,0.2526164284361753,0.28437702424373534,0.33105252044806865,0.37717613584557974,0.3935030937109644,0.35795321315170586,0.29018597847952904,0.23500412635757895,0.21012018905409668,0.2076797481425106,0.21819843181593593,0.23365559187145185,0.25606636500492086,0.27815860233591794,0.29381846913159165,0.3080746857648832,0.31618105743064334,0.2912110725894281,0.19322410216334837,0.042081244529836144,-0.06887525578067674,-0.11744103552910935,-0.13258582661102572,-0.14894224329632905,-0.20711270936457718,-0.19084373462960721,-0.15278572672397267,-0.15551445162243868,-0.1694770059257723,-0.17763895716495534,-0.1701542434019718,-0.13162092545322193,0.06310453789286381,0.2555572311770312,0.24924632728185842,0.24086625677757165,0.232619447909886,0.2161998556196046,0.1764793272324796,0.08630614771940452,-0.08036409975835215,-0.29300880754466196,-0.4581959496042501,-0.5350758526802688,-0.5160327993012216,-0.3272071208529829,0.12164099987542851,0.5212227734154048,0.6823051334177718,0.6839136041079769,0.5633764633691692,0.3437093540377489,0.08814861053228025,-0.11434907339337994,-0.24296307528974795,-0.3171472697618017,-0.35593116076486114,-0.31219780890255233,-0.21849579861028204,-0.12834033768394873,-0.04113675409722868,0.057726831966981786,0.17586333731783646,0.2990791548862484,0.3992802488735447,0.440904773771561,0.4117943339342146,0.3023405536959566,0.09492389441548997,-0.19665698355251193,-0.4457755931055575,-0.572852555714239,-0.622019953539398,-0.6326733525404533,-0.6113652328079979,-0.47274578436365594,-0.07635951248297533,0.20993491411405596,0.26190267586195287,0.19435723976713518,0.07704435893652926,-0.04994819736575672,-0.1609771360277883,-0.2521074709154415,-0.33367858698812053,-0.39817636398887307,-0.41964273667117646,-0.37045331998796127,-0.2477716735504713,-0.06863308536753276,0.10698263477623811,0.21364924514855588,0.23250812411732538,0.1920731312169951,0.13344433751668142,0.08358078519063708,0.07211957324602288,0.08540461583218889,0.11035527882397371,0.1326278686367427,0.14225633479447694,0.1451298774067444,0.15914135969605564,0.2008729989121756,0.28425358474105883,0.39998261594385476,0.5043740318188391,0.550658107401027,0.5098788191472193,0.3535111792482449,0.0792039666343343,-0.1981983110833104,-0.3657427562900351,-0.435633976759081,-0.4443785304934521,-0.39932099074304267,-0.2938417844865717,-0.15491000900835847,-0.03813804225849939,0.02278970099228093,0.02220567630888413,-0.04198755952398001,-0.15664408465154359,-0.28133166549923544,-0.3820812706089464,-0.4421059583999236,-0.4587143843504852,-0.4294032427064453,-0.343070621265111,-0.18281727190324892,-0.02628335687571228,0.06878706068232562,0.09861105776314662,0.059684800596643287,-0.03500046810292605,-0.15789034991157255,-0.2574545892467523,-0.3074972880738915,-0.30942741839143967,-0.2812835606808297,-0.23429540986633815,-0.18102251145618867,-0.1275293345990735,-0.08235684442754511,-0.0520201018003893,-0.02922988868661939,-0.0005776860509642416,0.039116639685792244,0.0858299911805727,0.11644553817927986,0.09732663746734665,0.004316248374076126,-0.16458937546548646,-0.36420175233614005,-0.5482843865644021,-0.7020523441099762,-0.8015500529588908,-0.8358075731167814,-0.8270064403465437,-0.7941721501189193,-0.7250515475046331,-0.565756894183139,-0.30308659993910025,-0.026358362132401572,0.18558419817880628,0.33402434228373035,0.46056205932653305,0.5745032162704808,0.6559868570515198,0.6888309403426369,0.6859438372708642,0.6653420846134213,0.6319405610071879,0.5784372781553916,0.4857240380341661,0.3649537203903032,0.2725577146761265,0.23863962404173045,0.2509584272438299,0.28059386413282017,0.3165903142047649,0.34692558399655676,0.36012511961219107,0.34477954982549974,0.3046474134257496,0.23377887638972986,0.12794181191369003,0.001371702922845824,-0.11966263423441767,-0.21727873216050064,-0.2792352575799674,-0.2976960574956825,-0.2641049607212698,-0.1824010782567383,-0.07305703852198235,0.04341931489269004,0.1485654783731195,0.2383208328381292,0.3045205820826873,0.3222144304046217,0.2842474373466255,0.22132547485889664,0.13605638372174259,0.020976504942305713,-0.1047548654056105,-0.16632859229668914,-0.14594949934359797,-0.11171849681410277,-0.10498482272293362,-0.12092374395179357,-0.147597614099555,-0.16813744564103036,-0.15554862671634992,-0.1145174751551643,-0.06236040283098957,-0.013545725371623766,0.034183129263210835,0.08601693372690722,0.14771707199226736,0.21626403876175354,0.29031984395445726,0.38177219021675884,0.497939479238989,0.6202441555027088,0.7104603249534438,0.7456347787836164,0.7441077582368555,0.7304285555040471,0.7159983095502889,0.7007404977783226,0.6708935584046009,0.5896888976455518,0.35197379389889116,-0.0741364356651516,-0.34331074905381714,-0.4130413254001838,-0.3957858879968657,-0.33283700916041,-0.23209193244084808,-0.10126293088311852,0.03215235480999814,0.064719720406792,-0.13132106959000156,-0.38123662681676934,-0.47252959464364525,-0.46143172981104513,-0.41338471602596016,-0.3766605949382195,-0.3927057735357898,-0.47298473877858704,-0.566455132684899,-0.6180173385476753,-0.6208126283713765,-0.6097043220962642,-0.6124225676402661,-0.6338683906812438,-0.6580315982394226,-0.6737616507334259,-0.6812907938127499,-0.6846074208271401,-0.6855061797601962,-0.6682838105279054,-0.566741759383356,-0.3057306208520741,-0.028600913062890705,0.14367745510166335,0.24243864131645568,0.30621401593422554,0.3704704099825258,0.44912092515265434,0.5504978905769979,0.6681551146598811,0.7698351904056654,0.824884346393997,0.8323741143259015,0.7985816482374003,0.720055661757145,0.5593818051325683,0.20120964598441207,-0.39355745999031316,-0.7002261855680378,-0.7380401318498521,-0.7260664052255899,-0.7120215788886706,-0.6966938483334121,-0.6784281536450882,-0.6495657188134615,-0.5809017746239133,-0.4443411926756697,-0.27026987857610746,-0.1320682594183886,-0.05887635899722429,-0.029143339919681963,0.026923872616256134,0.14323861752942244,0.23994102232458875,0.3212493001388706,0.38530200651248453,0.4263760126884075,0.45214877107950185,0.4713097030162445,0.4878417119287253,0.4968216443807935,0.4873262402882118,0.4521384762611141,0.3978566812402172,0.35039315211778155,0.3312210921988083,0.34145075682787507,0.33184816747212004,0.2883964768587283,0.24772530843261611,0.2254007701611194,0.22172744206327086,0.2341281702384645,0.25666903462809043,0.288472445645842,0.3188750133138165,0.3345374576077791,0.33184264366983085,0.31224142490472895,0.2873469392622582,0.27662637985120275,0.2896836989526924,0.3263186827084794,0.37627165013910063,0.4201000048402353,0.4423346202792453,0.435276942780605,0.3873012640096305,0.2711907721168003,0.03954687959896101,-0.24396600393376244,-0.41794455512607903,-0.4988569691210982,-0.5412557827293699,-0.5560190219523304,-0.5348986587667212,-0.4691204760192286,-0.3640261831869072,-0.25931092339126216,-0.2049621511138392,-0.20965225164000026,-0.2642324778643545,-0.37364126047984053,-0.5635597843403366,-0.7008279910211477,-0.493719684517517,-0.3082785923891216,-0.21050516218298598,-0.16863518750916473,-0.1817645575825707,-0.27929976467561246,-0.44576005761195514,-0.5481177119688156,-0.5863830938376167,-0.5613208885320201,-0.3721941391147803,-0.06917820521793257,0.10210794519985456,0.15331422030149755,0.13410701211487563,0.06266003399130649,-0.03176137751088046,-0.0846591934152764,-0.0771141798804757,-0.03375316948068167,0.014425152097599411,0.05131062094776215,0.07478470499025096,0.08105336065683696,0.06763155612758073,0.022791746656711524,-0.1479973608943518,-0.11704762280923664,-0.07517290508202226,-0.042011937018755004,-0.006937134136829519,0.04024801456208452,0.10714839665751814,0.20005469867226175,0.31750733972105877,0.42510963701365334,0.4796190198556089,0.5117666581165717,0.5562980737410096,0.5942920016653144,0.605388704661637,0.5858995292397816,0.543952451403214,0.49148541326499307,0.4271359117306649,0.3404486449612297,0.21843057822763762,0.07506051082357938,-0.031539842270469916,-0.04863216867575205,0.018067210918195215,0.13234451132025807,0.2540436128979999,0.3465896320511126,0.39047963450324985,0.38644401144993723,0.33744090820435746,0.26013460818944556,0.1635179850960258,0.09223231977110291,0.09223535834436464,0.13331363560383888,0.20121148758834934,0.2749240421452527,0.3411957289609876,0.3963304032974741,0.431882251607161,0.4194008983708816,0.30489189699518543,-0.011769762105466373,-0.4486134209432445,-0.6835010825941509,-0.7871406926654966,-0.8526409864076632,-0.8750927717394421,-0.8462861123222881,-0.7913495882548144,-0.7367131095258225,-0.6878506243399928,-0.6275563811071799,-0.5595990588614258,-0.5133984159894066,-0.5015968196192874,-0.5163193161946705,-0.5430000212551683,-0.5656138743890464,-0.5654406341560575,-0.5095723290622559,-0.389085691001378,-0.2618400245582735,-0.1795392140879679,-0.1245582368359178,-0.08444291139049225,-0.03754322525261984,0.03240900172271428,0.1315283174324094,0.2566520588338435,0.39172759931582685,0.4915659830950666,0.5338803877020852,0.5329029106487572,0.5047470268396256,0.4668407641598904,0.43117252812192186,0.3930018493388183,0.34458424334944243,0.3065321292758117,0.30113129580226844,0.3546740239619541,0.4981241871039189,0.6883878649944503,0.7346493227461839,0.7038928823411185,0.7097644792283955,0.7443610301636303,0.7598003795799055,0.7230712955822736,0.6535565316615597,0.5776413789326955,0.5087040025919359,0.4609066592571441,0.43552925783187457,0.43225489996957195,0.43858702730626925,0.4442964049170517,0.4452442507761612,0.4526470596139506,0.4785610617898103,0.5194029390994411,0.5566484429789001,0.5814512496822851,0.5903068330153741,0.5848361185642298,0.5548225838082299,0.4582631847838,0.10044990701978444,-0.6310848071460792,-0.8553408866517909,-0.8792638355258536,-0.8716089818395608,-0.8524470854899151,-0.8188761742972027,-0.7605792217449818,-0.6419460072475962,-0.39156148981067435,-0.06111025607802225,0.14021550718010803,0.16348853595057858,0.028385950150463763,-0.2164459273834839,-0.48286104785170864,-0.6689840414024467,-0.7170050543887783,-0.6695057360448412,-0.6233353499472681,-0.61631364280606,-0.6369837458273447,-0.6667145910302111,-0.691607856591588,-0.6991600389143088,-0.6780073653123296,-0.6141406480561439,-0.5015340358860764,-0.33117816484353463,-0.03159505157757458,0.4202102595071175,0.7136880017665127,0.795252106416385,0.8169019080358702,0.8314963728699902,0.8322972561870949,0.6826349539129724,0.29527658647352517,0.05606329759584765,-0.023473894285606974,-0.022211537877012515,0.021109990581873937,0.08978206840148162,0.1712726896525904,0.2623471253386444,0.34031460978324096,0.38604479623615023,0.3705383741009579,0.2712898811244339,0.052819576990504574,-0.24060931823124926,-0.43138944211342084,-0.47199978775187085,-0.4361895355962524,-0.3745379985787498,-0.30677294588498666,-0.24527176235429665,-0.1969201375986327,-0.16751155490203892,-0.1646134663924672,-0.2015500099275653,-0.26806365069264015,-0.3421719820773461,-0.3938692402831899,-0.39191138534504777,-0.318255876051626,-0.17473260981219,0.005679112308591718,0.1750860118117406,0.33529470015666357,0.4787873433557242,0.5701748946555038,0.6066339166253152,0.6146891930636776,0.6053068246138477,0.5739206659036141,0.5089552616574615,0.39555718489209385,0.22657292080367777,0.00482948095392514,-0.24069323035436682,-0.46097497644882424,-0.6066987976291874,-0.6646972574805591,-0.6715617127038518,-0.6612297331682507,-0.6424722193408983,-0.6032041307453386,-0.5463343640499623,-0.4878025360250879,-0.44280719599155755,-0.39963976019458036,-0.34917028613829587,-0.28094980746818676,-0.19399078067300057,-0.07613485184802053,0.09750408611478503,0.3243461273619539,0.5414761071103494,0.6906796786633423,0.7625358247435607,0.7821984824706164,0.7679402878071814,0.7151162416975289,0.5987263957996747,0.3969934293258509,0.16182961053641828,-0.009870525201721719,-0.08027269667440412,-0.05672802782712259,0.050395771397749964,0.24821944080287875,0.550399057553442,0.8099774222258443,0.6847826164961315,0.46432937764488263,0.2911809001104575,0.14044978485184847,-0.021934983317826937,-0.1544706524825474,-0.17837410179544985,-0.18498984588051035,-0.19777104351174749,-0.20712736944674717,-0.2097187666485987,-0.21952646535070944,-0.2402825654622242,-0.25631314958517765,-0.23471754333213193,-0.18144387314640917,-0.13175222328296465,-0.09647770419913797,-0.0771361692938391,-0.08154309455457377,-0.11433015172789204,-0.16226014800339242,-0.17473752842521306,-0.14921751478488018,-0.16577516115376253,-0.2300772084463962,-0.3090665841100531,-0.36024419203049557,-0.35649365875376066,-0.30602343331173504,-0.24167584389935665,-0.16250723631159136,-0.04672251020914081,0.10310597364746348,0.25263569012044024,0.36704238003388534,0.441918043871501,0.4941185815128399,0.5363380258456061,0.5756564513387538,0.6093352063211266,0.6317507477545626,0.6304689010617199,0.5947041704908483,0.5196104241102579,0.4211451367431493,0.32169654022363614,0.21926670647400964,0.10681905550402236,0.00107617308226222,-0.05822003561384454,-0.030834590259891714,0.09403974352839449,0.27034138843645605,0.43716285277814365,0.5643386739764772,0.6415119772152417,0.6692735779685098,0.6498753195240305,0.584483585525811,0.4648124150382775,0.26460905832310166,0.012297283042889847,-0.13043950759223719,-0.1439830318132503,-0.06990375502058024,0.055080224607947974,0.14188636992040865,0.10723581859207645,-0.041811483490474956,-0.2183647637665449,-0.3448992712943743,-0.4069128913735786,-0.429103928287183,-0.4398072495265635,-0.46362714214442624,-0.520988145034011,-0.5975281752308238,-0.6525515762963199,-0.6771416665565296,-0.6815491141278197,-0.6666503715573185,-0.6222823862307607,-0.5335440860888694,-0.39348332294306676,-0.21741724712147803,-0.03188069875651401,0.13841135176576302,0.2743752028176913,0.3583495173198772,0.40654835994724176,0.4405875978718836,0.4717845675964548,0.4923128854244309,0.4869605657194615,0.44001335309762973,0.3267747040335752,0.07908665274749609,-0.2669303867948667,-0.49059714448119035,-0.5873413097549568,-0.5886768133704247,-0.5037185399665396,-0.4401421011286986,-0.46687193741455785,-0.5605351077909356,-0.6373959669312279,-0.6525244104301171,-0.6267187853395175,-0.5845639377411116,-0.5377329830537608,-0.48957954966906897,-0.4370244239711273,-0.38433128347267054,-0.32877202804439765,-0.26414746867079125,-0.19209035760422177,-0.11595700997656688,-0.049952618490789955,-0.005668462749435349,0.013507504809599068,0.018421004337523663,0.03488849146551557,0.09830610455461256,0.22618686389941137,0.39337108328994574,0.5247089323181853,0.5937386338787347,0.6253032800176644,0.6409977252933686,0.6476340577555043,0.6478748635176096,0.6382663389890602,0.5834856374963814,0.32476292758840336,-0.13836063230673162,-0.40091015297810895,-0.49463526084066256,-0.4958271213499342,-0.40445047426882225,-0.1487415839121697,0.2856496689305951,0.5405344992262324,0.6050048271970885,0.6011287480574881,0.5619540547450244,0.4897586020905242,0.38947205416966135,0.2617447225736443,0.0836893343397135,-0.2541845155290667,-0.7494536526920703,-0.7427544524763381,-0.634599668701041,-0.5506607301687247,-0.4538766606830425,-0.2959827796400474,-0.01941725786422717,0.2778737483855362,0.34354988445902934,0.2079923472774321,-0.016055502988510603,-0.19897551355202697,-0.3033183677889037,-0.3489678803951783,-0.3369055657420554,-0.22949022199118477,-0.01051602737302878,0.2165891178272695,0.355542257967465,0.4178415939284409,0.33518436852692,0.13183267733653065,0.02085062377229909,-0.028020939134747857,-0.055032874210242395,-0.06941644385997439,-0.06742283470778418,-0.029923881711859546,0.12258751755703005,0.5908518388698654,0.49543087782719125,0.4138947709351314,0.3833995672128384,0.36597612110869193,0.3468648994847657,0.3225535755809833,0.2958063123299259,0.2787713510223368,0.294647548040151,0.34952239281962544,0.39812194625577396,0.41281161820666945,0.3822376578342824,0.30216515042391295,0.17599007022687693,0.028849236204985685,-0.11333140965402166,-0.23532403266632404,-0.3312137439767209,-0.39337800230993436,-0.39507228511089526,-0.3245592760704208,-0.22269777408733302,-0.18770750294815483,-0.23042511662411974,-0.2880606329706336,-0.2980155675388321,-0.18289006230669194,0.1180479441465537,0.48095770872857,0.6776995865472372,0.7334391309304907,0.7173045257017826,0.6469854736409348,0.5233370739544958,0.34678272245208364,0.14452983964070562,-0.025290656326636376,-0.1320530250052785,-0.19334264280038035,-0.22746870219694787,-0.24936339382075634,-0.26938220440341903,-0.2898937616867196,-0.3009856046285275,-0.3125610282936173,-0.33514724293529924,-0.3666005939481455,-0.4010860593031299,-0.4218534820998347,-0.4231396505787077,-0.4113536959744199,-0.3904229870232843,-0.3578267858610051,-0.30296318932479743,-0.2248910528142006,-0.1171785929797142,0.030044354918587833,0.22551370698269377,0.459433372700026,0.6485448744448843,0.7401451511356401,0.7684002465831847,0.7558548932797148,0.7253063227540496,0.6745530843393751,0.5727046320347555,0.3424272023418649,0.0329950181093101,-0.13850684572339877,-0.18693049199946118,-0.18426869788459976,-0.1751759107514757,-0.18709708474813505,-0.22833648093212527,-0.28112285967326583,-0.31391819805685867,-0.3105140862124703,-0.2697502398471196,-0.19760484063726758,-0.12911917250902089,-0.10128398198103528,-0.12522755580212844,-0.18618468044618172,-0.26513171373480443,-0.34823693314887827,-0.4201795756856772,-0.4424088475006605,-0.3946135204109872,-0.29146108584694436,-0.16657770828927368,-0.061230190501843355,-0.0005570562479403044,0.010205041605842338,-0.044497858177343995,-0.18461884051636784,-0.3824804585137921,-0.5549497223286665,-0.6624648119331727,-0.7159326899244532,-0.7199088825082474,-0.6502499405477643,-0.4527534603862543,-0.08548341985091876,0.34345752690029896,0.657113968677056,0.813003361975449,0.8748835660003167,0.8880338666602818,0.8624087006393893,0.7954366972683614,0.6692517553721213,0.4360010778813086,0.1112373284244943,-0.15043450737281774,-0.3061448494490986,-0.3949486053985195,-0.45052521345061247,-0.48786671476423493,-0.5100471723396917,-0.48091121968340017,-0.3360689444429368,-0.27322775739642813,-0.3337817116264383,-0.41430848179399166,-0.46486542182069035,-0.4767998904180382,-0.44460371578908464,-0.3449470576620653,-0.1496128148439427,0.1267613932427777,0.38371802526404153,0.5438181595579458,0.6059364870859546,0.5819854872463316,0.4738211578083988,0.33079269953812346,0.23506366045445637,0.1863872518525071,0.1529203897532686,0.10689801158024584,0.07798575204717959,0.13435764340325385,0.30320136902485795,0.4775534118018682,0.5838625626138743,0.628574478245248,0.634479829876778,0.6052877027594733,0.48225168704767757,0.05214856880088371,-0.4287415467061199,-0.6248651663539623,-0.6921499492314706,-0.6850164886310434,-0.5950581668099131,-0.4152325629468187,-0.21710138317584568,-0.07700009948871432,0.001727329775038525,0.04345250720804415,0.06935228065361145,0.10785866819453326,0.17114322965478246,0.244542880780744,0.320976576685355,0.40956009244096,0.522375178184818,0.6362134614197262,0.7176967139259913,0.7549591942691134,0.7568460437666992,0.7323025975415627,0.6691049962126153,0.48600778635506375,-0.032675546227093594,-0.563381469522466,-0.7591669175489135,-0.8309206045009997,-0.8544576554351181,-0.8215433512645636,-0.6658857166741005,-0.3281165674792109,0.012602947793524565,0.18124658820847178,0.20378037419794487,0.1315915339248441,-0.026896821934956575,-0.2768798040966894,-0.5624591103787266,-0.7585640945775634,-0.8219017648683021,-0.827448715967378,-0.8151219713259757,-0.786379054617472,-0.7352804522099238,-0.6650951064648399,-0.5920561664925305,-0.5263300258996949,-0.4491815460968246,-0.3325376244902659,-0.16745422996203221,0.011542724356515786,0.158290770874889,0.2551542934720446,0.31298147527636766,0.34804022370172916,0.3562559309613839,0.335179377002517,0.28762675079051647,0.22608271630479457,0.15770021658655373,0.09093021636705607,0.05264006165803672,0.07568804420468923,0.16728629874860657,0.3285218630673266,0.5312301255183626,0.7095709759478893,0.8194148602706911,0.868894614748943,0.8908261858083171,0.9156374962203155,0.9472105725910516,0.969303544927229,0.9698960996960175,0.9450050379096433,0.8821199642582894,0.7564226941071001,0.542794137225042,0.2594806489876871,-0.01417427665345847,-0.23126768320007124,-0.3885427272696642,-0.4808526854571917,-0.49000647283383514,-0.4235745233512007,-0.32875074017958056,-0.26362732901298264,-0.2625584908373895,-0.33851926425953777,-0.47680262636594706,-0.6296114114201783,-0.7478041876347435,-0.8182529951743159,-0.8252850198412383,-0.7386911107576277,-0.5427745485827753,-0.31143760170719414,-0.13926530732532758,-0.04693447271987214,-0.011848912863711994,0.0011278893538773302,0.01818098804259418,0.0448208856318849,0.064334907721884,0.051414963743525936,-0.0054019147186640205,-0.09788984956631944,-0.19174799708848164,-0.21794829272550054,-0.13596483236766282,0.02251143350760055,0.1736084739102583,0.2652925105877834,0.29853032742202795,0.28662218240572335,0.21947481238729744,0.07297941730347537,-0.13971191511697592,-0.34329721472179736,-0.4776201546121074,-0.5470615806451785,-0.5713636774278348,-0.5635745684277815,-0.5363796872441858,-0.49864554570528447,-0.4535799801414839,-0.3969819714885145,-0.32503871809301144,-0.2345732724823086,-0.12586217199697855,-0.01048245173620565,0.10099751658851984,0.20734116115304693,0.3094803226844083,0.3982921689731686,0.4563086774337598,0.4621355403022672,0.38276371128265574,0.1674235867519809,-0.16600779928455717,-0.4510221036610677,-0.5836988831331895,-0.6082733015824014,-0.5806677738839262,-0.520200341938054,-0.39787066571266483,-0.1322000491663136,0.24008308703202197,0.4468929337294098,0.49076577171970115,0.46313530896346533,0.3973555104159116,0.2933380408378264,0.14744708387453287,0.035829874964549126,0.0335421494866415,0.11850421028775822,0.2221732729756452,0.2873877746415397,0.31634909085365115,0.34061842662289155,0.3821440732726108,0.42588643630063017,0.4130563891700475,0.24896492142492133,-0.040348888482357924,-0.23998268860536098,-0.3035409642646471,-0.2660511374407883,-0.15679033382306312,-0.03130266628912355,0.06323343642638528,0.11392886138380608,0.1275893002743675,0.1199017770511282,0.10092819220488425,0.06917410523439452,0.045760654058127924,0.05573319266827113,0.10430359175663557,0.1836017096966977,0.2730916619982883,0.32530911496754084,0.3326312140574505,0.3093725667597424,0.2616167190026429,0.18765863130184918,0.09898975390124679,0.05334121603745313,0.07277551754403583,0.14693313795599458,0.27544554876777994,0.4219193652928519,0.4576074583909604,0.37704735498535463,0.27173885509901846,0.17729004817975524,0.08700052311670069,-0.01645395788755402,-0.15133500748112935,-0.29108681137708564,-0.36900350124777265,-0.3713022120224582,-0.32836611940564453,-0.25485698615101626,-0.14411935278593105,-0.014073182385726522,0.08202690191261666,0.10689632502835884,0.0661156887113205,-0.028310001769626295,-0.1548628973455848,-0.28287596885738686,-0.37871212447959046,-0.42485917806865153,-0.4218061700275277,-0.373449663531887,-0.2697061022482739,-0.11912323191545443,0.041577369757423065,0.15854877218166313,0.2092280749837433,0.2292228615002974,0.25084051825836995,0.290869570968821,0.35096993072115634,0.39904764334403287,0.3951053453393402,0.29645931377952334,0.11900282082016708,-0.054018148929522274,-0.15750822839961148,-0.1822428884980317,-0.13057215463653418,-0.026045034566793693,0.10119506493889747,0.2292203218627717,0.33626147078416163,0.40735024044238244,0.4434483456054132,0.4444102435091467,0.4059848216309809,0.35190823335142923,0.2969899411304605,0.23569722430116313,0.15146147488463255,0.07874349998648264,0.05324267770215588,0.07864008118146346,0.14106533391817327,0.20472841165859612,0.25162974523391113,0.2813956300911177,0.295846164285261,0.2925696684471384,0.26831056450176805,0.21494218987878047,0.1245769098116842,0.007470603505764625,-0.09161164309932737,-0.1380174619693213,-0.14249666446896023,-0.13229597235583132,-0.11114910774421322,-0.06499519690499421,0.015348238287128602,0.15403530068695162,0.41486653324374817,0.48346409981789534,0.24103572893889524,0.047969250421607906,-0.08014891995304717,-0.15345313275223388,-0.19749852703059445,-0.23767516153946003,-0.2976635909769693,-0.3961149303853845,-0.5361528202784065,-0.6824650362817465,-0.7792561618226155,-0.8001194842727601,-0.7599405761313004,-0.6887085386826325,-0.6079133209954432,-0.5182118392719843,-0.3951211803993182,-0.20103179318620912,0.04887994511799766,0.26334632769337024,0.39897566592422185,0.48922420064974104,0.5652202737961365,0.6320073472523509,0.6828551502999493,0.7165889884712734,0.7343572689533719,0.7366466329873993,0.7261365295051773,0.7017074751625124,0.6527792787244682,0.5546767449085153,0.392837196061196,0.17576321232353562,-0.03257309778431904,-0.17984774355772418,-0.26700740760963737,-0.2995504428882986,-0.2803899516158736,-0.21201774090495248,-0.12264311927505234,-0.057058054448112724,-0.03298364924001107,-0.039003757834304625,-0.061176220008551815,-0.08168623616704099,-0.09370166021183787,-0.11036072869827018,-0.14633814418625662,-0.18256304800842585,-0.16932785323993374,-0.08612386472830913,0.016470795967000268,0.11222727884836545,0.18644905487312094,0.1812151429091034,0.05883698256048112,-0.08834466913304638,-0.21040712749553808,-0.3100885517916584,-0.3894405627772692,-0.4388924472883875,-0.4149213979305504,-0.2798443036327719,-0.06730355092528247,0.14415987900909452,0.2951386683448825,0.37363003480753865,0.3847147607725274,0.3191494810325944,0.183759876254796,0.023434409032539905,-0.11428732545076441,-0.2000743078477429,-0.0995224214905077,0.09278070230404288,0.2039300932112396,0.2655353175255014,0.2750742768496266,0.23160653489930205,0.1411904046970151,0.021541515333808728,-0.09671907483929439,-0.18560935499962952,-0.23375592721640873,-0.24621474961973452,-0.24101917012631224,-0.23427592459795382,-0.24083101756246672,-0.2753594869374753,-0.3324183126697116,-0.3777807792151123,-0.32573350034147014,-0.19599394649160057,-0.0762227090575453,0.003096011603040746,0.025421855133675907,-0.02073601933240513,-0.11950826414281343,-0.23542472433292966,-0.3302195304114534,-0.3933959213318092,-0.42809015644838017,-0.4413304708057124,-0.4375808942863241,-0.4150293282339857,-0.3705659477744646,-0.31284053860138666,-0.26912691118874865,-0.253400092777541,-0.2526337640463675,-0.26109478559628113,-0.26398040449960375,-0.23135484104321716,-0.13583298507343644,0.02473699735648619,0.21213422831514808,0.3548905134807246,0.41267849381937916,0.38486700727766243,0.2664213494440301,0.029659071329279623,-0.26645196933018683,-0.347474116659264,-0.12782085139456767,0.1535784555777875,0.3635746518292293,0.4938624628405859,0.5666744321063412,0.5938055086928348,0.5738989992522076,0.516277465243601,0.4340502165929015,0.3581211147561707,0.3195622188759092,0.3195781919001264,0.3469590534633224,0.37590833599409784,0.3845153866468445,0.3659984838996765,0.3301627835541658,0.28935167364636183,0.2445420587643854,0.20284936021336109,0.17811666574920926,0.17676334595281226,0.209583615597915,0.28002133641549765,0.3688685488003025,0.4458848273269052,0.4885672180586765,0.48389058632146603,0.4283752029598767,0.3311577443392031,0.212044706158116,0.0819402383476539,-0.06639107769074049,-0.2606536895028261,-0.5034834924726066,-0.7232875424679398,-0.6696536396064381,-0.360463109590763,-0.10424272665597896,0.06345919540503558,0.16318625867451952,0.2170259723961809,0.23650456275943033,0.2242173237564093,0.1736032433647063,0.07420263496848792,-0.054114547575474695,-0.16658908626546268,-0.22652629946137454,-0.22372115345521032,-0.18249940797257683,-0.12939104393031559,-0.07630313193917428,-0.02104528816612112,0.038337877515082976,0.09733970322676826,0.13359577217470958,0.14073100616110468,0.1220508324461834,0.09168200671576558,0.056013725218260375,0.012092757585871954,-0.059051701951500266,-0.17738046246668576,-0.3253306685705497,-0.450587030435283,-0.5392484183567058,-0.5919212259173376,-0.6130217051591774,-0.59266996464855,-0.4587594160435447,-0.061579830889292864,0.26913584217722797,0.38942996300791316,0.4034664144828587,0.3028741386917414,-0.011965274554955158,-0.3953135897451308,-0.5693467913914857,-0.6207661645572468,-0.6280464375782866,-0.6181653142336164,-0.6024547188785625,-0.5837250547774048,-0.521109192387564,-0.2909798017956191,0.07594917304235786,0.28904473964040217,0.35273232127155063,0.3259753988101548,0.24800786488840781,0.1676067764395588,0.11213264471265146,0.09283021629896168,0.09505065782059723,0.10109517713483337,0.08512021546071255,0.03513759517689264,-0.024498641955541602,-0.051496770127965746,-0.028900423184960514,0.049512239067988406,0.159318617727672,0.2539440289911523,0.30419230146820325,0.30688431364486596,0.26374579397315995,0.19356987406820803,0.1172520735286175,0.041277476811849664,-0.030758216298443428,-0.1219576385042794,-0.24394453653280854,-0.36231264859394136,-0.42149112443911374,-0.34243900493396723,-0.0910006728153704,0.20305741351446827,0.4156446043735691,0.5436409801661699,0.6256482764622114,0.6810872856306037,0.7235449835383378,0.7538829940394938,0.7774670639505111,0.7957311882672121,0.7993327364020113,0.7770939027429603,0.7092782605768652,0.4334127178154101,-0.27642270319794177,-0.593319612171544,-0.6633173420591434,-0.6729455565042183,-0.6630512877972083,-0.6398214913433412,-0.5837738031170127,-0.46030927148336254,-0.2925479496519993,-0.16622232792420064,-0.12805396416245662,-0.20081229214992377,-0.3390056384935348,-0.37942527705060647,-0.3487770758713514,-0.30079860804985975,-0.22078102272422614,-0.11608239186033034,-0.016511661662931082,0.09650831103105277,0.24480397791701233,0.3160918443968929,0.2610130791823763,0.15099541564044408,0.03269277139784211,-0.03560754777577003,-0.023611590208641172,0.05943295827107279,0.1911080792854464,0.3134109958102113,0.39376743209973397,0.41225632298494047,0.34926872161964984,0.20651570393476884,0.04280050353825203,-0.04090133405860422,0.008985281526925256,0.2078255561908518,0.4726965538424395,0.5520027890226225,0.5045676947050735,0.4318313561312563,0.3418905518587953,0.22982405751359272,0.09832514886742498,-0.021139309615705298,-0.08157583620272608,-0.061544241412125535,0.024678310003014126,0.13602851838078792,0.22676866767004633,0.2832518200276623,0.3225774395430632,0.3585632652955478,0.3845240327276315,0.39140685044641316,0.3763406191404565,0.3412561309794037,0.2933133739023217,0.2369995452905524,0.17495477782926872,0.12515472945253278,0.11576854099107298,0.18266565753760305,0.333550291546476,0.4488603797035554,0.46431341590481734,0.4483254894788189,0.43881894496937707,0.43929867590355864,0.4313351191132282,0.3490950412880196,0.1143039922996584,-0.12364762067144182,-0.28285773398918546,-0.3892102628687318,-0.46345772841225913,-0.5156008909996009,-0.5510644611095576,-0.5725870982767565,-0.5852333711182902,-0.5895480245617636,-0.5797762040934522,-0.5434148355970793,-0.4761564806039377,-0.3902687670972903,-0.3206250460798198,-0.29091658584000857,-0.2913280300564016,-0.29797141993434667,-0.2871943262293707,-0.24599818833499998,-0.1786193178553223,-0.10000918565068778,-0.030489328326115207,0.04210449048608259,0.13744980226628756,0.241236583807754,0.3154916508678181,0.3548508754533561,0.3674732022632049,0.3425520951291189,0.2611569233486261,0.1315185426356867,0.020823593849442833,-0.03565332455139993,-0.04578277665676028,-0.01695105142852724,0.036402294827167295,0.08129850480215421,0.08931758065906392,0.031719218002470434,-0.10419064448833132,-0.287714889105097,-0.43735490934612153,-0.49727385905348714,-0.4638821599894152,-0.36732197133620736,-0.2700395642295731,-0.19383554869416153,-0.14379359542332468,-0.11366351497164673,-0.08453341473025167,-0.0366226296633756,0.025798186085379902,0.09798017751385321,0.16284602678041737,0.2057872143047037,0.2123365377951768,0.2253546012484493,0.29702049097153643,0.4408618607045902,0.6099092760277559,0.7326003008110112,0.8025198278709195,0.8447540020245231,0.8675270070213859,0.869253970710601,0.8279799277850997,0.6711209428092126,0.35570827109097536,0.06965545213905064,-0.0778872420553346,-0.1294458890199095,-0.12204779894709354,-0.056488013092324464,0.23181632142680653,0.41730923457394425,0.2304914876720694,0.16405895540377394,0.12893623273404886,0.108751938098201,0.09580682648137713,0.08590510408769124,0.06594402526233917,0.006113474820893745,-0.10753340865665711,-0.21328167891521302,-0.27205402760548497,-0.29086665835338027,-0.2922995466590642,-0.2988771870220623,-0.3297849777908428,-0.3857949525403603,-0.4462714717340197,-0.4861826676976743,-0.49064903063254633,-0.44952095966415545,-0.3598053906454636,-0.21123674362844871,-0.010042801429671405,0.18814107838577362,0.2950567032056145,0.26679270246441394,0.16653282290536284,0.09310991160101621,0.09405308191745021,0.18348514635588103,0.3215523080455613,0.4280285557976994,0.4752234942687035,0.48306683026769376,0.45259049431562404,0.36747851159308853,0.22593645108206062,0.051407132005580274,-0.12155110068841511,-0.26443570003090466,-0.36291135224569504,-0.4208119036394143,-0.44586909197305297,-0.44775958138173616,-0.43030955403660703,-0.39369974198427254,-0.341118031435025,-0.30525489894421626,-0.35107031835230107,-0.48759074296902927,-0.6199563856978383,-0.6900881831493897,-0.7116374930529461,-0.709908238876267,-0.6951443359791772,-0.6637628430363194,-0.575590867421559,-0.4065274670335989,-0.23033775777037527,-0.09274897769327302,0.006169667124589256,0.0746494498919303,0.11465956188454404,0.13459779556527598,0.12698132036840068,0.08821726639885426,0.031507994626575914,-0.03776197616200949,-0.10893616924074884,-0.17140688032036086,-0.20919683399466577,-0.21463034320674268,-0.18944561182155856,-0.1408800134423206,-0.06856140881940782,0.044355372687704314,0.18998729956572605,0.3166802823827236,0.3963572377307371,0.42906984854918834,0.4178469861526621,0.3411627995887811,0.17350901003557812,0.0014171051638117707,-0.03461505412186048,0.05188192513324237,0.20366384975541818,0.36677905208263023,0.4928307811900878,0.5531234305494233,0.5360838818576148,0.4340811527052872,0.2787590838379953,0.16142836233542834,0.1458502673144055,0.2291120643163887,0.3648125777556688,0.49746189169824445,0.5929728032304469,0.6413486271636173,0.6443579315296191,0.6194554442336656,0.5804784510689749,0.53574179875994,0.4859214997440393,0.4430501142296432,0.4102886853224949,0.377910513513819,0.3374978759623477,0.29509578074352,0.25026636698526494,0.21426962120883147,0.18365506064098558,0.14852177389204752,0.08987143426128195,0.0002871954192998216,-0.10741981446721034,-0.22680953023070752,-0.3647810383328938,-0.4804228901610299,-0.4280543920503402,-0.28918854763797147,-0.2036834795842556,-0.14397807025309506,-0.08710676825613382,-0.03294884984221066,0.014716593065047771,0.04113016355620713,0.046149413003111206,0.04366195786124115,0.04155178014511067,0.038208519824142105,0.02243815397648244,-0.012718131544075832,-0.07764746919114651,-0.1657962645191296,-0.2553801231425076,-0.32172228558121363,-0.36044212215811955,-0.3734108874752118,-0.3706332379027036,-0.363099127435776,-0.35273771324454123,-0.3149497270591555,-0.1476789420260051,0.012590047700696539,0.05301866158665894,0.03462583972929577,-0.019397425823863196,-0.09846762102090141,-0.18012556478406938,-0.18819874509149884,-0.1069795776056213,0.00968898383188961,0.12247980194770651,0.2281134112286568,0.3199476355446602,0.3852285106378422,0.39487444710590885,0.2962678783417261,0.038094156251871174,-0.2579105568986087,-0.4550690488004858,-0.5697058275536023,-0.6281927967619932,-0.6251658268391846,-0.5688858357871155,-0.48142674526818463,-0.3604713586584997,-0.2176827041963005,-0.1824929518734823,-0.20883620798476354,-0.2650702077610256,-0.3397253084470947,-0.4164850740951427,-0.4576495708426122,-0.4305856509338194,-0.35659708869294005,-0.2708071986564588,-0.19816299609833643,-0.16156069776672208,-0.18766170191192813,-0.2755982068273159,-0.3688962228017645,-0.43768408088043625,-0.47509858086392087,-0.4466163738671501,-0.30228663574302084,-0.03790510644521761,0.2256393897761619,0.38006866776699055,0.4371359044336446,0.43480074313582545,0.4066293501670276,0.39011978238035033,0.41924145864555346,0.5221044107984768,0.6359932234301382,0.6337407101590449,0.5629430548194597,0.5010909357705593,0.4864938070204735,0.5035717226616107,0.5161309488359574,0.49532914772766806,0.4349512737790587,0.3648720794033451,0.31414516636551393,0.29823195162012567,0.312188041402644,0.3328784541912976,0.3436065243504154,0.333053543824751,0.30515521146484065,0.2766139826634097,0.2624144578807627,0.26572116660554584,0.27702748581676423,0.29884663021859675,0.339960351354862,0.39550452254158247,0.45010098805256693,0.4871512574158561,0.4920781927214813,0.4508075951534195,0.3604701013816943,0.2484092408072292,0.15634401078870044,0.09317218326631373,0.03395686031173967,-0.04581944137247209,-0.15244285988309073,-0.25787739114033464,-0.32680170412895515,-0.3410066704306377,-0.30100706627002066,-0.23907354125626012,-0.18301795039251914,-0.16204292877916313,-0.192238090975488,-0.27326863839695237,-0.34928265127612407,-0.359002434313848,-0.30998400156889655,-0.24198555464240662,-0.1768507421067834,-0.11149054866864874,-0.04054252579426557,0.03524961358271486,0.09152392579329004,0.09408502714410602,0.04380282940462423,-0.03156960570235258,-0.1136294278313366,-0.18861861075353484,-0.24288648555021475,-0.2508857264284467,-0.19970170347165578,-0.10133866548208888,0.019339621915078417,0.136777573394356,0.24040593780511224,0.34719828855667867,0.448529607551448,0.5197036695647759,0.5656354034780329,0.6029092032641596,0.6259235948374081,0.6066350662686726,0.4746588110788199,0.136864797719942,-0.24459088876988985,-0.45556316786186296,-0.552579895596992,-0.6043397875096073,-0.6401815384648332,-0.6680713972945351,-0.6811062337183428,-0.660415131359682,-0.5909502927035725,-0.4810161159835383,-0.36121592878794295,-0.26298706913393016,-0.2019719300855161,-0.15413379448829173,-0.052950466231286436,0.15475100079232337,0.38431203304078326,0.5260078886728012,0.5843447656646243,0.5935504087812767,0.5748342699907483,0.5383731640081343,0.4991616496200503,0.4629593850017583,0.41074114951667656,0.28787635363553316,0.04665421751439998,-0.18917456585955245,-0.2523416364788288,-0.1424405871548886,0.050535455086752695,0.22551375935399184,0.35482600665388475,0.44044076549937544,0.49020901080854734,0.5058325242758204,0.4685681478092451,0.2900692954875911,-0.13115181048569452,-0.4546301076621891,-0.5655434803358008,-0.5741608455566855,-0.5301827837392871,-0.45216328504318926,-0.3524620102626468,-0.2564970399817837,-0.1939025836088389,-0.163515373807983,-0.14221397854447118,-0.08692213519966366,0.03778850165279484,0.2025427063589417,0.3239558040768625,0.36942850975786923,0.34141174689545245,0.24776788403173255,0.09537874629460906,-0.09709383000014461,-0.2743579341153463,-0.3744233339038622,-0.37673133194488556,-0.2564586963171191,-0.08103336387778495,0.053152875204347985,0.1264264819866503,0.14664191591286263,0.14305348614123287,0.15429201656918703,0.19639397563696154,0.25584649430516465,0.2983122714523116,0.2579491942611946,0.03816370920201387,-0.1774137639674526,-0.2613480523042687,-0.27604023059931426,-0.2538378920247997,-0.21136618195589688,-0.15247998089697426,-0.07359129343203984,0.026320951001780384,0.13269549772838352,0.2281836968731797,0.29875336386745277,0.32890332298593183,0.3101595904408631,0.2270702095727181,0.09062030511996325,-0.05431104065962218,-0.15273873015163136,-0.20145098328746583,-0.2258905476000422,-0.252391590075308,-0.30127896955913563,-0.36879974271937765,-0.43694028500608145,-0.47250930222273874,-0.4482544305592079,-0.3304637385649371,-0.10456922216420024,0.16194536714151064,0.3784254497603192,0.5024368374129448,0.5575137792759081,0.570757180745466,0.5589382040241959,0.5171539585532594,0.4326368566069232,0.29469574335507726,0.12189948161656614,-0.03252865827900312,-0.11859347079663289,-0.06381356127803053,0.14889218313035382,0.29231028354349853,0.3629008354294131,0.4102509711169877,0.4500889344290881,0.46914127708115483,0.41402718106639497,0.2822586100278737,0.15938496256775694,0.07585214611090955,0.021375673349870644,-0.020282398053992682,-0.07384933851696851,-0.10816812840090181,-0.06646272076228785,-0.049541131585104814,-0.05394333438431294,-0.08068707702218178,-0.13653025932599383,-0.2263003175677799,-0.3424936659317484,-0.4070236123952212,-0.35449298064943185,-0.2533717152853051,-0.15716990102170292,-0.11722450044262452,-0.17882952472961122,-0.3130081167783741,-0.4439415925062533,-0.5079306838047261,-0.5388501721355929,-0.5686551674879768,-0.599655436398798,-0.6181756594112947,-0.6059707116264884,-0.5245511287434967,-0.29172213338239666,0.1480190369925446,0.5326211967756437,0.7074861744117573,0.7712609503976139,0.7882437738775459,0.7790823733659511,0.7381716989055019,0.6299321740358448,0.39677654867745993,0.10774460174693307,-0.03471635812408257,-0.041379100670100526,-0.009481884307801707,0.008604777653530082,-0.017037939439822316,-0.0964177471251174,-0.20591770379022242,-0.3075042687598155,-0.36933546436452713,-0.3704230016079559,-0.3049065588742984,-0.1634590977936646,0.0406172809726087,0.23815112928974982,0.3550687531448741,0.3915798534614177,0.3697884721153625,0.305609955535367,0.1908510572702849,-0.025491636344376997,-0.35770361492663416,-0.5803859164196296,-0.6641865564333082,-0.7093980099116086,-0.7358204745409388,-0.7297765720410136,-0.6444393291649856,-0.3484106091896535,0.17029153175635456,0.48129045095140827,0.5997704258471276,0.6480735562054428,0.6709194748128277,0.6749635102881932,0.659120681816229,0.6223951837643873,0.5638671433394213,0.48289250799758415,0.382109312954872,0.2608300882265931,0.1138843119542605,-0.06892636312550557,-0.29141196933358854,-0.4737840814265959,-0.47460106805947744,-0.36992582288864717,-0.26039445057033034,-0.18162752446646344,-0.13386452885198008,-0.11622272535308739,-0.11983308257357743,-0.13104235629521996,-0.13361908980820084,-0.11724725437013284,-0.08516952629866714,-0.04791575625699053,-0.0071234587124089,0.04380160172082979,0.10716005266799349,0.16620348972958374,0.19819884617028385,0.18017704334704918,0.06346894553565798,-0.22775299721106668,-0.5485123840859957,-0.6757253677438104,-0.6985892810269971,-0.6816137353905073,-0.6383002781578975,-0.5757886484433624,-0.4998496621238639,-0.4155101650653876,-0.3335931243250557,-0.2569765301087331,-0.19482705194398905,-0.1578572340174902,-0.14756992318205667,-0.15263531968964397,-0.16493350675558302,-0.17794401670442217,-0.18879719259785904,-0.1891119144850018,-0.16743433275134148,-0.11432265084313996,-0.027763412263778056,0.07964436268880229,0.1798353976839881,0.2569942886109136,0.31704875238425473,0.3485528031412024,0.3313189428568361,0.27534033892651394,0.22110885502600222,0.2006478059800165,0.21753593749329225,0.23665596463048658,0.23085058819317775,0.2090621029907222,0.19260049242934943,0.18863659283997333,0.19684393606727343,0.22072252820622926,0.26164388589333293,0.31698474605625476,0.3745284577533755,0.41422221858903935,0.3796573710787448,0.21869733047084464,0.055127197779858444,-0.020755605307710555,-0.015707695747400142,0.05556723124347673,0.15555877918946795,0.23559491901519108,0.2838463532355199,0.3150614916584392,0.34492223400604355,0.3864799085726107,0.44904645289974215,0.5274357019082965,0.6116383388415938,0.6763958827840052,0.6957601471966194,0.6591494851759914,0.5883440949320776,0.505994912932885,0.4077706948849747,0.37070852673961535,0.40855246504733134,0.4807742145963875,0.552370801935401,0.6005682106529467,0.590911209048538,0.4872085610813583,0.33264357746743056,0.23980663201188757,0.2311204989997353,0.2641680508248786,0.3078194999436831,0.34890486390514747,0.37334306673893924,0.371770720063289,0.35069128031564056,0.3350169467846107,0.33604405595441544,0.3400878847716025,0.3384529934963825,0.32392932143610437,0.29646914260080043,0.2365473858605364,0.13905349115010704,0.014234960962148144,-0.10323690219027899,-0.17973271065300828,-0.1934806298714535,-0.15485480874946853,-0.09569024291055649,-0.07222827709792529,-0.15189576386702325,-0.31671349046194,-0.4541763290584941,-0.5260486304927079,-0.5468165649960282,-0.5272211510260936,-0.45724035077751446,-0.31337765126773737,-0.10697336706887522,0.05774187237470933,0.0501739579364935,-0.10479174410091391,-0.2788445531206906,-0.40611179410014464,-0.4906022043038943,-0.5507728907093702,-0.6083964792391127,-0.6648715817262807,-0.6940647186356631,-0.6423990488832022,-0.47791357351746294,-0.2747437832234246,-0.11071860737281586,0.02023748919080794,0.13896024906383458,0.2666523908525584,0.38943519394443993,0.46990021992906567,0.48863744728172714,0.4451677616833869,0.34416082590900615,0.19503042482066807,0.01747227414973149,-0.15331528878148795,-0.2934119198831779,-0.3969806788182444,-0.47035225005101233,-0.5205661563368918,-0.5393936290447208,-0.5059281843108118,-0.41408181075335604,-0.295557029049469,-0.2058294339482929,-0.17281864785876372,-0.1691416750286464,-0.1549064106055851,-0.11227731588786413,-0.04737938993248944,0.03220348500272545,0.1265584616029782,0.2303472246689673,0.335001373698906,0.4218159398275557,0.47545316837963175,0.5042138186476102,0.5151987196975255,0.5023541544323085,0.445855627469208,0.29008697964769853,-0.006588662826009298,-0.3152459260383757,-0.48831854281927134,-0.5631278366359949,-0.5979688059366931,-0.6106782396743824,-0.6050783428437395,-0.5726925980545127,-0.4988383588807119,-0.364770493404199,-0.17519459496501866,0.028359087658931043,0.21653647053388372,0.3850379669143479,0.5207949777266861,0.613477326761135,0.6673651128072957,0.6932571453876315,0.6989845881427613,0.6818606893475704,0.6476669006301385,0.6069352144642373,0.5717532523620791,0.5522758833466455,0.5550290710452659,0.5796886105671238,0.6151437759704648,0.6540442618117733,0.6894752740522689,0.7120271686366141,0.6972084570479776,0.6381066236541927,0.549493112859691,0.44570518024091427,0.3400413371706765,0.2400078188410062,0.14106557452423923,0.0408529490989604,-0.05308203965894626,-0.11030535513756692,-0.11168880726235719,-0.06160005569793393,0.031167692818738244,0.12693522504132138,0.1791732065122524,0.1746721856567152,0.13997916845036953,0.10697361137946387,0.07471581383142663,0.03864863823157361,-0.006313481516958184,-0.07763396529371601,-0.199190022598482,-0.36049569381163415,-0.534064099945261,-0.6566948634837249,-0.6336127917650056,-0.4386868951414537,-0.19533658849301289,-0.019117443578702722,0.06750833262975606,0.07721213791006315,0.048037612271075884,0.030514851151183377,0.04833644400872141,0.09203301166646867,0.14438647952382452,0.18162763515585886,0.18738433455744682,0.1661262811383054,0.13593771250342324,0.11294169002118606,0.09611944747369307,0.07865283872683927,0.07269122049104333,0.09503816926832198,0.16931198153582047,0.2785305279737468,0.37665497718891644,0.43558119816618707,0.44430762580676353,0.41064296571204806,0.34244723007122824,0.21285871729411018,-0.014427754566875126,-0.22662018314736765,-0.35627054248087625,-0.45593210993449573,-0.5562958346041464,-0.6427202471108613,-0.6759253025427291,-0.6332228549085722,-0.5358120030209562,-0.4137764401665155,-0.29398812214236825,-0.20642252755033139,-0.15865341054589224,-0.13864483138643385,-0.13564515262462926,-0.14990262461273185,-0.19032037469211047,-0.25676493590119254,-0.3398078454654064,-0.42309433309153144,-0.487470005369815,-0.5079054291752668,-0.4499786758491246,-0.26377793444627373,0.06265169210330712,0.3822087003246365,0.5627355512410286,0.6159157435058638,0.569736212466961,0.47034270920857585,0.39588826654560705,0.4031527496602873,0.46096910758879234,0.5120079301804596,0.5281751025368063,0.5288167946465078,0.5376070256810692,0.556053197660542,0.5525172074853945,0.49504119503784244,0.36981453492773053,0.23725225813951561,0.21827244199954776,0.33294353576247815,0.4727770732264434,0.5632840379135744,0.6076475357255405,0.626071661045417,0.6357132143382064,0.6397922579703098,0.6080566797044139,0.468867324069711,0.30444264447935476,0.20224202660926396,0.15331261331645948,0.14135049958775622,0.16731233723377545,0.26860258964949435,0.5102729006421612,0.4691842739126484,0.28136587710096755,0.15801572298627037,0.049528317567640805,-0.06386544081241965,-0.18633342166895797,-0.3069362306160828,-0.40028211321247825,-0.4495378789095795,-0.4673472265380678,-0.47902774615732446,-0.488900267926185,-0.47087769384646716,-0.36286166277161575,-0.08626493289678476,0.2432706667172362,0.3915368159342054,0.37033185621235004,0.2492912888403332,0.05427787885865274,-0.2303014138758395,-0.5063668757414058,-0.6253635765259695,-0.6675237978385691,-0.7068811345401435,-0.7502247297254698,-0.7652150268114452,-0.7026875615241064,-0.5407018626409046,-0.316959632239144,-0.13514261512310907,-0.043226806950399536,-0.017094697813285032,-0.033864680960555935,-0.09455448635339847,-0.224367577876853,-0.4963276470155584,-0.4771492117697988,-0.22047678927172212,-0.08449051634190342,0.009357636721853916,0.09033084215320696,0.1746555090082872,0.2630914839161812,0.3543633032902026,0.43268904266098795,0.4532916425793718,0.3639494839198459,0.18853136252673783,0.0030333493054296168,-0.14500684275473216,-0.2585240496251984,-0.3583082594079631,-0.45914100940761593,-0.542897893285584,-0.5839251857282163,-0.5704903203624022,-0.5041540270341376,-0.3780824273333977,-0.21930525675361454,-0.09137689047720962,-0.003609451039670708,0.07067649437921379,0.15134461588489775,0.23730963779663602,0.3250122215594444,0.4161070060878885,0.500266497063206,0.5064871304717727,0.4579453245701957,0.4162435419057191,0.3932048485468927,0.38833081901591815,0.4025840987153912,0.4374433331811208,0.49064913112582026,0.5503433950090902,0.603318058201932,0.6278508610863804,0.5885230590546632,0.4613641617875786,0.277280537807394,0.08487457501475427,-0.0674018546646631,-0.06978500754008049,0.0017542693172317388,0.08303383313236161,0.1763679934872312,0.29635950203725947,0.4503230842981977,0.559709963543115,0.4886848168902465,0.32999594065908766,0.20493762023140036,0.13821896932120975,0.10989903228990514,0.10337178384797206,0.1164906602297496,0.14819713231431594,0.19881636544159226,0.27187364393547153,0.3661931967666636,0.47169759743989104,0.5895755796449348,0.720371113244375,0.7879388092079971,0.7041495185675869,0.5421248243186796,0.30168195638901335,-0.15645601421845803,-0.6068475160853961,-0.7648430945897366,-0.8140949686342999,-0.8394535222658088,-0.8576107798191752,-0.8685170398184481,-0.8620093770496631,-0.8204684602644022,-0.738938834821191,-0.6622738318342838,-0.6430600708873554,-0.6711725613601447,-0.7085359918123004,-0.7417595856888348,-0.7569097055983233,-0.7016853140363172,-0.47294991177764323,-0.13924687952045484,0.12498409798817305,0.29127334705045255,0.3800755710514121,0.4090655693203963,0.3974620258057926,0.35985595838955786,0.3086801725777398,0.24689903984380895,0.18382534861342498,0.13359518181662916,0.11604068369614873,0.13261286058261465,0.1639032412089313,0.1817232484516428,0.1794751279377246,0.15917946833856084,0.14264480716448574,0.14756382816628794,0.1847806235394098,0.27311166665306535,0.4225221380958605,0.5880742391369942,0.6918666012584521,0.7375196243236436,0.7680706150600092,0.79590535708324,0.8119522055765144,0.800788250110319,0.7482660920026418,0.6606175893886211,0.5689681518171357,0.4921898834916593,0.41704659572131475,0.3133582857766933,0.1593815577526339,-0.0615137384389277,-0.2974768640311398,-0.4553046417987478,-0.5126006385410261,-0.5052930662048378,-0.47220352384388026,-0.4405092176610737,-0.4203658876040765,-0.4171613258422388,-0.437609406010535,-0.49151282848237016,-0.5768827946244328,-0.6636458184600597,-0.7181987587465354,-0.7138906465473321,-0.6771162637861702,-0.6327747708730606,-0.5850342647438211,-0.5327560288400378,-0.4764467734633389,-0.41714360314113336,-0.3579244565202103,-0.30323737988188193,-0.25439527318372573,-0.21367496767851166,-0.18171789416380504,-0.16807324318842007,-0.19876317768373467,-0.2803364698255768,-0.3672830496036352,-0.403961617983343,-0.3981547606529223,-0.37200343562071103,-0.3343804140265587,-0.29671180990976304,-0.27612006964032576,-0.2750482302802837,-0.27070872142578883,-0.24254300621339658,-0.16230320690814928,-0.010764415224116159,0.20541847434732682,0.42387716970474004,0.5934104126389446,0.710559403713185,0.7895215861143894,0.8447314171361405,0.8880590333666768,0.9223267843141855,0.9453318150566941,0.9576216968601304,0.9586637549328186,0.9406419264232839,0.8605899327211031,0.5337200308717218,-0.11092455166133194,-0.46699332034353275,-0.595735763899423,-0.6413212025202852,-0.6520955360552513,-0.6253587943387794,-0.5469052037444629,-0.45049463225373965,-0.3603133422805059,-0.2805421617514101,-0.19415260319466707,-0.11315511537494602,-0.045085514152417336,-0.00308705898500888,0.013453776494864178,0.0005688005068429725,-0.038217062325430484,-0.08981056811158955,-0.15467101809434675,-0.2393613912921106,-0.32954266029591656,-0.40162347583387065,-0.43942766117861626,-0.43558415868009315,-0.37697558683416493,-0.2599429726150703,-0.09477148285501823,0.06842681872524305,0.19504904198733453,0.2708142451650698,0.2784705564728939,0.2043038340601787,0.054876379861375765,-0.11544628190541611,-0.2663155088910085,-0.38747602571338163,-0.46572838220818996,-0.4950334570438074,-0.4635165077880912,-0.3445216435754275,-0.10193191399221077,0.23537312878805358,0.5285845906370678,0.7072967392352042,0.7832230006219465,0.7652396489027152,0.6426507224726632,0.4360369688736752,0.1975669567455274,-0.007717835613702687,-0.13400496941589335,-0.1673367889459027,-0.11146111821792552,0.013188465801460972,0.15301234148011864,0.2524968263813514,0.29021507971885646,0.24928878936275628,0.09401991155663349,-0.1439526361470781,-0.34600728907696005,-0.45708896021884843,-0.49858996140091644,-0.488625028297367,-0.42669105097641585,-0.3045721601824346,-0.1374691193954648,-0.0027065196213515125,-0.020339162517981433,-0.19566413786346304,-0.3509116562139215,-0.4345250926643038,-0.5221304757009735,-0.6271518730224054,-0.6042869809194544,-0.4599859975838652,-0.3418384941954127,-0.24438238024683392,-0.13543835758795578,0.0057167909085356705,0.17114367816242354,0.3367482174983682,0.47244030693317884,0.5538198209546287,0.5822161337625029,0.5734444532773996,0.543027381481375,0.4936394665264291,0.43066294614747347,0.3635961857071193,0.3160364969048381,0.3073985411854065,0.34776766689625904,0.43164159729255536,0.5318852455836122,0.6034232817757538,0.620490988628277,0.5584453519676474,0.3404511225338029,-0.12485944860931007,-0.552731850872384,-0.7426527700631729,-0.8242172362172301,-0.8647336178957757,-0.8772719596546243,-0.8488907025300194,-0.7438484257552477,-0.5564128322764712,-0.3841366167321131,-0.28830310932697883,-0.25955256502126184,-0.2651810888856344,-0.23724230414248595,-0.10250786586588921,0.2321593269320103,0.5791605649306102,0.7045173667781387,0.7538806312942289,0.7624259624945336,0.6734809511033162,0.5535743046094822,0.5440215716406388,0.64396968687354,0.7717956209275786,0.8635412173853085,0.9034593676488862,0.892642957438669,0.7990217624203415,0.48053117989102656,-0.010945789764345541,-0.20673837279357044,-0.20589729767848372,-0.1549140366707796
