0.6623588292724316,0.6443046353149249,0.5591620059316633,0.4217064180073268,0.1928049664796223,-0.11336597455046961,-0.34917551906236916,-0.46913760003643346,-0.5133829118549258,-0.49446624625730407,-0.4022962853154779,-0.2372239466598908,-0.040631179036159794,0.12427309830919134,0.23706322757574402,0.29931370748492636,0.3163461817174357,0.31235175636255763,0.3089917360292018,0.3200983521532104,0.3331602958242672,0.3245786567740251,0.28931693857129076,0.2455947077685344,0.211911933026412,0.20085427871810876,0.19897866948844584,0.18837730537622038,0.16665781185337616,0.13833133657533755,0.1138909514246412,0.10899539195852878,0.1344542225676079,0.1645494018595865,0.17628064918763722,0.156787441138879,0.08741648526581262,-0.04840628475796068,-0.15061256807416606,-0.20138660484752668,-0.24917747541387913,-0.2976093584627229,-0.32828078119522913,-0.3348082671873779,-0.3210107487412259,-0.3003569584542634,-0.29715995384959115,-0.34282548859391176,-0.4185316850377054,-0.487725902299046,-0.533691660687363,-0.5561794717153004,-0.5498717404847501,-0.4900683685781951,-0.284826496374805,0.08342461832544977,0.32292117629155914,0.41649581421323273,0.4467810259827571,0.45410311871198905,0.4546467722783918,0.4593385621760905,0.4651479900542289,0.46349668253312276,0.4410888372308173,0.40295585157766456,0.3520101341662948,0.30813118181491983,0.2903550162125335,0.291804749218178,0.2942218254274039,0.28571259533587107,0.2680467562429958,0.24192656087878175,0.20662930843651703,0.18156316697718236,0.1789868596601543,0.20411228348576677,0.25052299870898753,0.3033053766765785,0.3441480383260144,0.3634077579035266,0.3637213982368364,0.36497749016217385,0.38451567929087604,0.42626731459497424,0.4752336099835657,0.4994057975477868,0.4874935713359823,0.44114454643294365,0.3753485819628621,0.2949831231617771,0.1979275093845054,0.07925435776806412,-0.035822870042408354,-0.11555802682475462,-0.16478359059233597,-0.20538103372066432,-0.24927211460690593,-0.2735997345249283,-0.25246553952770584,-0.1696911759434409,-0.023848278517957334,0.17736544910481283,0.3842379197556638,0.5412221217275858,0.6210163735995995,0.6204825437235041,0.553088290849877,0.4617720436859562,0.38005394010569743,0.31163756423379363,0.2544869712885802,0.20646452985469463,0.1692750788195756,0.14240487157866746,0.11049013082554482,0.05362851338248713,-0.047322883229354885,-0.18984913960621216,-0.3291541408749676,-0.41536382657487203,-0.4419298270928262,-0.44485395819735735,-0.4557266477056989,-0.4803775588772904,-0.5039747431652812,-0.4948458606070792,-0.42476021551773174,-0.271330020180551,-0.03436596421843351,0.21013066223408358,0.3703121955837636,0.4321732740584854,0.4107132734033977,0.30473432420160296,0.1369641184012891,-0.021303224994808048,-0.10527488054982397,-0.10321006251792476,-0.031479660548777585,0.09940633606620299,0.24777166468956874,0.3536803902585707,0.3949746131952059,0.38138485779199555,0.3242759460343416,0.24052310493255732,0.13845231427412405,0.04354670313009544,-0.027195724801736466,-0.06958805416720476,-0.09020960735191776,-0.09306852346067385,-0.06734093123980082,-0.01365586970353593,0.03725911997065211,0.024797031120757727,-0.11003426510432736,-0.36787569122723884,-0.5878111566218883,-0.6869279594999701,-0.7166489124378301,-0.7172317743340819,-0.7058616360786235,-0.6878859759285216,-0.6709541906234253,-0.6589090352046646,-0.6402250928090617,-0.5770532811264892,-0.43654368587895626,-0.22925538088175235,0.025201712141620487,0.2641860076566248,0.42047663398708607,0.4904824427181224,0.5006811825454895,0.4658716989512623,0.3845211426488251,0.2421391654429809,0.04880605467168583,-0.15368463123542342,-0.33671952596288995,-0.49414576836164087,-0.6092928583332025,-0.6788533700502227,-0.7126980761063371,-0.7121313257328239,-0.6642258209614591,-0.549412513681554,-0.3322511483498113,0.012543488191031722,0.385613438107683,0.6197540248451142,0.7111647206593908,0.7209124710908583,0.6885083405260545,0.6323660015889228,0.5635630676599714,0.48888742284382897,0.41604545138007804,0.3592655697079922,0.32856296527399487,0.3173681438178264,0.3090363167520437,0.271480185410664,0.17906180717897396,0.030215944897872857,-0.14914744909104286,-0.343949747883164,-0.5429694761698836,-0.6442832308279514,-0.6390612738170209,-0.5864195343729558,-0.5009119134004286,-0.36317919953128697,-0.17531769834357752,0.011758162008116278,0.16063515980952642,0.261148227237352,0.3139492745236275,0.32198572981524987,0.28595413840070316,0.22991387804994673,0.19056137627249498,0.18182234803723793,0.18913739725114628,0.21678873213898794,0.2686506297807872,0.33311219987200574,0.3938806609638331,0.44022993343532174,0.4397116369387192,0.36232123105033415,0.2600326629102347,0.2196944265552283,0.27926029686587606,0.42899517924593905,0.5904335314445069,0.6508606961086912,0.6357803874594306,0.5993207537517246,0.5590514906527492,0.5331355642796932,0.5388214397747144,0.5597703354368939,0.5694745182398667,0.5679050922546927,0.5571849267219489,0.533897042201334,0.5090800927046017,0.5057699983982735,0.5350250677871742,0.5825928045046447,0.6231323698256549,0.6461318694573728,0.6465396419416611,0.6144885039743334,0.5410414051989363,0.4221819786258819,0.26464354476319824,0.08959342955512038,-0.09790616619074115,-0.3241541183656727,-0.5237392987580888,-0.6285927001378906,-0.6652786248718977,-0.6726191350857443,-0.658592787671396,-0.6331399270338556,-0.6012529693473732,-0.5614560476853233,-0.50875360673181,-0.4046588975284065,-0.19736091357261526,-0.012982858042120756,0.06639932534056184,0.08674665671788442,0.06897262391560927,-0.011102998136598138,-0.19803141865918006,-0.46784226514642063,-0.6700306205088528,-0.743214127917428,-0.7452452182068228,-0.7135943692746056,-0.6633081229862292,-0.6186639582472291,-0.5895367750229963,-0.5775750151800765,-0.5704161567148964,-0.5630029958850918,-0.55211948527529,-0.5379476648985281,-0.5179044012635899,-0.48115670240367814,-0.4185790366858234,-0.33540710410870217,-0.24718653178419056,-0.158150909808361,-0.07810073477484727,-0.037769039227735744,-0.04493216729777992,-0.08444185679736047,-0.13714955156999586,-0.17114536523627985,-0.15235136732621618,-0.04260924789314757,0.18306077864824372,0.4609006625078228,0.6630491540642287,0.768155559984218,0.7931627188685934,0.7657143349245317,0.7099627668965819,0.6448288163536761,0.5722419294955079,0.4769243178586837,0.3621396312525026,0.28623459372496746,0.29904046299836345,0.39248486433673063,0.5025157375083125,0.5904699308638475,0.6538186766899997,0.6693473054541806,0.6279603786338859,0.5624037633027139,0.5129822809704379,0.4903945772516835,0.4786692405162758,0.42878763940135667,0.2932269875050745,0.12024505172677355,0.013915124749883741,-0.02930835544170614,-0.039905800080032486,-0.042886519955608375,-0.042165444042580984,-0.03112444948320771,-0.005560487610339017,0.04083900188912175,0.10577701295389257,0.1784049049369763,0.2467633108800517,0.3048847310986963,0.3415896032221284,0.35379325707618065,0.34290984987491263,0.32032974578835516,0.2782924099140731,0.20128624719718335,0.09724634215751701,0.032415114033284724,0.019657368457682903,0.031217733073255,0.0568614653944129,0.10018684602519999,0.15162542282514752,0.18840604585193593,0.18914622077566268,0.13971249534970925,0.03324824585865951,-0.12158250877035408,-0.3029904803950071,-0.42488711463968865,-0.44591910504361,-0.4054118500664589,-0.34716427353140666,-0.2916835994205289,-0.2463359451194089,-0.20868476885088752,-0.17394140197532548,-0.1377343052446383,-0.10343847544630379,-0.07214799787490588,-0.054255848525747184,-0.053023784973166746,-0.06357425612140119,-0.06382389738778431,-0.0462590261140203,-0.022390173866665898,-0.0004293496234400002,0.016927755016292872,0.019296058635204914,0.004731483520530708,-0.021927662004674636,-0.050421643009634864,-0.07513372878849271,-0.09646177978994366,-0.13388427228977587,-0.20604555358672003,-0.3047998549114034,-0.3691578177745005,-0.3870438456272287,-0.3703286482957145,-0.3056152930343895,-0.1802106293231642,-0.01068094277683734,0.14930425696441585,0.26757783979776156,0.34822657121122674,0.4072689489639684,0.4516118090285297,0.4727600794065578,0.48340554867140734,0.49986921832100634,0.5053893310612484,0.49828375093620597,0.47252533411748604,0.4319454342544727,0.3804186559538641,0.31452297337921714,0.2205513662786246,0.06556370431982839,-0.09679232091701663,-0.1685189312636672,-0.18430894241669943,-0.18152863844705458,-0.1818917229130345,-0.16774489131666298,-0.11224971554581355,-0.03897217452241052,0.013706359490773973,0.04091433913939707,0.07140282486414026,0.11570285655028172,0.17939370907354074,0.2541894935203307,0.3315531141788575,0.40384058223682473,0.4173308609520545,0.320567753029024,0.2113598826374018,0.1573539259664191,0.14794583056140662,0.16802133331973218,0.1934500212953341,0.20687578907793144,0.2102830086999958,0.20387422316428172,0.18510914020255098,0.14302909876351902,0.08963510917499729,0.04836459191859573,0.0278690915559676,0.032990427150821115,0.04293963402243814,0.03858026930933161,0.010977019113440178,-0.03612733012912246,-0.07898256207734088,-0.10127298860086942,-0.11270848055000496,-0.11444882140749839,-0.10539699149471944,-0.09365360208348433,-0.09003110894638598,-0.0942015663331465,-0.10324130968450002,-0.12631394012860986,-0.16910775873040496,-0.22671115915521114,-0.2864510853303946,-0.33236702808276564,-0.3517970359955397,-0.35403277227882113,-0.3472503568029005,-0.3387851234092023,-0.3264634901444578,-0.30182791981460416,-0.2519064614907416,-0.1779058433722785,-0.059681917381395395,0.14097659858814127,0.40155053833356347,0.5567600321675854,0.6011272565743722,0.6180626418210592,0.6391316542263408,0.661601552760906,0.6638003673005515,0.6373211599614614,0.5929092947001577,0.5418343507326403,0.46717891183144455,0.28998931307819914,-0.07159332207572522,-0.3307750110214014,-0.3978059872710143,-0.3606354638756198,-0.23557937095899464,-0.038418642128840455,0.15911111601592998,0.2966760214863168,0.36362413871895993,0.3763025473274891,0.36403188731711245,0.34903074927351696,0.3322118437027509,0.3059257590538038,0.2551938302882207,0.1522496420628413,-0.036065417449902985,-0.26999052108931404,-0.4420824863666047,-0.53089518541287,-0.5872106441186565,-0.651501173325822,-0.7134959657242417,-0.7537106167036439,-0.7813314844967761,-0.8092583012078108,-0.8470108887023418,-0.8630708766151367,-0.7809247022390259,-0.6389082677797763,-0.5259698501267948,-0.4454141052325023,-0.35701387981250926,-0.21426175031800085,-0.016220752838667925,0.173196208204908,0.3061645219303176,0.3775562829226901,0.3856500474788092,0.3361355427211668,0.2604298372134183,0.1895277709035426,0.12989607611843343,0.08636776095062808,0.06387865598102695,0.08907233373106357,0.1580469621729226,0.23786560735974296,0.29698628481286876,0.3276086941070432,0.322983498279219,0.263381215135057,0.11190625979625542,-0.08617139657893916,-0.20787872279985686,-0.24772201772072502,-0.2307947098593761,-0.1638126803877843,-0.05599706697777978,0.05663689880616318,0.14124782671161956,0.19398113074836687,0.2278614939520661,0.267215893721101,0.31255393907930756,0.3679863393031506,0.43339228206858066,0.513219492169988,0.5963075882957255,0.6549502141938259,0.6607191085561617,0.6263866262827298,0.584514699358451,0.5467895475411622,0.4971925181016086,0.4146327137501848,0.31450032489911156,0.232428668416143,0.1912767911160765,0.24738563386597726,0.36352800958016457,0.44820128816063975,0.47872854101577855,0.4833091799502123,0.4877924526544641,0.5018766912378879,0.5269735660596886,0.5538297964186694,0.5702981233991927,0.5754782492836394,0.5654256516255569,0.5452046729084983,0.5146130606918747,0.43566998080201275,0.2753922615879778,0.12352999348513208,0.03490638620349391,-0.0076334708007560585,-0.019027395969293974,-0.010912195568891414,0.013153762859754847,0.06790454230005093,0.11861040115194799,0.0644022605116215,0.03443394707592188,0.02127709021770145,0.01970627557355652,0.028457503564503057,0.04536085056081502,0.06170323204862915,0.05592621795910118,0.00809495624696913,-0.05549693182721574,-0.11638183340804514,-0.15851771289719846,-0.17284223676460567,-0.18349220278365957,-0.24743930965050076,-0.350503099498061,-0.4717185969869529,-0.5893417386138463,-0.6771343750471779,-0.7281679457939919,-0.7433260314685057,-0.7256237457398443,-0.6819679809021675,-0.623620034667846,-0.5522973418704792,-0.45343794858638514,-0.3027167144803657,-0.10284905349128981,0.061065902916616836,0.09969399394982315,0.03575521684967343,-0.072357300832848,-0.1773560660939809,-0.25529140364901176,-0.29929820030861254,-0.3098415968924879,-0.2867416435424872,-0.24616254559428893,-0.19755072185815165,-0.13463715870999182,-0.05180726032879207,0.040112194795286354,0.10079070026440255,0.11357107928705053,0.07846018550103553,0.022606460773663312,-0.03194425136534839,-0.06534693341780208,-0.06668673395382078,-0.04527585044268433,0.006454052119826735,0.10638946739635632,0.25693317290994694,0.4170325745487308,0.5342357130464375,0.5999245087145898,0.6219644917817049,0.6094653048309503,0.5800617365941173,0.5420097979027718,0.5014978003174586,0.46447959343282746,0.42648942631131354,0.37274802732947404,0.296618557761473,0.20914332062798818,0.14801656658917428,0.12504276758256988,0.12213373575401663,0.11915843694600906,0.1051265157424436,0.06867176294455853,0.016210530539321834,-0.017507637977728367,-0.002439939413482772,0.0767396204702079,0.18974912801246807,0.28581257683073646,0.33876966142573084,0.33885916815775197,0.25375056890513825,-0.009644372759266577,-0.4879599254972196,-0.782426739366372,-0.8351107790685305,-0.8059942189552326,-0.7495876642684198,-0.6739328214602268,-0.5530041830810247,-0.34890090091288645,-0.14239314429833944,-0.031263330076433365,0.026670700873575152,0.07430366357261882,0.1232575794825061,0.16825639598404926,0.18872783690331496,0.17838291312423846,0.1436944240873717,0.09714789086618728,0.059223611022438026,0.03702681757058227,0.03270073657641928,0.03423037132044996,0.02178176600252237,0.0007230299797054186,-0.005250185110765797,0.02153243098971589,0.08220955472148814,0.1672489525433808,0.25581942752692,0.3198312211357256,0.35266900024795705,0.36589109828261734,0.3717480219096189,0.3893911887909211,0.41830247185182706,0.46421648169601726,0.529562891212084,0.5796406573884106,0.5890644313619897,0.5568388376188658,0.4940968555931971,0.41014202965374014,0.35760746898185625,0.3964079825129658,0.5415452889440346,0.7103088213190972,0.7994827547306328,0.8135284994758473,0.7980011252014464,0.7797086270240482,0.7572626979441264,0.7061085329723845,0.5871903069118042,0.3646079557192396,0.08916040034204765,-0.11655751670726748,-0.1921478400311279,-0.13885129423425674,0.04518239676120953,0.26405163912210766,0.36027920008640724,0.34095827086641733,0.24053716767956135,0.09865764879423382,-0.033285369191520704,-0.11871439450915137,-0.16074073813566403,-0.1786942148433233,-0.17963715002242345,-0.14949196972143708,-0.08159509621461265,-0.007997129446507264,0.0341879823923864,0.04903361024123892,0.0338854252546136,-0.02930960207429948,-0.17626714476860658,-0.3899038250223935,-0.5951096017864619,-0.7511907265488094,-0.8490293591772787,-0.8824361101510055,-0.8718490026195667,-0.8447680634701016,-0.815599155738909,-0.7815906510597892,-0.7415971860768071,-0.6882808033766639,-0.6095002836838049,-0.49291194567947255,-0.3470241711598223,-0.20835062806602986,-0.09285206172950952,0.03337013766420764,0.19872984559882145,0.3846377538404405,0.5414802162565064,0.5985338881473522,0.5060876929660695,0.24866904611208823,-0.03860158347550897,-0.19479434617295818,-0.25434330690311946,-0.27229056066889123,-0.27974697148600364,-0.28462080968738973,-0.28808740204007305,-0.2685686353931565,-0.21867131820857513,-0.1300777674680872,-0.024751715713969474,0.059963765935855964,0.11336755639247405,0.14195479918793166,0.1608977815978512,0.17566713900212938,0.16990204040867427,0.1321034889259778,0.056834579237571764,-0.056630627579571734,-0.19812113419885602,-0.30672115155382323,-0.32057388463231606,-0.23526896380322235,-0.06717238917613919,0.17035475584529394,0.43828470374162953,0.670414906147005,0.7911394761131497,0.8085109557311161,0.8041785088741158,0.8105944473997605,0.8209205547541589,0.8194757161407094,0.7905360103873386,0.7234453839078446,0.6096682725686411,0.4550179476891953,0.3212822199161116,0.26148537086455925,0.24985948312082276,0.24539711919921212,0.2235143387576612,0.15895409670446903,0.024338789675197044,-0.19514883367473101,-0.45566604326876525,-0.6601478433355269,-0.7752980759318527,-0.8185621314000275,-0.7840498702871904,-0.6068506405530605,-0.2607705631094533,0.05655950565458496,0.18537129850388093,0.12338943940728096,-0.12146127271816284,-0.4650100579307704,-0.6922089044179812,-0.7862461189838598,-0.8218313166271098,-0.8229841981193156,-0.7613307451928395,-0.5259326775083578,-0.062253384541063744,0.3178873725759138,0.49602857908046644,0.5574777899249628,0.559498940983806,0.5344869457851176,0.5092918983592195,0.5102072313824874,0.5538109919617155,0.6018058447062842,0.5984545081509831,0.5477410680085506,0.4826899329132663,0.4189514287864944,0.3557632965785984,0.2907821233002775,0.23437313541043597,0.20881640725139544,0.2400553750773846,0.32122351379829817,0.42310383643498634,0.5134036153657668,0.5598123205273614,0.5472379441581423,0.45595816912142123,0.2783919391607781,0.08263127119948876,-0.05347017700001751,-0.11692321766749558,-0.1084499830158732,-0.018790358907496734,0.14864855363603446,0.3334507619541057,0.4533436083924386,0.5042374614755293,0.5238607893153319,0.5317171779172294,0.5236816074187298,0.4964053432841197,0.46036755984990796,0.4215725545032901,0.39147843544504296,0.37772655815651585,0.37510734775816024,0.3785749282998592,0.37445315465096096,0.35259078497474433,0.32567404154282653,0.3038216940147617,0.2889649908168314,0.27396070105156667,0.2366625370904333,0.1322809421103144,-0.04860717484993309,-0.24653858194846556,-0.38599375980372747,-0.456088237464449,-0.4815328838267084,-0.46782626941110356,-0.42225638212256617,-0.3471548671201973,-0.260613688145581,-0.17966062154875115,-0.10969282629451306,-0.046438287407851074,0.011681883538881407,0.05365524246865585,0.07525612692416161,0.08065123878252352,0.08698035340437119,0.10435270809596982,0.1352406941530685,0.17028163065764432,0.1918997532671333,0.1934315096531828,0.1886000531254507,0.20501323010146882,0.268061018377136,0.3590462304334557,0.41074247004547576,0.41652787899758487,0.3913303802018405,0.3202943845903986,0.15400328892532564,-0.1333106962475073,-0.4190479124019259,-0.6314332902502847,-0.7657816389245108,-0.8248498597315097,-0.8192936610897977,-0.7683020002656531,-0.6892063791375548,-0.5983101015410869,-0.5151653297867312,-0.4623516519220261,-0.45263360311379935,-0.4796022428825615,-0.512434348319695,-0.5165107368720454,-0.4758705788035887,-0.40221402578413956,-0.32266140613002764,-0.25350373286663563,-0.20478977706711143,-0.18697426801590225,-0.21373645705360308,-0.27484504173805735,-0.3481725592531967,-0.42176502234004476,-0.4867844127813444,-0.5416352801587977,-0.5687643039206881,-0.5521605248003506,-0.4928270854026382,-0.3957296009917179,-0.24559787303160163,0.013709632010277065,0.3601517343477288,0.618077362115936,0.738872962816275,0.7695226344819185,0.7635093845642863,0.7396897353559758,0.7008856371450861,0.6746037089220325,0.6801145844338514,0.718937465253556,0.7732227164343431,0.8177042406170156,0.8383380261045079,0.8239860046186213,0.7530986350737191,0.6139606081962004,0.45795669003877143,0.3515988687835962,0.28397264840905967,0.21235950172297735,0.08550605786153381,-0.13539545013743512,-0.40879404723242246,-0.5991306815484757,-0.6655938216226184,-0.6322887749667718,-0.511529608710451,-0.3091203845173589,-0.07619284539000387,0.12049265147292414,0.2576116487776032,0.3474123395125624,0.40817472132377786,0.45047548986315933,0.48298347542440717,0.5013796933056076,0.5066920531908224,0.507005466331937,0.5131404941023717,0.5227586975993673,0.5283604309548819,0.5196057195338138,0.49104215972353416,0.44723813775229965,0.37955449832691984,0.24780764088370283,0.05639014033310656,-0.12202551415340618,-0.25553306827506633,-0.352248450378067,-0.4219590272400634,-0.4681586305039269,-0.4862287872752702,-0.4568373531954022,-0.3235849319913374,0.059847239127224276,0.5032198983906747,0.6254126952217005,0.6384272407597621,0.6079236221771123,0.5017730292623902,0.29423024683264015,0.0863203104436718,-0.05432214351007944,-0.15923283550857711,-0.25690027768609897,-0.34363533079880143,-0.39912066366401194,-0.415535395143364,-0.3936180772064325,-0.3410033913484971,-0.2628106673273198,-0.16330427508369752,-0.049846668797194515,0.047955477769037566,0.09634562603883742,0.1071310071490169,0.11870201439667909,0.15476615036386268,0.20809454507166716,0.2564218869186929,0.27986130219908767,0.25729974651671234,0.1997122054819104,0.1396306637733782,0.10649441204031275,0.1175309004173616,0.17523858112851773,0.2486768279738995,0.2961841874175583,0.3256987498721329,0.36422541758602606,0.4156189963945594,0.45784301004187267,0.4645138476280819,0.4234216048906511,0.34370633487449626,0.2442524499147373,0.15138610940837643,0.08689320764046261,0.056092219420614514,0.05687954911126393,0.07100073210993116,0.07219923417852168,0.05401457995980117,0.016818904076639215,-0.022109497208113085,-0.05044818447883172,-0.07166878946207211,-0.08588114144649919,-0.08908009890312013,-0.08621628659814291,-0.08240870472926648,-0.08431332917805334,-0.08659306406678555,-0.08252388192482776,-0.07330602277559489,-0.06142850767244814,-0.05387950427143615,-0.060621742222894466,-0.06987842037070091,-0.0704431379495871,-0.04852605818142865,0.0050534926393486146,0.09553731303206016,0.17996085785397042,0.21689727328455266,0.21024201148120175,0.19920661878577636,0.2216866714860433,0.2759415240217544,0.3436641794870268,0.3922098431712249,0.40809267582048797,0.3964728010842292,0.35953723767820733,0.29379581897890455,0.20927354613377566,0.12426484572767454,0.044067183378048075,-0.013100845756598575,-0.028489549940670128,-0.006327686908992919,0.022753956562244142,0.006872648844274657,-0.09666928999323024,-0.219295030561393,-0.2975127106627057,-0.34981161132288546,-0.3890549764046736,-0.41306939121342395,-0.4230457681622809,-0.41615681618100125,-0.37292453019892957,-0.2746937750194462,-0.14608717441328692,-0.022282789888129532,0.06559944026220767,0.10075421682111552,0.08747355068615707,0.057972510189032586,0.042054735129002416,0.050526573465382946,0.06403902207978623,0.08332364171659765,0.10357519043638844,0.1216956507550309,0.13816506018668417,0.14837193818202118,0.15165199248061842,0.157846110248016,0.16928494277041203,0.18521405531195426,0.1875534863303113,0.16009466215608892,0.1073250027365286,0.04803076179717398,0.009929321815459316,0.028259057765813854,0.1301267561746596,0.288793384502979,0.4309191824821276,0.5136670303963732,0.5446105572085609,0.542267709421429,0.5340470521876577,0.5198878975295045,0.47681027198227444,0.37539123271815045,0.15116082126871236,-0.16513191346866096,-0.36811366084847835,-0.42855290085356856,-0.4227288732967365,-0.3989277401055365,-0.38548912468962315,-0.3977534537358165,-0.4436242073428019,-0.5237151295201616,-0.6223887310525521,-0.6983044491888063,-0.6885006742467406,-0.5582373855910611,-0.34160880639157837,-0.12407014538828315,0.04650961491506906,0.15888829930295273,0.2279324879887733,0.2742245023423889,0.30937060773022107,0.33423975561135355,0.3402124460476815,0.32001821634404015,0.29449133437054015,0.28773051757416473,0.2945118275940866,0.29230724148044956,0.2670127585260789,0.21247238432660684,0.14207502188572568,0.08575825775633093,0.07948420163447527,0.15128571471779179,0.2838562172963105,0.40406673270467913,0.465897593830091,0.4969473674424339,0.5219373412433221,0.5362991535134497,0.5138298138475981,0.42670357349310717,0.27711856792302414,0.1263352032103617,0.039276788197979244,0.02489500941934039,0.05915788875508172,0.11317621881852498,0.17117931232107064,0.2242961853515138,0.2660635030856379,0.2821480465147191,0.25463377288847094,0.19127331291340233,0.11825836136430923,0.0499493177602251,-0.0433835514405122,-0.1717753681274756,-0.29725841622920524,-0.37559908935358316,-0.3983913101285315,-0.37578693163148014,-0.3145101147536173,-0.21587961413593804,-0.10091726455143521,-0.017712938634105387,-0.015754407687652825,-0.12117326136811571,-0.2724936664033257,-0.405920315330402,-0.5163386227689077,-0.6046660767899651,-0.6493741831334592,-0.5985271253967052,-0.44648339257195485,-0.26783116104637306,-0.11917001050200057,-0.00972007591410095,0.06537118306580887,0.12230009049296772,0.17159310276704343,0.2185358125079688,0.258208000529393,0.28443160043507837,0.3078715231379554,0.3224632194622774,0.31978081991084895,0.30105864575698416,0.282058242883017,0.27628500425025254,0.27547509236401857,0.2464090571571236,0.16298251961422758,0.01929128529273238,-0.14131528506677943,-0.2462917600280521,-0.27079277131889706,-0.21301278296141288,-0.05683498434661951,0.17006774814423717,0.33948422408678924,0.39532834651836796,0.37054126826006994,0.2705294209302949,0.06758452854105547,-0.1833675713986395,-0.3367454950314241,-0.365475843908537,-0.304090219817026,-0.2012169363692056,-0.09185493841457988,0.00647496053283558,0.08265779572195014,0.12425445004114752,0.12060429388225605,0.058674257983194256,-0.045480268044598905,-0.14873253076120244,-0.20832764635203968,-0.21159590988726534,-0.18246806147605282,-0.14541163698353962,-0.09997253246294649,-0.04498443017583067,0.0015324029993488112,0.032676267534571965,0.05174278812710429,0.06581252272205679,0.0812119178055253,0.10972931838339309,0.1549825413358836,0.20620791395587865,0.22189326000095422,0.1527490583933533,0.03534169885154103,-0.07385213524738296,-0.16151067870504754,-0.2237071218683483,-0.26159397551289765,-0.28294126601549857,-0.29529535500825016,-0.29589267873904873,-0.26434842748497434,-0.17474954583505958,-0.0003089909480678526,0.2109303829614842,0.3016187556035956,0.28316791509445954,0.2531735640622508,0.26508058832942966,0.3074797711002096,0.3298523021286087,0.3293499292679603,0.32946511295482217,0.34140223779119383,0.3641169251940725,0.39435707775654805,0.4227548482460571,0.43466356382653054,0.40988092913397234,0.3269613444710583,0.19029154249106944,0.056292687778576336,-0.02788775185204255,-0.053396092601601,-0.034894216077866164,0.009161658357635443,0.06645988960089959,0.12648845889514762,0.18559917992467256,0.24962358204448015,0.32265641031443465,0.40218538887110034,0.46460778637816363,0.475580869705086,0.43202254931314193,0.35664431073226077,0.2710414224203701,0.19270325932677052,0.14374015034932477,0.1359877658681514,0.16432544817160494,0.17792548319442947,0.08405436398788889,-0.16187452214618803,-0.4025189220223524,-0.5324860971033546,-0.5916927633547738,-0.6131079061696675,-0.6159452950240419,-0.6096776180507724,-0.5966107864570904,-0.5751319369444432,-0.5383168129797234,-0.48557289727358993,-0.4237994509187409,-0.3592014963010738,-0.2988967416133428,-0.23104265251133102,-0.14684697397796193,-0.052086164626558434,0.015994489257361206,0.0450612738284009,0.05399914667958305,0.057574276287199334,0.06035339846697222,0.06158010902887002,0.05805790232520936,0.05428967695664807,0.058292650927714795,0.083606158796085,0.12250079238445856,0.16194410396874107,0.19699127911733805,0.22539204712326216,0.2639337730085278,0.32970219419442787,0.41150657194770046,0.41518023363360884,0.3131000129045517,0.15408717238559186,0.015132899848922153,-0.03601601205727465,0.05913338838298139,0.33061661503313383,0.5998406145868004,0.701567677502853,0.6820641100780885,0.581473130778785,0.4314228005723572,0.26501866684103853,0.12181651109662028,0.04804151574049191,0.06328817494764835,0.15747279896012908,0.27913200002198624,0.37801374808590255,0.4380871993228135,0.46585268253755086,0.47614444025720426,0.47235568216687535,0.4588494896957768,0.43416585984275363,0.39640062465166115,0.34948006937680604,0.302260249231072,0.25587829937314394,0.2000697148234348,0.14218388690511816,0.11455768924836666,0.1204316495465222,0.13425250428822802,0.1253506829707091,0.10141820073414194,0.07398415209208711,0.03480184492954683,-0.0645418329478653,-0.2808284215226416,-0.5885135704145855,-0.7853724526625909,-0.8232562672305433,-0.8053088913128555,-0.7757374971862663,-0.7351819405138109,-0.6831266808636597,-0.6290465355455788,-0.5989601597241135,-0.5895505901188264,-0.5723537450669162,-0.5355375667885056,-0.4850865463737532,-0.4363236647075092,-0.39930635455050467,-0.3619685389689588,-0.2991544094432968,-0.189395172662639,-0.011328046940141574,0.20625055581395085,0.38551504982227097,0.4657719882657299,0.4538492479534782,0.3863477908412198,0.30138808234331793,0.23653131282351605,0.22106035616129233,0.2558827071962517,0.3270017943779446,0.4173187872957631,0.5017011958176869,0.5505557037188347,0.5495589002714787,0.5007474546703901,0.4242424615920207,0.36444352433044136,0.3392859933744312,0.3263816852227216,0.2855140081684146,0.23270909405462956,0.18942936505145488,0.15139526977521564,0.1042757305760636,0.045362416270356,-0.01974630942028873,-0.07270078417690433,-0.09393156042283111,-0.08262256240211287,-0.0458623110279347,0.016392659397044682,0.0895294836333001,0.16249962203528104,0.21799395061814064,0.21895435855655299,0.14404229222486958,0.026956953082480053,-0.07223563943287294,-0.12385789055701982,-0.1370490546939636,-0.1397642503703431,-0.16272925660989285,-0.22304341855236523,-0.30500700772323186,-0.37342824523813456,-0.3992030879851605,-0.36503390410525927,-0.2569310058344693,-0.10543995981705356,0.02472000552181635,0.10902907592303371,0.15433188128867426,0.16544134139996647,0.14912376597289778,0.12053531404795584,0.10319174301675135,0.10077046441305701,0.11131318026194352,0.13285294980738102,0.17029908112715963,0.22425126530659825,0.2897296749597406,0.349978838995548,0.3860179608052949,0.3656580710827849,0.2706315654043897,0.1371950237538267,0.017505792452347818,-0.06211133489358763,-0.11011266195606567,-0.14377825611208842,-0.1668151627061952,-0.1740375778657914,-0.16419578665875653,-0.13809917983459313,-0.10630498142391402,-0.07961103035441988,-0.06266140957611438,-0.051125863875823394,-0.03278561941078163,-0.00817558167048038,0.017705067461785712,0.06971103460741096,0.1679522400937496,0.30365251582037217,0.4445152685434546,0.5527319302764714,0.5921978830849789,0.560700949872499,0.456815906494889,0.246486057659832,-0.07703994712987855,-0.3826664608077803,-0.5581680255369286,-0.6264193597630392,-0.6386199826406042,-0.6292040582315017,-0.6162008099017974,-0.6004249329791658,-0.5676582355283831,-0.5030379217341884,-0.3996406744351092,-0.2854157235312013,-0.2006500992946673,-0.14476210820771837,-0.07079227717188966,0.07980411520074468,0.31324696915554945,0.5210616360459785,0.6376362240892447,0.6732602015507752,0.660233345673097,0.6267398447671904,0.5912461388324163,0.5615101209789095,0.5341077252926822,0.49866546513668836,0.4444108630309111,0.3721286915721367,0.31002453932169016,0.2715822561169289,0.2507366797304343,0.22296391161350956,0.169560283528467,0.07097336566335768,-0.09590132836239831,-0.3061867143355937,-0.4760053752611124,-0.5560581138394619,-0.5452082490581683,-0.4371108879760207,-0.22799467743291124,0.024409912793316807,0.2207863032544681,0.3278331202833758,0.35753116933845275,0.3213683047918146,0.23495911523672564,0.12048541662007994,0.012518971335182223,-0.05531013765863159,-0.08974568392106408,-0.11921275863393865,-0.15561117622387027,-0.1849893722337673,-0.19131914213562318,-0.156103392434826,-0.056915693248525856,0.13284110005663793,0.4242936576501316,0.6677393941898079,0.7438099889751746,0.7422225732831939,0.7158476037222735,0.6696620560109839,0.616576909898678,0.5681444723988185,0.5159962487431677,0.4513715022600518,0.36672597231466547,0.25892214190952473,0.13082024039203616,-0.004399283201078304,-0.11648182766648224,-0.18833730717663963,-0.23038751565159646,-0.2759125592924362,-0.3466875397360957,-0.4298721912454468,-0.49492755081178863,-0.5216556618294019,-0.5036005925524044,-0.4318618293185684,-0.2941202057917475,-0.10377390580236166,0.08955187064780111,0.21365409378364858,0.2219532217354768,0.177569551402101,0.1538581807151929,0.15867217308064757,0.19030549190986376,0.2684274934632382,0.4284567973210248,0.6350388620906918,0.7788120954943243,0.8250471195656816,0.8284171713393755,0.8191246937743487,0.7916254854736532,0.7138207692163421,0.5160141873581935,0.12101685993027761,-0.3335111653226391,-0.622274772663506,-0.7570255065544989,-0.8152396568603267,-0.835167715730656,-0.8334063107294375,-0.8146776458218092,-0.7837089192692119,-0.7570052810938862,-0.7502238729494375,-0.7666320483576895,-0.7843002166048696,-0.774836133965058,-0.7128166043363919,-0.5739968336868633,-0.3727104054298456,-0.19021806076002318,-0.0693418217877079,0.028104205867620205,0.1512328620179994,0.31617058481225574,0.4884720508783557,0.5626021300686689,0.5424212726091351,0.499167720107444,0.46831279924269714,0.4556762854376687,0.4554743340731816,0.452493670547586,0.40737752642970376,0.2293809060489999,-0.20550532098414792,-0.4685234776039318,-0.5013703441688324,-0.47892433361791953,-0.4363121214785767,-0.37887697898705497,-0.2981313813250269,-0.17383010589453288,0.014204925887756743,0.21041618482605712,0.34409897319994365,0.401681472479004,0.4029539766617682,0.379770978262561,0.3490319278006461,0.3169541015406897,0.30065418277349604,0.32051764425441603,0.3754653931517658,0.4357513844010304,0.4833257289030784,0.5008668781739986,0.4690652561150784,0.3668784275712834,0.21170121971505237,0.07689757641665657,0.04637250355450221,0.1584387086750513,0.40123746369910573,0.6420893869391052,0.7773258866203391,0.8423938198966556,0.8780473307655442,0.8751299735593642,0.8080548901604805,0.6838047057163363,0.5921797037180532,0.6291526989225863,0.7637116003746489,0.804431856961425,0.7396749450103501,0.6472015001983308,0.5105046547088637,0.20651749143220965,-0.2874677086744427,-0.542975491433206,-0.5975937715550729,-0.5795523561245531,-0.5117138872434737,-0.4044169892695589,-0.29546155590682555,-0.22201606610959534,-0.20825059270355423,-0.26271918584672865,-0.3703023423492501,-0.4497920502246485,-0.45187755699212173,-0.4352972080477272,-0.46083345237555334,-0.5338623438089345,-0.6219430115450882,-0.6765592167766048,-0.6710666461308828,-0.6118173091864361,-0.5247778313076615,-0.4245982758000319,-0.3121118283639938,-0.16864704899552285,0.0006827182002790492,0.13685611296912492,0.21323668349789238,0.2513769933624203,0.26427575228580863,0.26020647139211245,0.2466082780299129,0.22966790985792349,0.225684889527134,0.2433484692451363,0.2695530605368564,0.28886834486466356,0.2990903307350556,0.3187970986676519,0.3557058452297948,0.40049855353452146,0.434055903843703,0.4628272941047266,0.4956439941123003,0.5365894386942713,0.5713444638835316,0.5645865371332129,0.4576267454763599,0.15102183403339636,-0.2660988536023637,-0.5058200340503562,-0.5924037912051524,-0.6081119807024847,-0.5844199637451135,-0.534444558114936,-0.48273623737596677,-0.44971234049697045,-0.4416350042115632,-0.44631996554550357,-0.45030863530565957,-0.4443274957696262,-0.42323864518583504,-0.3921317944561939,-0.3613556443009381,-0.34113092280735774,-0.3280599530705932,-0.29595557388649757,-0.21489832704945316,-0.06227192182499448,0.1682172465177084,0.4045790186553634,0.5546044353823065,0.6270366722446079,0.6693487554943541,0.7057173995230133,0.7486232852552995,0.8006457337406582,0.8440821802526407,0.8459289030315936,0.8033498304128887,0.7313212404109185,0.6372530299247561,0.5296047232423636,0.4257902043080502,0.3469974390730123,0.2846383208190472,0.22016732118525625,0.1427753127256562,0.04743371961767703,-0.043595662904684765,-0.0940359572062843,-0.10027362435892799,-0.06747813223443586,-0.0006439574885202373,0.08780922029147252,0.16142614843572073,0.19108011833943297,0.17365306792987503,0.11111324553963496,0.01668800659046726,-0.07930976002526881,-0.1431839847104585,-0.16479159702630092,-0.16455128067856054,-0.1507799707267419,-0.11072129553991132,-0.021813783946926783,0.09113362291889042,0.202693131215629,0.28823346151675194,0.34269260968135623,0.3786834164523713,0.4025881578344137,0.4146852452084115,0.4046317941093546,0.3692564547115779,0.2951062911096233,0.17496828734826086,0.05649886951935418,-0.006663973034606906,-0.020586965133896275,-0.0014328820775399882,0.032874239827652044,0.06159089597130993,0.08023038090032339,0.08758539477227316,0.0768449290692881,0.04538144764259634,0.008811404593792392,-0.024043995413567925,-0.04963421284217861,-0.062127286649379096,-0.05086756708134361,-0.0055690585328566225,0.0767511602299872,0.16904294751980561,0.22229707641290278,0.22608139980718317,0.19933585806090853,0.14581943721378626,0.08160491721637472,0.03764939623065017,0.01850934733656148,0.03262745259003394,0.09282204171156422,0.16961332782252955,0.20737728284442122,0.1911950789656776,0.12405179830317976,-0.009113723669162742,-0.20737522379884937,-0.39834849577555925,-0.5109338206824762,-0.561067185477529,-0.5845199760207008,-0.6023906169224975,-0.6167670882935448,-0.6183648073508868,-0.5856074154617642,-0.5143812833844358,-0.4423559986228342,-0.39779041605612886,-0.3815768900922145,-0.3863048001491633,-0.40495608840435066,-0.40686934985887657,-0.3795094395714727,-0.34194000968375665,-0.29949327073863585,-0.24177137931979678,-0.1644055973368631,-0.07988138846437538,0.007032765945392211,0.09842317624193606,0.19335778832751696,0.2835327082798176,0.36571693274534806,0.4376596183488521,0.49528485764797786,0.536636698791138,0.5495211513268659,0.5292528879733878,0.46635251821113705,0.34361778494001743,0.1430134286805639,-0.11127429930088742,-0.3056702599179931,-0.365863211122669,-0.3096644144701768,-0.19995508251855526,-0.10373522203059903,-0.05919156692392352,-0.06748829614723868,-0.11392045429968191,-0.1695247261859961,-0.20159846595876924,-0.19015625143256956,-0.12770479258346074,-0.03544611223246777,0.035251084911295076,0.08521905169734459,0.13550334178199688,0.1994940273658726,0.2803685068272815,0.3757762417782259,0.45732412943493644,0.4590116084027532,0.3857098667459996,0.3028317441375648,0.24664374470387712,0.21756232195083225,0.21387309730115714,0.21403791759051616,0.19251515390451485,0.16110237765602897,0.1423002751835664,0.12414739956026603,0.08587298357116041,0.03069471990107761,-0.013764937561224504,-0.02417413002710231,0.016892597459735818,0.11112129042417677,0.2369777157218853,0.3771361830595997,0.49594689612178483,0.5749598739209385,0.6361860318046431,0.6968492825127122,0.7628802132461101,0.8033048562662061,0.6120302163213773,0.1610756862830005,-0.15050336707491507,-0.2754011800168073,-0.30137840533399374,-0.2853628432773605,-0.2574721984787175,-0.2414000600654478,-0.24485047135504703,-0.25706129186323207,-0.2296480133537862,-0.08882536267833388,0.08940669690549653,0.22017747825925602,0.29819941852535903,0.3260620289576317,0.30227550185268637,0.2130317877836719,0.05940748497200162,-0.08080223856242981,-0.1411748269317521,-0.13050659399368209,-0.07268407072412987,0.01791112403899681,0.11866873840471182,0.2059370678300309,0.26044479464528986,0.26696750008144676,0.19923773050200755,0.02718535112145003,-0.1792796812458304,-0.3161181831640085,-0.37785030870560676,-0.374878695803174,-0.2996017377399915,-0.18146712297607612,-0.09235283300760413,-0.06851626191315596,-0.08528809018758422,-0.10673790098929418,-0.11413730556943666,-0.1100271741840062,-0.10705781193053157,-0.11502233399497444,-0.139511916875938,-0.16282447235481778,-0.17219773320132797,-0.15585479045188164,-0.09850881074736054,-0.00679141057728046,0.1153242040413984,0.24981359483592788,0.3700064466566633,0.45544664124748746,0.4855361228459931,0.42524098607717153,0.2369501275929048,-0.011202809463293122,-0.20596326605328466,-0.3244205982380262,-0.3806767321834024,-0.3910762341373142,-0.36983726223984487,-0.32097539458689206,-0.24163485193254938,-0.1287928262060938,0.00993751930380989,0.15066058749338282,0.2575257492605231,0.30069215740781285,0.2724560198660585,0.1541469493141272,-0.07663357946758644,-0.3084876191094901,-0.40086462692567826,-0.3882371161782965,-0.3159089702095716,-0.15899937924151383,0.17323073638997938,0.6372377336684601,0.8299790722801123,0.8341274617803826,0.799610080936449,0.7569025783535939,0.7108684300997246,0.6527769572074298,0.5572467011557474,0.37613946114989105,0.09902133544245477,-0.10293148490056069,-0.16488253074598822,-0.14634638979202405,-0.0865315399994983,0.001271120361179982,0.08308943981302767,0.12242661366423221,0.1400181559035696,0.15923740134363995,0.15722036342379914,0.07964029562648119,-0.11009109550668669,-0.33413740960079696,-0.4934293646463361,-0.5768889175367983,-0.6108082400233542,-0.5921410150388197,-0.4933635254763349,-0.3034280809347741,-0.06373279414647368,0.15081112788303874,0.2965626178101064,0.3777636260932117,0.4163094145937283,0.42997318303244125,0.4304892848023063,0.4221000962037174,0.39992400667307054,0.3599548142322891,0.2988530824085836,0.23007339317635547,0.1748790786596024,0.15421106770383716,0.17321065658766494,0.21954670999593442,0.27025537788177106,0.3083946424831685,0.33251505287770367,0.32967544945088123,0.2236633721641339,-0.10268647573182631,-0.3166362421567482,-0.354920572970206,-0.3226220941180006,-0.2478028899671232,-0.13290620722582286,0.025156182925800904,0.20078340616016124,0.3360650653770864,0.41598557414259185,0.44998274204504535,0.43762705367418103,0.3747951836900355,0.264983104224028,0.13956377462748662,0.03949968961448195,-0.020177882080337696,-0.04844096249545366,-0.06458833576642445,-0.08973235350745491,-0.1426142391695258,-0.22302760233869587,-0.31353296247221074,-0.39923441268708804,-0.4733834021102769,-0.5307607139378094,-0.5750167141145447,-0.5991605322951906,-0.6066245327972737,-0.6080170657452747,-0.608074234690946,-0.6013481281593192,-0.569837295730083,-0.474041281355287,-0.2799294037385314,-0.058514445286182395,0.08524499494112348,0.14934839073742823,0.15753799058252518,0.13812782339490381,0.13357447875314896,0.16394854181985635,0.2239505596854152,0.3017599269983417,0.38630094890720357,0.4594180704130772,0.5029908772538568,0.5103571236001011,0.47278234776432426,0.3856988345808654,0.2567674355058732,0.12660643940843042,0.029033154877965255,-0.028543300644143572,-0.060396633617561694,-0.08460560943926941,-0.09898792437711498,-0.09649694598149047,-0.07333695492957769,-0.04168266285780239,-0.01939091975387014,-0.008963954381412747,-0.006271138228360015,-0.007319624258425026,-0.004952924160123913,0.012213205839370382,0.03420983547402746,0.0511691578483878,0.06090833566860156,0.05620034075725586,0.034497125189136967,-0.022383224923428424,-0.1242884267482127,-0.24338021420141373,-0.3205486666355736,-0.31617084711337723,-0.20841566744112813,-0.01578101382855839,0.19806716446411543,0.37009179753566784,0.4745921277163218,0.5169457325189634,0.512413717099879,0.4846925610923584,0.4596384297150289,0.4400587610168714,0.39475385422050746,0.2856193755692424,0.16022530606013632,0.07445733462324068,0.03287616809315395,0.02308963183978331,0.028995110411114192,0.03573399738725687,0.036519033519152165,0.035735471879330113,0.030632478258105847,0.011451534252894602,-0.025680165257309148,-0.07743096085838186,-0.11966259881617973,-0.11174563231247596,-0.011122632874485885,0.19961724790697724,0.45019762392048235,0.6143433984587506,0.6463616249205053,0.5560114642236949,0.34331936802536483,0.06404068218347915,-0.17165096906497357,-0.3212079661591645,-0.39839461630262096,-0.4112779539162703,-0.3554137530215788,-0.24133670421092784,-0.11045573864472015,-0.02385319730291913,-0.006993073205129747,-0.06944886088414974,-0.16980437400590673,-0.22713227808595018,-0.1880725161958335,-0.07139254070395135,0.049454937498427366,0.12655676991027115,0.1568186986329102,0.1460788797782313,0.11318387368042136,0.07415968831605659,0.03430979475749563,-0.008975038477068042,-0.0584303517784481,-0.1073552817244815,-0.14399631039539693,-0.15566005683639397,-0.12730028254750086,-0.055266615097578936,0.03788455735477211,0.1317321421188034,0.22804558429301455,0.32970178537306655,0.43312864609157475,0.5321191475319996,0.624401799077668,0.6988502617874763,0.7203067621557709,0.6307880749883263,0.4543523248797531,0.2687202380966992,0.1244428966282168,0.04669555152414531,0.027292677843315745,0.05009040130747773,0.10306825114453202,0.18501994199891827,0.2808195539033656,0.34718659263238805,0.35796495642269704,0.31376703182793464,0.24724049718534044,0.202027090953817,0.20636429791604644,0.2963964889910035,0.4746187290660011,0.6569026273399816,0.76872501616123,0.7890639484534812,0.7090687980430471,0.4462300907333806,-0.1029096054497014,-0.4704121813846171,-0.5961735813463097,-0.6398916434108699,-0.6456288703194801,-0.609781008334002,-0.4923506816241219,-0.25257015884615786,-0.025681826981384635,0.04126030497228851,-0.051248665257208705,-0.23104829490334383,-0.3478422447576521,-0.3777993268644727,-0.37271448766492493,-0.346699452040595,-0.29226313790593816,-0.19159636492098003,-0.03229168034012492,0.18377813614344843,0.38926143090676535,0.49581712210958556,0.49207697722193117,0.389775155920262,0.19476342220005688,-0.05401605677195219,-0.2623124233908558,-0.3706252916196377,-0.3730193676100451,-0.3057929185229239,-0.21565030205424066,-0.11934105884548578,-0.006374493001422472,0.113604954558044,0.2152215817833384,0.28596499086821325,0.32769072683835226,0.34138688356398084,0.3124367880747716,0.22454670132459045,0.0693604222687839,-0.09539461879005597,-0.16438014286094196,-0.1151784125764768,0.00876612046101786,0.14754335346992414,0.25362542771043084,0.312345879022727,0.32535017552322215,0.2968792873262628,0.23197523649985125,0.13305535284310094,0.00224734822797747,-0.1599875836082469,-0.34770889684203293,-0.551013084075762,-0.7382008412785832,-0.8459258403996832,-0.8861680561276585,-0.890339893983881,-0.8669904957601177,-0.8143244922109384,-0.739597334604923,-0.6391748467317515,-0.5045573762420309,-0.3792317549815351,-0.333987746625167,-0.3685894709335752,-0.4447447464741875,-0.47948409447232543,-0.42581860825855367,-0.3169534045729271,-0.18778390501714054,-0.059036864519421535,0.029547035766456755,0.07769323448003443,0.11505860858645162,0.16808935444621007,0.2426475693394653,0.34637645646704124,0.4686315081447087,0.574946702336151,0.6366691602689489,0.6511468179602754,0.6240200182591302,0.568065814697851,0.49467059519804907,0.42751846254090614,0.3983143365326696,0.4257088166004926,0.47562288360029786,0.4937978096989024,0.46353788088773873,0.4137048143401911,0.37407965505283153,0.3563823279830393,0.35612862523216543,0.3668095194772878,0.3813102109406946,0.39186667262820746,0.39042804665515124,0.4031956650427604,0.46855326782989515,0.5710028807193129,0.6720201480440827,0.7327511500802273,0.7486630478395431,0.73904842007339,0.7234613889205486,0.7062345481409947,0.6798724287579477,0.6284389358306501,0.5425842772343724,0.42758299961426943,0.31957939272635094,0.2403633160470702,0.18563249754535543,0.13987430870471843,0.10022734991173195,0.05863724583420591,0.0034769613545367326,-0.07162885848716422,-0.16112232090877393,-0.26017646363219243,-0.3787914871358836,-0.5187472941533913,-0.6447361241859684,-0.7231995710033021,-0.7630294526873045,-0.7822487876556139,-0.7913556089114849,-0.7920104831431031,-0.7777947490595717,-0.7448242527018375,-0.6997789476982206,-0.6630014954499911,-0.649617190478353,-0.6748847806775247,-0.7359698456210053,-0.7803394880148498,-0.7898534778653515,-0.7822655383661556,-0.7541566356519774,-0.678371781645059,-0.49130975980060343,-0.15752708210792762,0.13602400630025943,0.2907629457146915,0.3664107518374552,0.4076990909067053,0.4290343232672525,0.43422356007234775,0.425693670407059,0.40293657442184155,0.3725326553199878,0.3430739191107259,0.33726457858594605,0.36361538723273296,0.40815729459059247,0.45922413709637133,0.5116050836817931,0.5610025205795942,0.602483774965857,0.6372527007821627,0.6420430242136321,0.5378077539222258,0.23629438179033652,-0.07856534705598231,-0.27007292378508185,-0.3874174164840716,-0.46394365912076935,-0.511172805630917,-0.5389931210083001,-0.5605130274012857,-0.5812762340795377,-0.5818433748843909,-0.5395697427334775,-0.46444888160157916,-0.3627569320556771,-0.24893289716721365,-0.16682703023699666,-0.12413180704967784,-0.09922765923998675,-0.07404554192155913,-0.04656658240738081,-0.02734032482806121,-0.03409518036696723,-0.0795537925968966,-0.17200171577088305,-0.289803549522985,-0.3896239641780335,-0.4330173650546321,-0.4074724489857642,-0.31971908533874827,-0.18356928537711759,-0.03227724591292871,0.0995999493130174,0.2140396071567621,0.3138518117996042,0.39012810036710266,0.4287605269297237,0.4207207685463256,0.37925663728821146,0.32772701901228873,0.2805370736197643,0.25402027844741637,0.24882462833490387,0.26114426149814185,0.29030136944017454,0.3462810946228493,0.4204528011017411,0.4992492620528507,0.5651955582391881,0.6129017181225426,0.6365065697223273,0.6241658621578182,0.521881028744094,0.11230406905154613,-0.5593076826518066,-0.7838796330826857,-0.8299874570394824,-0.8320898023440262,-0.8079328888473627,-0.7575726717798567,-0.6882743274432889,-0.622053381182757,-0.5847314193539324,-0.5744599814133453,-0.5644032706761701,-0.5013696409018323,-0.30672584581338724,0.030205254929465027,0.32321141047444946,0.5018142636137117,0.5994187773137059,0.6411487230820762,0.646185658697222,0.6262739239512262,0.5845714979219331,0.51380028977517,0.383327327416962,0.16118523867701334,-0.0760463129964073,-0.2098423315752826,-0.2454322869834409,-0.22359840439452633,-0.17969674428967297,-0.12624225479452833,-0.07128451584468123,-0.028604669006272503,-0.0026852090218659748,0.020680179429328826,0.0536373765254962,0.11906220165610962,0.21926694240060293,0.34412292670741473,0.4650458873960037,0.5549859878151874,0.5733982419401434,0.5102225082434775,0.3864323598362965,0.21265316960123912,0.04822126122340134,-0.0398642774185742,-0.04632388541004012,-0.011325264009062929,0.01839469369395815,0.02560382297729065,-0.00021813228902296827,-0.06143967381028747,-0.15205361672582737,-0.23733040183536894,-0.26832259978703454,-0.24345902966327274,-0.14937810849610048,0.04525573919018165,0.2808502574649531,0.4551263044644919,0.5594361973095772,0.6153927528348466,0.6400941325887863,0.6449656059450788,0.641347154866691,0.6334191987520755,0.6184570313362991,0.5811003686225727,0.48644213896574956,0.249108026929662,-0.14285488212963685,-0.36221216161711683,-0.40905209062582715,-0.4141253365691587,-0.4461749306864795,-0.5413306969887162,-0.6797280779390921,-0.7925790749819115,-0.8563171760068171,-0.8920555662416464,-0.9159707458620496,-0.9346667150754131,-0.9488825187252371,-0.9554756850751439,-0.9528497568157617,-0.9429153009966412,-0.9319343436857791,-0.9230424413894707,-0.9127530987664706,-0.8863397244606729,-0.8096521378875823,-0.633475558096653,-0.3655862107306897,-0.10416308347192718,0.09553084561721656,0.23838266700086405,0.34951795111955347,0.4492424677261641,0.5489926239846215,0.6353585334399777,0.6856530629145353,0.6989396047254693,0.6912788374610616,0.6711292211026497,0.6364739075701439,0.5740323080095083,0.4472091403715612,0.22963240286656805,0.008458810930723898,-0.09584616304449313,-0.06956605907185616,0.08194993226855768,0.34906908870358994,0.6365887305879581,0.8078284106411925,0.8685411364791287,0.8779189315797804,0.8621629246058539,0.8348634603565508,0.8082117703725622,0.7846412536692823,0.729390421843912,0.5828441103281349,0.3703545079256819,0.1439844817733675,-0.08875261155486498,-0.244614751773709,-0.28768799137131473,-0.2715578410462268,-0.22118944433933466,-0.14484738243637715,-0.04213934245108521,0.10061682073372007,0.2684083756797358,0.36731022751758163,0.33138643780879523,0.24134516919726023,0.1614048882979565,0.12280278529990586,0.14929628523284805,0.2630988537493504,0.4285091072055915,0.527975918596428,0.5376545607997434,0.48649926560915213,0.40936081825630033,0.3429124734864974,0.3146061363276055,0.33073681574148356,0.3812934278192639,0.4444354089280727,0.4926953865936808,0.4979842391235593,0.4227139167684006,0.18201635366813002,-0.221658485555759,-0.5359829525665755,-0.7199343245153725,-0.8134997825273891,-0.838552042217058,-0.8205425310496635,-0.7771131157972555,-0.7210333639256457,-0.6579528752824517,-0.5853154941291794,-0.5055503602359653,-0.4295707649160001,-0.3455385200004071,-0.24282669439781096,-0.13456771701769055,-0.03959707595510779,0.019864602902406416,0.03747292124032151,0.02098876961496819,-0.033706459489113126,-0.12319936006788827,-0.21087015539342988,-0.2540914287135645,-0.21168629266666641,-0.06486567748994919,0.13856835510178922,0.2988409863802916,0.3497265851957562,0.3001561050035315,0.18386713815230654,0.043981011608816074,-0.09145999716129254,-0.2071811366099795,-0.2948979834765208,-0.3579543526900285,-0.4061499440540213,-0.4349248451972635,-0.44255342260728225,-0.4400739521071478,-0.4382556576666197,-0.44349323783807637,-0.44812680411998335,-0.43918843745167396,-0.4058073489266359,-0.33098422635205976,-0.1829126480555587,0.09211322585546829,0.44928256969593966,0.6702523364333756,0.7299977035881864,0.7245127062595553,0.6949446798369298,0.6601735121608151,0.6245463129259049,0.5849991205594132,0.544874865133489,0.5011993244155171,0.45021241514939153,0.3863440690480095,0.32431459573948224,0.27359637936367026,0.23326042711643666,0.18680278624397859,0.12466119434346859,0.0625961255404964,0.02824512545821202,0.030469291782046735,0.058253154399790036,0.0979270041152637,0.1395011658579738,0.16311994177679354,0.15048725326549614,0.09866776852559316,0.01631716908702046,-0.07427014650839918,-0.14868395912175655,-0.18630321437707947,-0.18778589808927226,-0.17783100122036363,-0.18364450618017614,-0.1991159486725012,-0.19304818750385527,-0.1569502316115808,-0.09547327868689297,-0.021364717299084953,0.012525847771787155,-0.017022196853664358,-0.06959184129532374,-0.10273222548710453,-0.10837809977207016,-0.09828413743321811,-0.0845045148028796,-0.08055322248214133,-0.09327760594608031,-0.11089191284137784,-0.10744113050665047,-0.07103829074034908,-0.015274188303252452,0.043406183112572695,0.08726883362288691,0.09924602877443983,0.08597723231982879,0.06847862714630097,0.055649460101483854,0.03686889147454604,0.0063745673320481176,-0.028882181231206516,-0.06292523904601133,-0.08164087163279238,-0.08223016414267414,-0.07013246051982122,-0.049484890975709094,-0.026686716216988322,-0.01179158459432791,-0.013798510155533395,-0.04339368866093967,-0.1038972853269223,-0.17301134052119344,-0.22865648993979085,-0.2649126709978972,-0.2839465889385495,-0.2981449623754283,-0.3372513598401668,-0.4024002888654745,-0.46411408918365793,-0.46840994653642226,-0.3773233039449693,-0.20051051926784857,-0.026250076621217835,0.07567577938335504,0.110761601895006,0.12365085775005956,0.1773254607981663,0.31772627739119874,0.526086285026095,0.7160865534375541,0.8312544259058094,0.873480952568709,0.8651037306004817,0.8285576763499021,0.7782026614490026,0.7171761034591584,0.6371895483039708,0.5266378159492933,0.3885244010917375,0.2503523268227198,0.14538855878562226,0.08594912951345082,0.06838658041652591,0.08005008519005935,0.11527506309225785,0.17976699641489588,0.25280271486397027,0.2504410742455759,0.20694873956059467,0.1758298586448395,0.15934942479945952,0.15179870756855837,0.14185338087985064,0.11129705806588966,0.0379601386510545,-0.0801320099375761,-0.22424390322614635,-0.3295642011345824,-0.348561060709631,-0.3270266977627001,-0.29619091163892297,-0.2501050056889917,-0.16005697589029177,-0.00163296541463935,0.18557050997280855,0.3313150347751557,0.42468679846403906,0.4901135849084448,0.5441809721763097,0.5839628526936442,0.5866302485066068,0.5095401410644429,0.38464793491260774,0.253995951718894,0.1034034644482656,-0.08009847634490933,-0.30100851225366376,-0.5070943220150103,-0.6263108383372163,-0.6723745244979442,-0.6866478396975471,-0.6959093447337324,-0.7029959585448309,-0.7022213517055481,-0.682497664931971,-0.6430233747201947,-0.5855116243392046,-0.505542436410034,-0.39656071596111514,-0.25199044800362924,-0.07144429833328836,0.14653514074649698,0.38029302618820043,0.5888099098016446,0.7320909074533054,0.8018549813497833,0.8124873534420546,0.7712895307980804,0.6730191523070455,0.5396186606340789,0.4389558874548067,0.41663073674184326,0.45191992076609716,0.49563489959190876,0.5177118757416969,0.5107940263799438,0.4537692434707137,0.2865879194164097,-0.03002202033784548,-0.36960623944482635,-0.5575065772797714,-0.6066852376634513,-0.5592357089923383,-0.4544483476136908,-0.3375087841452658,-0.27988025055863774,-0.3119875035812066,-0.4070547087683095,-0.5008936329880196,-0.5687721064355048,-0.6115172508462066,-0.6380670397844768,-0.6595910962839132,-0.6774511988938207,-0.6893009083009093,-0.6885141933239062,-0.6601779937598712,-0.5948026355701267,-0.5072631526484638,-0.40561156831425127,-0.2785313742938265,-0.13168287295211398,-0.0015181753390580107,0.07300485650891256,0.08569596386907843,0.055757745019853894,0.01988638322288576,0.0004239609668910454,0.002308703362618167,0.03211069838525609,0.10469931013351719,0.2510143861974282,0.48364017609104765,0.6960568566118471,0.7918049600292857,0.8114313122317502,0.8035218553328203,0.7981678111389119,0.8093082928525979,0.8308661916273502,0.8490704461802875,0.8562892520991278,0.8489780632664288,0.8163545486665428,0.7533607134763884,0.6704344816400019,0.5844837185319391,0.5011250504140523,0.40378969528618813,0.24997413056347126,0.04017145784325794,-0.1051931920590315,-0.17368491797112293,-0.22151599332212427,-0.2761041338064503,-0.33182265610015493,-0.37857343421319584,-0.4144527923697509,-0.44329368992404405,-0.45604966640152894,-0.4299523262137455,-0.32641724438429653,-0.1309053927480311,0.0963921847746044,0.283539796932343,0.3900865017554786,0.4068311850022366,0.37417937681175284,0.382669886352071,0.4861937081622498,0.652214639790962,0.7923369166472752,0.8581944209298286,0.8743627457189996,0.8602531377930245,0.8214133064466503,0.7637431115976688,0.6956841447599768,0.6482561107952203,0.6465200089038007,0.6688675812233298,0.6757055432104779,0.6565022341128423,0.6284740944882123,0.6090745950282759,0.6056258480979522,0.6109694160468078,0.6251650416109803,0.633637828681248,0.6153393575774079,0.5346996365413671,0.3535507391683678,0.06464220783717145,-0.2260380948749492,-0.3777853135434776,-0.40719978754327485,-0.37818589036993006,-0.3295949531527735,-0.28650826638745847,-0.2618553098661967,-0.2621203883666227,-0.28360116870768354,-0.3237453155652323,-0.3890782564580706,-0.48236443632483583,-0.5854012223099782,-0.6547044564479714,-0.6753786514365114,-0.6578763588098817,-0.6245784420277019,-0.6075100175799018,-0.6499168552573753,-0.756523093827796,-0.8447889008634493,-0.8642435652899875,-0.8639827181902289,-0.8682316718122243,-0.8502801223665315,-0.8114114679258082,-0.775641228623218,-0.7311193122913948,-0.6407199461049636,-0.4853522065578138,-0.3327526752571145,-0.25410501657673307,-0.2532749545455588,-0.31471425786922336,-0.4079636926015696,-0.48454234376045396,-0.520298028518901,-0.5251688156219103,-0.5083149436641686,-0.4641655554680969,-0.37787989123148813,-0.24627151334010675,-0.08186447645194743,0.08756931907880983,0.23536487719593965,0.3512432869267861,0.4423290632058745,0.5226155197996556,0.599601181929902,0.6631495943071478,0.7014989650399259,0.6988835726516418,0.6175941667075932,0.3559732169710935,-0.08121565744443573,-0.3504022722991616,-0.42399265761859994,-0.42401037302829486,-0.4058165514744278,-0.3892852992172015,-0.37504902508753907,-0.3531925385553539,-0.3294949078710657,-0.32446266469738766,-0.3449066194342612,-0.3712939324530296,-0.3769080652967761,-0.3312900393709956,-0.21663055606928003,-0.029998669816836646,0.15796558213296377,0.28322148611256814,0.33706272024005035,0.34632067054096666,0.30582084616884636,0.19030239149061695,0.018994450754490116,-0.09693795791085663,-0.04908103446764327,0.21838076468560735,0.48783838329336965,0.5715885537955593,0.5793915968161373,0.5499393957683243,0.48011526038954105,0.3658784320181141,0.23492965908454871,0.14730591233019596,0.1504009773828084,0.22764087922960735,0.320716229110363,0.39659197370777866,0.4472347349787478,0.4719766272403972,0.46738143248511843,0.4254465766324322,0.3337860618855389,0.18223432904528733,-0.013381224961609105,-0.2240627742181292,-0.41100621331128934,-0.5217585908508893,-0.5639796557047423,-0.5878730253218774,-0.6141793467473113,-0.6396413929791438,-0.6596000297540362,-0.6715636070833663,-0.671592232733041,-0.6472743920194677,-0.5824822142036086,-0.454827716828448,-0.2544396115445816,-0.009682082113534392,0.20326992416478215,0.34865185374135765,0.44142617581325566,0.5123758671768792,0.5741254815647435,0.6052998030151365,0.5549020786378617,0.42688598669198813,0.300592728237012,0.22810256755770605,0.22536151209291813,0.2886989095562543,0.39770617153341986,0.5149246109062371,0.6096851452666346,0.6687363257926056,0.6837788713726844,0.6436081774037806,0.5341724832886674,0.4229804200483416,0.3840844423247014,0.3788329162406182,0.35334520393267393,0.2892341079716648,0.1889943895058677,0.05984661168839813,-0.06264121317886809,-0.15310253637541482,-0.2035965750198832,-0.21780268363170807,-0.19162151269832225,-0.12204825899367523,-0.00435327129574798,0.16973980324541818,0.3608035694941952,0.49373118350579737,0.5750148239219286,0.6377907397374469,0.6908733943437882,0.7198424633269995,0.7282136388349331,0.7316566897057907,0.730738396893061,0.7139329629352811,0.6801935108555927,0.6344529056556998,0.5759670752122676,0.4902726844356474,0.37004028838407893,0.23401995756860136,0.11207316437776031,0.030331540097898423,-0.0008010970383272066,0.008599022118332031,0.026303629382073857,0.019886580949511228,-0.03332564936132246,-0.1559100681104481,-0.36266677035168127,-0.6188335432768163,-0.8138683913461858,-0.8977930931493985,-0.908716761427708,-0.8883495013284463,-0.858825243871271,-0.8318846951522303,-0.8140117273201448,-0.8063968983469685,-0.8059092648895291,-0.813765456466452,-0.8249864020425619,-0.8291576622464587,-0.8156686574748364,-0.7679766396539693,-0.6373543141621902,-0.2715980847609453,0.34231889869594695,0.6773041573480766,0.7700859468787209,0.7786304287838913,0.7624069109056796,0.7442722584463172,0.7316336244110251,0.7206580099975456,0.7113710902811632,0.7036556459154634,0.6981850051073492,0.693380894363334,0.6818434566119028,0.6513193865510536,0.6083500026731259,0.5640964203586362,0.5278986474833307,0.48933404352972976,0.4355353906648776,0.3473211111934544,0.2348219668682767,0.13458349291116625,0.06609543498132796,0.03679886798590733,0.050014601893937104,0.10883644112069472,0.1994436853315655,0.2992263508895627,0.39926284500058146,0.5015737135991941,0.6052460628371219,0.6981285171523692,0.763982962408656,0.7853617613078497,0.7570411954672056,0.6963550878442426,0.6322854947832719,0.579885804206027,0.5343659679637223,0.49403739585969586,0.4549272063346262,0.4030114357995944,0.318255894214631,0.17391585599336254,-0.030163602006167328,-0.17349972155191462,-0.20749504209789782,-0.16449744498081978,-0.04489834281361195,0.16565197294871284,0.39074779534191767,0.48742018122168584,0.48019589719142325,0.4386726839442293,0.3852435282615592,0.3292976663114801,0.26474264073973386,0.18073485836551448,0.06307063741291627,-0.09214925551558362,-0.25225819056341353,-0.3898791771777235,-0.500116505558788,-0.5618641222434426,-0.5521006156664462,-0.4775561170720243,-0.37478494583209115,-0.29502644040231796,-0.2654763106525718,-0.27712375486165314,-0.2941453733775245,-0.2930686724026847,-0.2663494037846146,-0.22894383582421735,-0.19985823521052354,-0.1941518545957124,-0.21326054557215687,-0.23708296818049437,-0.2295942572657337,-0.12661483015146596,0.1036544139413461,0.2949877887947208,0.32123983044899485,0.19746588740376297,-0.027026658466919286,-0.24030171408530268,-0.37012865216194335,-0.43189928551916007,-0.4641441090043832,-0.4866054085795142,-0.5030344215912741,-0.5006586979321717,-0.4543387347163343,-0.3416030860825123,-0.18267988110442282,-0.05024429053824172,0.008333319668755678,0.003981219345087601,-0.028960920761194615,-0.046224385094657275,-0.019380712411086517,0.039146596526634735,0.0850523041103817,0.09173918919176624,0.04912825719236968,-0.030669541344900533,-0.10594843214457368,-0.12378810928055341,-0.05352332356298022,0.08581928862560743,0.21710097553739838,0.2717776194397707,0.23648555994658493,0.12694166435420262,-0.026001687498021245,-0.17669129984820323,-0.28833686754036436,-0.33450922407164113,-0.30914751454678313,-0.248609435868652,-0.19295426094915336,-0.1435164611861455,-0.09638764056307984,-0.04402730059764119,0.012749011531038424,0.07046420131856859,0.12089990797865223,0.1731207306790047,0.22856856133881256,0.2806423633947794,0.3195693021075698,0.3443969948510353,0.3537455175182909,0.34255417277827566,0.3000796919972448,0.21552216773452462,0.09439947698930075,-0.02713416515993335,-0.10794115913960646,-0.1431398509322231,-0.16795280555270958,-0.19638441569460421,-0.2006361309567921,-0.11804970950653301,0.04892523824212012,0.2105603244611237,0.3159871408969854,0.3676811314983451,0.3779173281893603,0.3432047815019495,0.23164674324011414,0.003425424464843918,-0.24741258760455878,-0.36676880257440736,-0.40603028095148097,-0.42309634850616684,-0.4354666845597478,-0.4377387473952156,-0.42223130961264105,-0.3950248496537542,-0.37800634740117717,-0.4017509716715086,-0.4782365204555168,-0.5772512340752767,-0.6492331021514223,-0.6639776838404742,-0.6164203653697002,-0.4999255060144776,-0.3018149770715601,-0.05238546698784221,0.17480608231021708,0.3401235340975124,0.44584838019533246,0.5115320481552146,0.550629209276759,0.5538547845943106,0.4897186462087359,0.32620399920622617,0.13666845533931002,0.01847819270323938,-0.015268187956905276,0.03888954582174293,0.18364172370380258,0.39105587176581613,0.5807216165735662,0.6879855828912326,0.6537673962873322,0.44881958036958663,0.23487259494961873,0.11484435893733505,0.05876708314848458,0.018054715988735034,-0.0374446797150401,-0.10460443218194797,-0.15480768235827244,-0.160060074704517,-0.10081224683143646,0.029232996992528452,0.19274219608613954,0.3385310601767587,0.43288969789671167,0.46959943240756913,0.44575040093209534,0.3488323305937111,0.17120902970003396,-0.0015116307185883422,-0.07555392027184447,-0.07188754341221297,-0.017529296108260872,0.06147273501647044,0.14438984918782638,0.22067054069085598,0.28899012227637827,0.344444601514363,0.3860252202267029,0.4151986451154654,0.43786615900739057,0.4554898276139828,0.46934530970795996,0.47582452014924065,0.4705900161558412,0.44810490352610954,0.39123248441672615,0.2867954630027437,0.12941604611348761,-0.07439448159083083,-0.28635636002452736,-0.4590223524773896,-0.5677176940603961,-0.6087349570357223,-0.6122092209805644,-0.5974442473062218,-0.5833658998633552,-0.5583371484339374,-0.505424953757655,-0.4452164710713338,-0.4005051153178174,-0.36558119293433033,-0.32103587921460613,-0.2748964699424905,-0.24699016589682177,-0.23633872976126244,-0.23117015385717615,-0.20384661755285644,-0.128774288638878,0.002522148483752138,0.17891737600700983,0.3567591835758461,0.4839632718105959,0.5488606978084971,0.5570057589218657,0.5002386191271609,0.3743418728823807,0.21476104121098777,0.06824769268766809,-0.030531779374449928,-0.08370757231066459,-0.11207153926473792,-0.14245396374948313,-0.17654006462932792,-0.19730978207260566,-0.19914832103202382,-0.18500074658498125,-0.1601714244325493,-0.12018501634208464,-0.060945135249494936,0.024720677109863854,0.15621584223133556,0.34182548802336804,0.5297536843651369,0.6238497433950619,0.6028272447684315,0.5109051756876796,0.40747509601601506,0.32462023373828464,0.2556740571941256,0.18369145164471049,0.08906583681783255,-0.055388568742177055,-0.2626332313636063,-0.4536328342703226,-0.5349681703315409,-0.5455489865822937,-0.5331481284549989,-0.4965224503795095,-0.37076994012092984,-0.13931758132674424,0.006271284947216134,0.04473291891923983,0.026185763906170917,-0.016884415971295093,-0.0776438991805047,-0.1753037555745917,-0.3296240152101847,-0.516267795862334,-0.6552258454602726,-0.705360449621476,-0.7058853323651724,-0.6830500885675176,-0.6343619802279719,-0.5388239631435014,-0.3596823015374442,-0.03710509203502474,0.3543582793496877,0.5528305125482084,0.5774715900122677,0.5400462736389116,0.48250578197260696,0.41533016696861835,0.3400597981547372,0.2648330112947851,0.18983880217875007,0.10718345425128688,0.020171427299279624,-0.05949504918169741,-0.12819421849934298,-0.16363508701080676,-0.13790809977907045,-0.044854426493594154,0.08687750094538468,0.2208463549674895,0.3095585171922283,0.3319709351212918,0.2945825284199923,0.2170039489689363,0.13272002103743213,0.06148240308298758,0.015308759707140096,-0.005808833925175039,-0.013173822554733627,-0.011495787218278215,-0.001893639740555977,0.023054536410636452,0.0601067316672305,0.10060035625174879,0.13695660669621199,0.1681734659185726,0.18684594348508016,0.1769946409929075,0.13648443374639044,0.11331441617996897,0.13206336000765156,0.17266671666568037,0.22068342290351084,0.2768677486700707,0.35220372545507983,0.444383188600753,0.529578638417437,0.5874090412084353,0.6240008838729871,0.6567751546722705,0.6844836056571778,0.6736403491822591,0.5683414744967339,0.38322789575495997,0.20034660686942626,0.0354641389792055,-0.12235331615218634,-0.2719849599294083,-0.3930399623157958,-0.46258225429285194,-0.48482375552428586,-0.47219660833015814,-0.42970913534775357,-0.374357133598997,-0.3100950691516495,-0.24814698759894602,-0.19673156532741123,-0.1560566217092132,-0.11532681898566877,-0.06064835132432092,0.023814527902704503,0.1294799784856428,0.23062612079240277,0.30415232661244984,0.336421896378521,0.3167675863235003,0.24174090924670777,0.12933635576999564,0.018151411737429547,-0.05900444762458315,-0.10350720805791933,-0.14016207468831038,-0.230078937394258,-0.3937488025171067,-0.5137691134175483,-0.575466286107932,-0.5870046446587274,-0.5455589965577883,-0.4618535702952628,-0.39433977426558126,-0.3793357438488041,-0.40024231158700013,-0.46170267294499345,-0.57723860277406,-0.6891956215542914,-0.7037240541162033,-0.6898189031901044,-0.6754019850028393,-0.6573901158746801,-0.62897835567739,-0.5824078899474793,-0.5180311294826817,-0.4339824935439586,-0.328183420615486,-0.21520795880891347,-0.10676728583518379,-0.007003672714645143,0.08882592655433251,0.1852520263292991,0.2758630811292743,0.35370858608694516,0.42213827392314673,0.49974173323689686,0.6085167284984285,0.7318042987635456,0.8358655918149203,0.8996036012633419,0.9202922259322397,0.9165171721369488,0.9086434336168625,0.8999366631663896,0.8754213291627578,0.749454839983477,0.45711019077425463,0.21558689961778638,0.10974961762183201,0.10033624546850672,0.15475191249346035,0.21054305295738293,0.22735440384264863,0.223811832305632,0.20634114539464385,0.178462820408014,0.14226128493635512,0.09744598517410304,0.07246608868046686,0.10414457188217784,0.21204086829618926,0.38794768557883336,0.5489631367631727,0.6484323254067349,0.7057309360248188,0.7334323609824288,0.7215605964796546,0.6659836747562928,0.5651780228479544,0.41757087268920945,0.23351876258506685,0.0384864848585067,-0.13582095519339474,-0.26735812180132407,-0.32266026549719223,-0.27080833530442094,-0.1503318099125292,-0.04224651144318213,0.0230377162482156,0.04771934611125785,0.047683566946893255,0.04390255628627507,0.04351917440375113,0.051578341105401354,0.08110740920575611,0.13253804518918275,0.18821322183327613,0.239928911480102,0.2774184465827516,0.2918670541400993,0.2823315152269655,0.2553993547387167,0.22324057963059937,0.20481129791574829,0.19412728019880013,0.16787971815209013,0.10051152788319785,-0.03095879556803018,-0.21981117685513474,-0.39649392170018954,-0.5076923676085437,-0.5596291158726329,-0.5809302112950446,-0.5829611605868626,-0.5549969745773076,-0.4783642144419887,-0.3457235814084766,-0.2007962271260819,-0.09374418647456685,-0.03227967396079033,0.011257517661267015,0.08717654063462622,0.21678712762511415,0.34689806390551586,0.4100551723405508,0.362015037576756,0.1257373119353444,-0.2529488116871112,-0.49332536734887117,-0.5966121858774976,-0.6399578861138383,-0.6496559341367573,-0.6306194355790135,-0.5725638899603261,-0.46959322982735924,-0.33082423045773285,-0.2543801281247388,-0.2649047496668379,-0.30209874107055895,-0.34274163496374754,-0.36825243476932984,-0.3745320024980665,-0.3575653128340165,-0.31127456067089,-0.22627876861210666,-0.09983783999921193,0.04217240825908025,0.15910847919345178,0.23130843252395336,0.25448064152842326,0.23986974544209114,0.20307430753115108,0.15213581599975365,0.08829575230568217,0.01620136316229546,-0.0480627558510156,-0.08534706804712136,-0.10050369613606279,-0.09945143514941177,-0.0963062287563635,-0.10044656662418806,-0.11608071490251295,-0.13616059615709425,-0.15066510902166472,-0.15203179087437113,-0.13861880592860293,-0.09991650539081653,-0.018475685265880278,0.10312398935583125,0.2284670636147283,0.31154445375133,0.32580636178883127,0.2866492851767834,0.21685170766714457,0.1585890982483286,0.16736285400681217,0.3143252764004073,0.546141273152869,0.598738304915319,0.564989121380684,0.5237843177593497,0.47750818429084996,0.408557523895484,0.25543624760692485,-0.09414826960087785,-0.4660681968486661,-0.5643811962092038,-0.5105040779156981,-0.37144990446967047,-0.16892741850139043,0.05323484667310684,0.23402117412984974,0.3466614213197421,0.4029724314381905,0.4222317512958216,0.3804509376707535,0.2380867163445828,-0.015234174581794886,-0.2909256499383095,-0.48879891516500323,-0.6013477048837008,-0.6617920467806804,-0.68969548543789,-0.696166009436189,-0.6829769479656681,-0.6480722585494032,-0.5904523658409018,-0.509293354105978,-0.3988972920437809,-0.24644854491134785,-0.045392455312449446,0.19573511158324164,0.4413451809445695,0.6484721457375641,0.7933545949038816,0.8797535390324176,0.9260845180661046,0.9469777724711782,0.9542154650446178,0.9552539874866066,0.9550879062469908,0.9548180738670423,0.9522182630741325,0.9408426011457354,0.9097795689862355,0.8316970898918562,0.6329087877342323,0.2574853710364472,-0.11136604528484867,-0.33398680797258773,-0.45010906225771924,-0.5079896251699421,-0.5231697718674658,-0.4930810892521865,-0.42900965006949887,-0.35826135273903265,-0.3172156617546317,-0.30921564464235035,-0.32153776309967114,-0.340234881099343,-0.3463206148240419,-0.31372043724554377,-0.22411007575010441,-0.09756231160040663,0.025553785453860597,0.1087647491827668,0.1507600774133998,0.16699167961932826,0.1610676768019326,0.14411859925701728,0.13277329021729745,0.1338263447838984,0.14376543234031092,0.16918150584919395,0.2042645730881119,0.23153299977238045,0.24069902309710187,0.20866537324446538,0.10340299295721339,-0.07125767900358247,-0.2764642501226398,-0.4430041157145784,-0.5128809050566376,-0.5103776895124584,-0.4791885062689577,-0.4372035325668631,-0.3979108418569062,-0.35141426497912337,-0.2930601209368392,-0.2282688809971029,-0.14962492431720087,-0.048260640250983984,0.07556432487370712,0.22177239699037776,0.3763836580905795,0.5256139070220797,0.6635030415090728,0.7554764582035349,0.6423811424970183,0.4104781105502686,0.24236258946903416,0.10340922697514612,-0.07042466100231666,-0.2939672022126315,-0.4784275219464465,-0.5706911326728024,-0.6075888775515402,-0.616490827224369,-0.6053360586768813,-0.5807360753211394,-0.5481403586983856,-0.5136458578861455,-0.4801192295677389,-0.4484258152748166,-0.4226592711547101,-0.4064363345302263,-0.4035085214058523,-0.4084551527981529,-0.41065104000015923,-0.3881908802214087,-0.31795863417785614,-0.17905216979065414,0.05462965490331561,0.31554264178938396,0.4862976651276742,0.5768458888383996,0.6131369216508415,0.6048664137562115,0.5734128574631195,0.5550162188144422,0.5753645564574486,0.6112650455456374,0.5563245877706854,0.43634674630114006,0.36928557339643875,0.37821328211110233,0.4677639106333437,0.6056021855009212,0.6968924437674445,0.7179548763327526,0.700933381671187,0.6620921835587815,0.6068781154717295,0.542062642591829,0.47484674058266546,0.41575890839985735,0.37798413917232593,0.3625797602570248,0.36571556661419885,0.3762316700041337,0.3887581083299574,0.3950739559667554,0.38535059247700154,0.34016495824092424,0.2400236989342529,0.09116069577825027,-0.041782826420648095,-0.10162255083472004,-0.06819250676234381,0.05144749752456976,0.19100800751644348,0.3067776289030001,0.3992138299852521,0.4637719321029719,0.5026754419714928,0.517854940847013,0.5001953658287178,0.4316120704468225,0.30885774760773016,0.15153245302917548,0.03181102732012858,-0.017105874100239164,-0.027009641204906357,-0.02735751687238427,-0.024501808068777914,0.002188536853921843,0.07534405933606089,0.20421929982454295,0.35889183823391674,0.48133601707316953,0.5493422948581236,0.5804668005804295,0.5790485599000927,0.547399859194229,0.48348890594101396,0.3745325418413934,0.2169237942103874,0.033077396473304266,-0.15975899035213934,-0.3696373887672766,-0.5928364308501928,-0.7596884654870985,-0.8401264573546594,-0.868101477981928,-0.8744558233335247,-0.8721509093054064,-0.8649262370414957,-0.8532660551353044,-0.8367405487711109,-0.8147505296461861,-0.7840735452851149,-0.7353978789456859,-0.65176583785306,-0.4984650904586505,-0.21516411507444672,0.22401665260965306,0.6404542119870489,0.8352804206827091,0.881320178669374,0.8769192231065522,0.862417933101098,0.8442389259121797,0.8282094893993023,0.8190621117637625,0.8175926410205736,0.8195055789915382,0.8156081628805936,0.7939009992500501,0.7407509762028368,0.6554102286954163,0.537309226395939,0.358345171250691,0.08838342493311661,-0.17386376817847873,-0.2826447607159489,-0.27441026355113074,-0.2471612808934259,-0.2431195820717533,-0.2660343147719057,-0.2963862440413947,-0.31449066770078227,-0.30550558989993143,-0.2694905741943181,-0.22639223280884507,-0.19688474367977227,-0.19557483088945396,-0.20080279345163723,-0.1784935277100023,-0.12180000903065136,-0.02487451047356041,0.1459159235717309,0.334714226152323,0.45872129207969775,0.52248856301101,0.562205974212198,0.6032650675043487,0.6518180073375195,0.6876210775410438,0.6779659065763268,0.6119258194206386,0.5191968937831866,0.42876811176563145,0.35006290131025725,0.266624803239413,0.16056931387458967,0.031491409889342466,-0.05804516377356755,-0.025499247737542443,0.1620689122795681,0.42978844040163855,0.623811996079799,0.7122799379217537,0.7334899954513407,0.6950011202590853,0.541815804037318,0.2063909475114961,-0.15791234755227831,-0.36133791205819454,-0.42785770907599485,-0.40662393099060135,-0.33028119627603814,-0.22869792752917073,-0.12345578468096632,-0.011478265338337052,0.12287695657555193,0.28816836247490013,0.45032050663403783,0.5060793453161069,0.40685617223799186,0.25282714698760034,0.1187341148222303,-0.015317093383687029,-0.19065388406041242,-0.3853421646564652,-0.5254351623772564,-0.573445102145082,-0.5511756801371489,-0.47927371441873023,-0.37478841096159426,-0.253491172927952,-0.15759979769869117,-0.1265304641264157,-0.14528005450447568,-0.1860490636759069,-0.21570849371178089,-0.2065601232506879,-0.17029531709518558,-0.12108394928714346,-0.06323473441203531,0.010636447695233602,0.09895940841135288,0.19496540792830983,0.27743486889856434,0.335497178531033,0.3643882505818042,0.36793475471584686,0.3594461608640244,0.3607326402773591,0.3825014364595156,0.42084379510658676,0.4720361707975363,0.5240505736929827,0.5603267133940782,0.5796468164713809,0.5833884350156002,0.5633431538707719,0.5060074159169412,0.4016683620677301,0.2743224273642697,0.1536931993183062,0.04956767040900829,-0.03900679303909235,-0.12666931527076444,-0.23544377498488234,-0.36701758043231336,-0.4886676629971155,-0.5851617612776474,-0.6523952329527675,-0.6816614077148928,-0.6553328416438101,-0.54185171528762,-0.33097441406773487,-0.0840793184254534,0.09584525110450844,0.1615704435484108,0.12410791328373097,0.03452793112342877,-0.07315721390406603,-0.17818257636966325,-0.27544353107548003,-0.360591602391676,-0.4327370903443634,-0.47893689374963716,-0.4966983144067252,-0.5005919550655472,-0.5055799394592115,-0.510753846574292,-0.5088996975694875,-0.48959863948272103,-0.4369481792172208,-0.34517595928882155,-0.2226507864953778,-0.06667004442438393,0.10509206198974136,0.22939892866113495,0.2908111054449379,0.3031942567286661,0.2757868929261598,0.2233209904204076,0.1580815259854277,0.0552156682927747,-0.10310373443687362,-0.2819264912094399,-0.42252889906040675
