0.011290059250071689,0.009558500991607655,0.007414669816159105,0.006227316366753466,0.006540646470002438,0.007480633727089423,0.007117831199419368,0.003819629547583648,-0.003205541212241475,-0.013281543361370418,-0.024033683229184945,-0.0331532096873776,-0.03843033273733608,-0.038595247602428426,-0.033483029242029186,-0.023819305097651313,-0.01126964713065568,0.0022200011460868706,0.014489307912638758,0.02377375941145687,0.029083861364220573,0.0302712137960729,0.028490180060527854,0.02547233062668919,0.022388513211706967,0.019453105947114815,0.016039468977481007,0.011916719456569634,0.00762905201790598,0.004380323808044654,0.0027642049375919526,0.002549821718291767,0.00329191622503449,0.0047925987601357915,0.006425209117097728,0.007117831199419368,0.005419256931527115,0.0009501932150396581,-0.005316390432224866,-0.011154205707537727,-0.01430399110366351,-0.013364005881683148,-0.008268281042899766,0.00012564270032539696,0.00988832156381255,0.018908908260929596,0.025538288432299643,0.02923228169014375,0.03038665521919086,0.029347712937728594,0.026973008074023936,0.024334451636811253,0.021679390484896293,0.018480141822329224,0.013994583668427934,0.008420620984176407,0.0027971868930571115,-0.002001697293879911,-0.005992522045590583,-0.008960904142774718,-0.010708954905301295,-0.011632445588112491,-0.012555946446456795,-0.013281543361370418,-0.013083659769005954,-0.011104732265563334,-0.0076746048269736,-0.003865181339097957,-0.0010452185502836911,4.3187679380570164e-05,-0.0008638178969806501,-0.0037992174281676395,-0.008565119659639504,-0.014188549680545556,-0.019218315696165174,-0.022252659669173006,-0.021906345575352253,-0.018558676586862003,-0.013133133210980346,-0.0066686536589562985,-0.0008143447602722502,0.002698240009108325,0.003044551050269145,0.0008677381228660994,-0.002133626133293856,-0.0037992174281676395,-0.0032879966096810266,-0.00015470442990510614,0.004677161407231081,0.00911324408405136,0.011323038152876915,0.010663399043573742,0.007530106151510506,0.002615785629222084,-0.0023644998215499656,-0.005695683428850844,-0.006487252395121271,-0.005316390432224866,-0.0038486908701420327,-0.004376403175137881,-0.008449683324288105,-0.015573795880295458,-0.023802810558482143,-0.03053113761380098,-0.03399425820094229,-0.03468687621305069,-0.03300478936145442,-0.0292283539343638,-0.02390175744243093,-0.017602196825712475,-0.010741933808106523,-0.0037992174281676395,0.002830167830968959,0.009014297200102573,0.014868611084797844,0.020195207576730715,0.024449882884396097,0.027005997152362272,0.02698950261319311,0.02369129689114414,0.018051375383728852,0.012213549932882884,0.008255711206850615,0.006952921422093576,0.008206238782429532,0.01091076625344571,0.013417396903904383,0.01328547111715037,0.009344117772307469,0.0018571986184168156,-0.007014964700117118,-0.014435916890417523,-0.01783306949641527,-0.016447823296665373,-0.01201173858473847,-0.007493204580691883,-0.005151480654899073,-0.005299899963268942,-0.006916018833721643,-0.009076340478126116,-0.011236658052317345,-0.0134299636872936,-0.015441870093541445,-0.01720640928991733,-0.017882542938389666,-0.016728169409342564,-0.013578384013216777,-0.0088949402318444,-0.003964128223046743,0.00024107984971944514,0.003258934269569331,0.005452238886992273,0.007810454299294319,0.010745851388353362,0.013598796132632788,0.015363335329008668,0.01610543695862457,0.015940522093532222,0.015346850965372609,0.014769664200849058,0.014769664200849058,0.015742628325634646,0.017754534731882494,0.020640458378967146,0.02327902499171294,0.024367430539616482,0.022833764013943398,0.018117333189339304,0.011454963939630927,0.005452238886992273,0.0019396540158563673,0.0010161573294806372,0.001329486313420968,0.0019231625293471325,0.00210456379318216,0.001675798372135099,0.0009666842945275683,0.0006203730498560861,0.0007358100974948032,0.0016593068856258642,0.003654718752704545,0.006557136938958362,0.00957499146056358,0.01180127803345168,0.012724778891795985,0.013005125004473176,0.013846163342504752,0.015742628325634646,0.018414173841185665,0.020788878704890323,0.02156395923731145,0.020492038053043966,0.017754534731882494,0.013450375806709608,0.00754659763801974,0.0005214269799499482,-0.006619180216981906,-0.013446458226462765,-0.020026375131391525,-0.026095063077407187,-0.030564126692139315,-0.032609012001192386,-0.03166902677921202,-0.027364867854039136,-0.020686014240694696,-0.013743298878309124,-0.008152844707548366,-0.0040795655759514535,-0.0009132909319337191,0.0012965043579558095,0.0023684204544567396,0.0027642049375919526,0.003324898180499648,0.004380323808044654,0.005551185770941059,0.006194334411288307,0.006111880031402066,0.006144861986867225,0.007035375801979817,0.008717458583362835,0.010119195252068662,0.010383052930896551,0.009228680419402759,0.007414669816159105,0.006573628425467597,0.0076785254598803745,0.010284106046947765,0.012708284352626817,0.012790736697406437,0.01015217720753382,0.005584167726406218,0.00037300787509074153,-0.004310439264207563,-0.007443730121164179,-0.008647574039525744,-0.008317753467320848,-0.007394257696743098,-0.007361275741277939,-0.008878448745335164,-0.01143455182021492,-0.013693825436334732,-0.01460083175550987,-0.013908203567868364,-0.011797360453204838,-0.00897739461173064,-0.006784091011861009,-0.006355323555707326,-0.008433191837778868,-0.01245699956250801,-0.016645717064562943,-0.019597608692791153,-0.020686014240694696,-0.019597608692791153,-0.015969583416090602,-0.009801945533466225,-0.0017378416501586426,0.006738537185240079,0.014588264972120653,0.02111869825954191,0.025587761874274036,0.0272698487258703,0.02535688920357124,0.020442564611069573,0.014324403223079518,0.008667986158941753,0.004413305763509813,0.0015768514881863123,-0.00013821345217252687,-0.0009297819096662984,-0.001754332119114566,-0.002991157992941289,-0.005283408476759707,-0.009224759786495985,-0.014238023122519948,-0.019713039940375997,-0.024957184087529248,-0.029574668028184554,-0.033070757342597984,-0.034851791078143034,-0.03396126912260395,-0.0299209719464722,-0.023423517561856167,-0.015573795880295458,-0.0071139115840659056,0.002269474588061264,0.013087577349252796,0.024548829768344885,0.034525889103738286,0.041270720873759395,0.044371032827910786,0.044272085943961995,0.0416829927731906,0.036884109603806885,0.029759995012692907,0.020475553689407906,0.010119195252068662,-2.2776363831677344e-05,-0.008037407354643655,-0.01245699956250801,-0.013248564458565194,-0.01126964713065568,-0.007724077251394683,-0.004409385130603039,-0.002908703613055048,-0.0032550146542158678,-0.004673240774324307,-0.006586198261516747,-0.008416700351269634,-0.00935668760835662,-0.008763011392430454,-0.006487252395121271,-0.003007649479450524,0.0006368640275886653,0.00378664759211849,0.006012934165006591,0.007381686843140636,0.00873395108742538,0.011207606905292069,0.014967557968746633,0.01965099971501239,0.023889190659041715,0.02674213540332114,0.027401774512624308,0.025752676739366383,0.022091672559860605,0.01704542218060493,0.011372511594851307,0.005452238886992273,-0.0005010156745765885,-0.006140941353960451,-0.010824386152886141,-0.013710309799970791,-0.01430399110366351,-0.012869271461939214,-0.009983345779747943,-0.00640479699768172,-0.002331517866084807,0.001741761265512105,0.005155401287805846,0.007084849243954209,0.006952921422093576,0.004957508537461584,0.0018901805738819738,-0.001671877739228325,-0.005629719517920528,-0.00909283094708204,-0.010098783132652653,-0.0070974190800033605,-0.0007648718270745124,0.005881005325592646,0.008948333289172255,0.006045915102918438,-0.002430463732480283,-0.013611373091555114,-0.022697910471409437,-0.025550865391221967,-0.021230211926879912,-0.012275600333779604,-0.002776774773641103,0.004099976677814151,0.007315723949763631,0.008239219720341381,0.008074309943015587,0.006656082805353838,0.003423845064448435,-0.0013090752115582703,-0.007064438142091512,-0.01372680433913996,-0.022038271362106267,-0.03229567681017686,-0.044466041780546514,-0.05721359351543971,-0.06714117940885872,-0.07038990151340019,-0.0647005065640105,-0.05012245782713096,-0.028766608592958206,-0.004854642038159334,0.016616655742004556,0.03201925845327962,0.040099862981076234,0.042111759211790965,0.040775986454015464,0.03848373393509042,0.036010092362970085,0.03292626477245476,0.02895193557746656,0.024087084426939288,0.019255212179217242,0.015594207999711467,0.014340897762248686,0.015544734557737073,0.01800190194175446,0.02029414428514639,0.021432033450557435,0.02097027793361873,0.01876048793500642,0.014720190758874666,0.009080262128586201,0.0031599884031738553,-0.0014574945199281393,-0.0038981643121164264,-0.0040795655759514535,-0.00284273868457142,-0.0012266198141187186,-0.00031961451249689217,-0.0005504887095296574,-0.0012101293451627947,-0.0011606559031884015,0.0002245887702315348,0.003044551050269145,0.006557136938958362,0.010069722827647579,0.013005125004473176,0.01528088298422905,0.017193842506528112,0.018941887163734825,0.020541511495018358,0.02134957093024471,0.020788878704890323,0.018776972298642478,0.015544734557737073,0.011421985036825701,0.007002393846514658,0.0028961327594525872,-0.00036908754744996105,-0.002479937174454676,-0.0034529063870068193,-0.0035023798289812126,-0.003238523167706634,-0.00356834373991153,-0.0054483182540855,-0.009191777831030826,-0.013809256683919576,-0.017783596054440878,-0.02012532201534031,-0.021081791600956735,-0.020718993143499925,-0.01852568750852367,-0.013957677009842757,-0.006965491258142726,0.002137545748647319,0.012658810910652423,0.02347691875961051,0.033355031211055125,0.0407595020903794,0.043727878082243675,0.04034722001541509,0.030337171601683355,0.015379829868177836,-0.001754332119114566,-0.017437281960620128,-0.028898534379712213,-0.03460442386827107,-0.03518161063279462,-0.03267497998233595,-0.029459226605066603,-0.02703504829938755,-0.025484897410078408,-0.024050177768354112,-0.02243405889790141,-0.02083442439108477,-0.019300768040944796,-0.01771762807329732,-0.015821163090167425,-0.013133133210980346,-0.009224759786495985,-0.004409385130603039,0.00019160681476637623,0.0034898089753787514,0.004693652893740316,0.003638228283748621,0.00014213377981330731,-0.0055142821650158175,-0.01268787223321081,-0.019300768040944796,-0.022928793317645343,-0.021642483826311117,-0.015178008344500313,-0.004953588922108122,0.00612837050035799,0.015264388445059882,0.021926757694768262,0.027170901841921512,0.031953290472136055,0.036191491591698495,0.03935776135146033,0.040940901319107804,0.04064406066726145,0.0389125105492239,0.03564728372998016,0.030930852905376074,0.02451585086553966,0.0160889424194554,0.005699605079310929,-0.0049041154801337285,-0.013809256683919576,-0.020306721244068716,-0.025336477084155224,-0.030250791501123787,-0.03547844110910787,-0.040673111814286726,-0.04529059575494203,-0.04862178037979622,-0.04895159993444781,-0.044960776200290445,-0.03696263419280656,-0.026936101415438764,-0.01723938819272255,-0.0100163277352131,-0.0062728691758210855,-0.005794630312799631,-0.0068170729673261675,-0.0074272396522082566,-0.006157431822916375,-0.0022160805131800966,0.00306104253677838,0.006722046716284154,0.005600658195362142,-0.001177147389697636,-0.011714897932892111,-0.022565984684655423,-0.029145901589584182,-0.028420294499137452,-0.02078496112464348,-0.009653525207543047,0.0014614141352816022,0.010135686738577896,0.01549526111576268,0.017968912863416127,0.019090307489658002,0.019947840366858746,0.020805373244059493,0.02164641158209107,0.0226028913432406,0.02347691875961051,0.023806738314262096,0.022833764013943398,0.020541511495018358,0.018249269151626425,0.01697945419946137,0.017309273754112956,0.018117333189339304,0.018249269151626425,0.017292789390476897,0.015429303310152229,0.012972135926134842,0.010350074028091325,0.007942382121154954,0.0063097717641930175,0.006012934165006591,0.006969411891049499,0.008915351333707097,0.010976724059056161,0.012790736697406437,0.01452229699097709,0.01712787452538455,0.02118466624068547,0.026033022852043574,0.029776479376328966,0.03055155990875009,0.02791300347153741,0.023410950778466947,0.0193211801603608,0.01735874719608735,0.017573135503154088,0.018579088706278012,0.018776972298642478,0.01712787452538455,0.013928615687284372,0.010069722827647579,0.006177843942332384,0.0023024565435264223,-0.0015894223417887733,-0.005184462610364231,-0.00802091586813442,-0.009917381868817625,-0.010642986924157735,-0.010494566598234556,-0.00935668760835662,-0.0073447842547687036,-0.0047227142162987006,-0.002067661204810228,-0.0002371595220786647,0.00020809779249895548,-0.0003361055919848025,-0.00036908754744996105,0.0003565168973581622,0.001329486313420968,0.002582803673756925,0.004050503235839758,0.0051224193323406875,0.005023472448391902,0.003324898180499648,-0.00045154263962351955,-0.00556375560699021,-0.010659481463326903,-0.01498012475213585,-0.018113415609092465,-0.01939971492489358,-0.018195867953872086,-0.014897662231823119,-0.010692460366132129,-0.007295311830347622,-0.005844102737220714,-0.00640479699768172,-0.008185826663013525,-0.01039561971428577,-0.012028233123907639,-0.01260541988843119,-0.01209419092951809,-0.010807901789250082,-0.009389669563821779,-0.00802091586813442,-0.006751108038842539,-0.005151480654899073,-0.003123085814801923,-0.0013915306089978222,-0.000253650499811244,0.0002575708274520244,-0.00010523139495203723,-0.0006494347794357953,-0.0009957459223519467,-0.0007318897698540227,-0.00013821345217252687,4.3187679380570164e-05,-0.0008638178969806501,-0.002760284304685179,-0.004854642038159334,-0.006701635614421457,-0.008416700351269634,-0.009867909444396543,-0.011104732265563334,-0.011879812797984458,-0.011813844816840897,-0.010807901789250082,-0.00877950287893969,-0.005992522045590583,-0.003551852253402295,-0.0022160805131800966,-0.0018532779855100416,-0.0013420571670234287,7.616969589892737e-05,0.0023354384989915807,0.004924526581996425,0.007530106151510506,0.010135686738577896,0.012197065569246825,0.012955651562498782,0.012032150704154478,0.009789375697417075,0.006375735675123334,0.001675798372135099,-0.0038981643121164264,-0.010560534579378115,-0.018063942167118072,-0.02464385907204683,-0.027793634292639507,-0.026259967766966427,-0.02053759391477152,-0.012077706565882031,-0.002545901085384993,0.006326263250702251,0.013598796132632788,0.018925392624565655,0.0223720186725378,0.024186031310888076,0.024350936000447312,0.023443929681272176,0.02202570457871705,0.020393091169095177,0.01806785974736491,0.015066494677162309,0.011487953017969262,0.007200286596858919,0.0020221094132959194,-0.0036837800752629293,-0.00909283094708204,-0.01379277232028352,-0.017090967866799374,-0.018311309376990038,-0.016431328757496203,-0.010610008021352509,-0.0016388957837631668,0.00762905201790598,0.014423350107028306,0.017622608945128484,0.017523662061179696,0.015148957197475037,0.011916719456569634,0.009129734553007283,0.007035375801979817,0.004908036113040502,0.0020880733242262363,-0.00153994889981438,-0.005794630312799631,-0.01039561971428577,-0.015507838074685006,-0.02119723302407469,-0.026474356074033166,-0.030217812598318555,-0.031586564258899295,-0.030003434466784926,-0.02546840287090924,-0.018690602373616017,-0.011088247901927275,-0.004623768349903226,-0.0009462729891542088,-0.0007153987921214434,-0.0030901038593367644,-0.006569707792560823,-0.009834927488931385,-0.012044717487543696,-0.012621904252067247,-0.011665424490917717,-0.009208268299986751,-0.005019551815485127,0.0008017742119357824,0.007464143258133499,0.013730721919386799,0.01843066838035483,0.02068993182094154,0.02059098493699275,0.018776972298642478,0.017276294851307727,0.01777102927105166,0.020211691940366774,0.022916216358723016,0.02377375941145687,0.022734817129994613,0.021234139682659865,0.020492038053043966,0.02037660680545912,0.01966749425418156,0.017012433102266595,0.012147592127272433,0.005963460723032197,-0.0001217224744399476,-0.004887623993624493,-0.008037407354643655,-0.009768963578001067,-0.010032819221722335,-0.00866406552603498,-0.005794630312799631,-0.001985206824923987,0.0015768514881863123,0.00413295863327931,0.005534694284431825,0.0062438078532627,0.006540646470002438,0.006606610380932755,0.006870467042207334,0.007447651771624264,0.007793962812785085,0.0076785254598803745,0.007513615682554582,0.008074309943015587,0.010185159162998978,0.01386265788167392,0.01823277461245726,0.02222359834661462,0.023971643003821333,0.022141146001835,0.016600161202835393,0.008404130515220484,-0.0004020696046704507,-0.00782302413534347,-0.012555946446456795,-0.014419422351248355,-0.014040139530155484,-0.01230857923658483,-0.010428608792624104,-0.008795994365448924,-0.007773550693369076,-0.007971443443713339,-0.009785455064510302,-0.012588925349262023,-0.015375912287930994,-0.01695904208004536,-0.01657974908341938,-0.014287496564494344,-0.010593513482183342,-0.0062728691758210855,-0.0023809913080592004,0.00038949895457865186,0.0015768514881863123,0.0010821211386556233,-0.0005834707667501471,-0.0024634456879454414,-0.003584834208867454,-0.002760284304685179,-0.00018768648712559578,0.002830167830968959,0.005320311065131639,0.007530106151510506,0.00965744685800313,0.01061392560159935,0.009080262128586201,0.00424839598618402,-0.003238523167706634,-0.011451046359384086,-0.017816574957246107,-0.02060355172038197,-0.02000988059222236,-0.017156935847942936,-0.012935239443082775,-0.007262329874882463,-7.224938860921315e-05,0.008536058337081117,0.01806785974736491,0.027781067509250287,0.03625744939730894,0.04169948731235977,0.04356297339268443,0.04197983342503696,0.037444801829161274,0.030815411482258116,0.022701838227189384,0.013961604765622707,0.006227316366753466,0.0017912347074864985,0.0014119417108605196,0.0044297962324657365,0.009278153861377151,0.013681248477412405,0.015363335329008668,0.012576358565872803,0.004957508537461584,-0.005893576179195106,-0.017684649170492093,-0.028321347615188668,-0.03686368730885777,-0.04311378465913494,-0.04698916697017435,-0.04847336005387304,-0.04745091231157995,-0.0436414979816841,-0.03686368730885777,-0.02754627725830065,-0.016777642851316957,-0.006701635614421457,0.0008842292023540098,0.005039963934901135,0.005633640150827301,0.0035887548417742276,0.0006533550053212445,-0.0016553862527190907,-0.00226555395515449,-0.0011441654342324776,0.0010821211386556233,0.003374371622474041,0.00482558071560095,0.004809089229091715,0.003258934269569331,0.0006533550053212445,-0.0025788830408501515,-0.0055142821650158175,-0.00713040205302183,-0.007080928611047436,-0.00567919295989492,-0.0031560687878203924,0.0004224809100438104,0.005039963934901135,0.010218138065804204,0.014885095448433902,0.01808435428653408,0.01859557306991407,0.015693154883660253,0.009640955371493896,0.001609833443651471,-0.006899527347212408,-0.01506257709691547,-0.02274738391338383,-0.029129407050415015,-0.0336644386462907,-0.0362040481995546,-0.03618755366038543,-0.0331532096873776,-0.027876086637419122,-0.021741430710259906,-0.0155573115166594,-0.009884399913352467,-0.004260965822233171,0.0025333302317825323,0.011454963939630927,0.02177833736884508,0.03178838578257682,0.03973705434808631,0.0447338312853676,0.04648188611810742,0.04514611336033191,0.041386162296877346,0.03572973607475979,0.028852988693517774,0.021794831908014248,0.01570964942282942,0.011817772572620847,0.011075670943004948,0.01386265788167392,0.01927170671838641,0.025505309529494414,0.030963841983714404,0.03391573361194262,0.03310766400118316,0.028259307389825055,0.020261165382341167,0.011224091268928128,0.0032094618451482485,-0.0028922121265458132,-0.007724077251394683,-0.011467540898553253,-0.014435916890417523,-0.016513781102275825,-0.017668154631322923,-0.017750606976102545,-0.01638185531552181,-0.013396984784488373,-0.009867909444396543,-0.0073447842547687036,-0.006784091011861009,-0.007245838388373229,-0.007509695049647808,-0.006800581480816933,-0.005283408476759707,-0.003205541212241475,-0.0004185606841583611,0.0035722643728183035,0.008997806731146649,0.015594207999711467,0.022437986653681363,0.02835825427377384,0.03223364676034635,0.032794338985700736,0.0281933495842146,0.017226821409333334,-0.00020417746485817509,-0.021741430710259906,-0.04301483777518616,-0.058780238943918026,-0.0659538269770064,-0.0645191073352821,-0.05694973176639858,-0.046477948186794356,-0.03539598876432825,-0.024940689548360085,-0.015392396651567053,-0.006652162172447063,0.0013954502243512848,0.007958872590110877,0.012493896045560077,0.01445632900983353,0.013895636784479148,0.01127356471090252,0.007332214418719554,0.0032094618451482485,0.00014213377981330731,-0.00048452469684400927,0.0019396540158563673,0.006639592336397914,0.011339532692046081,0.013664764113776347,0.012741263255432043,0.009096752597542123,0.004050503235839758,-0.0006164527222153055,-0.003469397873516054,-0.00391465478107235,-0.0019027514274844353,0.0024343843653870565,0.008585531779055511,0.015891048651557826,0.022932710897892183,0.02816036050587627,0.03088137946340168,0.03126067246002766,0.02952912234199011,0.025868107986951227,0.020821857607695553,0.014984042332382689,0.009212189950446835,0.004396814277000578,0.0009501932150396581,-0.0011606559031884015,-0.002413973263524359,-0.0034364159180508952,-0.0038816728256071916,-0.0034034339625857372,-0.002051170735854304,0.0002245887702315348,0.0033413896670088828,0.00754659763801974,0.012873199217719162,0.018529615264303616,0.02327902499171294,0.025175489974842834,0.022470965556486585,0.015396314231813896,0.006590118894423521,-0.0007153987921214434,-0.004706222729789466,-0.004772187658273094,-0.0013090752115582703,0.003951557369444282,0.008404130515220484,0.009723410768933448,0.006837485086742175,0.0011151030941207818,-0.005134989168389838,-0.00981843701997546,-0.01192928623995885,-0.011912791700789684,-0.011747887011230446,-0.014040139530155484,-0.019993386053053192,-0.02911291251124585,-0.03943628594046,-0.04845686551470387,-0.054030829216508716,-0.05498730897765824,-0.05145823058490648,-0.04492779729748522,-0.037045096713119285,-0.029195375031558578,-0.022417564358732246,-0.016711674870173394,-0.011813844816840897,-0.00836722792684855,-0.007773550693369076,-0.010593513482183342,-0.016035551397234164,-0.02220318622719861,-0.027068037377725885,-0.02937677426028698,-0.028667651533476307,-0.02510560441345243,-0.0192512945989704,-0.012259105794610436,-0.005019551815485127,0.0018407081494608917,0.008123783384989982,0.013582311768996729,0.01777102927105166,0.020426080247433514,0.02110221389590585,0.019782925501766403,0.017193842506528112,0.01452229699097709,0.012774252333770377,0.013137050791227189,0.01579210176760904,0.019898366924884354,0.024350936000447312,0.02820983394785066,0.030502086466775703,0.031128746673273644,0.030469107563970477,0.02926526059294898,0.027896508932368242,0.026775124481659474,0.025620750952612372,0.024186031310888076,0.022949205437061353,0.022388513211706967,0.021926757694768262,0.02032713336348473,0.01763909330876454,0.014769664200849058,0.012131097588103266,0.008898859847197862,0.004165939571191157,-0.0017708236056238008,-0.0072788203438383875,-0.010824386152886141,-0.011615961224476433,-0.010214220485557363,-0.007872496559764552,-0.006058485956520899,-0.0052669180078037834,-0.004392894661647115,-0.002034679249345069,0.0024343843653870565,0.007695016946389609,0.011751804591477287,0.01298863046530401,0.011224091268928128,0.00884938742277678,0.008453602939641567,0.011471458478800095,0.017292789390476897,0.023658317988338916,0.029017893383077014,0.03287679133048036,0.034872203197559036,0.03472379304716897,0.03228312020232075,0.027896508932368242,0.02158045377648062,0.01379668990053036,0.005815041414662329,-0.0005669796872622367,-0.004244475353277246,-0.005019551815485127,-0.00391465478107235,-0.0019522248694588283,-0.00048452469684400927,-0.0006329438017032159,-0.002430463732480283,-0.005398845829664417,-0.008647574039525744,-0.011104732265563334,-0.012077706565882031,-0.011385078378240526,-0.00912581392010051,-0.005481300209550659,-0.0010946919922580844,0.002516839762826608,0.0038361200165395715,0.0027147314956175598,0.00010915172259281768,-0.002644846951780469,-0.005167971123854996,-0.00840020988231371,-0.012902250364744442,-0.018426740624574885,-0.02385228400045654,-0.027414341296013528,-0.02812345384729109,-0.02593014821231484,-0.02213721824605505,-0.018822528160370028,-0.017156935847942936,-0.017503249941763686,-0.01928427350177563,-0.021691957268285513,-0.023225623793958594,-0.022401079995096187,-0.0194821672696732,-0.015276955228449098,-0.010577018943014174,-0.006058485956520899,-0.0023150263795755723,0.0005214269799499482,0.002615785629222084,0.004627688982809999,0.006903447980119182,0.009096752597542123,0.010712872485548136,0.011685836610333726,0.01194969835937486,0.01143847957599487,0.010267611507778598,0.008090801429524822,0.004182431057700392,-0.0014410030334189045,-0.00790547953278302,-0.01356189964958072,-0.017090967866799374,-0.018179373414702917,-0.01718991475074816,-0.01476573644506911,-0.011846833895179232,-0.009422652536840246,-0.008466173793244026,-0.009142304389056433,-0.011137721343901667,-0.013990666088181091,-0.01704149442482498,-0.020306721244068716,-0.02302773002606102,-0.024198598094277293,-0.023159665988348142,-0.01979549228515562,-0.014336970006468736,-0.007361275741277939,-0.0002371595220786647,0.005320311065131639,0.008602022248011435,0.009261662374867917,0.007464143258133499,0.004050503235839758,0.0004389718877763897,-0.0024469552189895173,-0.004392894661647115,-0.005349372387690024,-0.005200953079320155,-0.004376403175137881,-0.0032879966096810266,-0.0023150263795755723,-0.001688368208184249,-0.001061710036792926,0.0004719539449968793,0.0031929703586390137,0.006408717630588493,0.009261662374867917,0.011240585808097295,0.012658810910652423,0.013829668803335587,0.015115968119136701,0.016781560431563796,0.018776972298642478,0.020821857607695553,0.022421492114512193,0.023147099204958926,0.022701838227189384,0.021283613124634258,0.019387148141504364,0.017259800312138564,0.01541280877098306,0.014192477436325507,0.013499849248684,0.012741263255432043,0.01127356471090252,0.009261662374867917,0.006952921422093576,0.0051224193323406875,0.004446287718974972,0.005419256931527115,0.008074309943015587,0.011702331149502893,0.015148957197475037,0.017705061289908102,0.019123286392463232,0.019469600486283982,0.018612067609083238,0.01674858152875857,0.014654222777731105,0.01252688512389841,0.010366558391727383,0.008041326969997119,0.006111880031402066,0.005551185770941059,0.006425209117097728,0.00762905201790598,0.007975364076620112,0.007233268552324078,0.005534694284431825,0.0028466593174781936,-0.00046803361735609894,-0.0031890507432855513,-0.004046582602932984,-0.0026778289072456273,0.0005379180594378586,0.004611197496300764,0.008981315244637413,0.01328547111715037,0.016633150281173726,0.018117333189339304,0.017589619866790147,0.0156271970780498,0.013219503136006809,0.011323038152876915,0.010449010736507003,0.01003673985462911,0.00916271650847244,0.007216777065814844,0.003918575413979124,-0.0008308358397601605,-0.0066686536589562985,-0.012506473004482403,-0.017305356173866113,-0.021807398691403468,-0.02729891004842868,-0.03463740277107629,-0.043443604213786534,-0.05231576346210722,-0.059951096836601186,-0.06516226208094922,-0.06628364653165798,-0.06197949778201821,-0.052843476784656375,-0.04176151736219027,-0.032081298678643226,-0.025864190406704388,-0.023044224565230188,-0.02220318622719861,-0.020751972046305148,-0.01646430766030143,-0.009274233228470378,-0.0009132909319337191,0.007018885333023892,0.013351439098293928,0.017738040192713328,0.020805373244059493,0.02355937110439013,0.026527757271787505,0.029644553589574955,0.03307468509837793,0.0363728908204269,0.038285840167192844,0.037411822926356045,0.03310766400118316,0.02568670875822282,0.01676507606792774,0.008255711206850615,0.0014779056217908368,-0.003271505123171792,-0.005811120781755555,-0.0059430486036161885,-0.0037497450037465574,0.0003565168973581622,0.005353293020596798,0.010449010736507003,0.015363335329008668,0.01993134582768958,0.023394456239297784,0.024829175881022077,0.02400463208215967,0.020772394341254264,0.015066494677162309,0.007381686843140636,9.266071433363907e-05,-0.005167971123854996,-0.007146893539531064,-0.005712174915360079,-0.001556440386323615,0.0034898089753787514,0.007612561548950058,0.009492537080677337,0.009245171905911995,0.007744490388364002,0.00528732910966648,0.00210456379318216,-0.0013915306089978222,-0.004458857555024121,-0.0066686536589562985,-0.0077900421798783115,-0.007987933912669262,-0.007740568737903917,-0.007476713094182649,-0.007410748165699021,-0.007394257696743098,-0.007954951957204104,-0.009538088872191647,-0.011813844816840897,-0.013974171549011925,-0.015458364632710614,-0.01636537095188575,-0.017602196825712475,-0.02015830091814554,-0.02459438563007244,-0.030762020460036885,-0.03803455537707404,-0.04491130275831605,-0.04980913281164855,-0.05134279933732164,-0.048869147589668184,-0.04240467210785738,-0.03277391669075162,-0.022038271362106267,-0.012061212026712865,-0.00391465478107235,0.0020550913687610774,0.005501712328966667,0.006738537185240079,0.007299232463254395,0.008997806731146649,0.012774252333770377,0.018529615264303616,0.02563723531624843,0.03292626477245476,0.03871461678132633,0.04160054042841098,0.04151808808363136,0.03889601601005474,0.03439396331698428,0.029083861364220573,0.024647776652293674,0.022058683481522273,0.02158045377648062,0.022470965556486585,0.023196572646933318,0.022784290571969006,0.020623974015331087,0.016913496393850917,0.012625832007847199,0.008915351333707097,0.007101340730463444,0.007315723949763631,0.008766933042890538,0.010580946698794124,0.011982677262180086,0.012345485895170006,0.011553910823579714,0.010119195252068662,0.00861851373452067,0.00705186728848905,0.005485220842457432,0.003671210239213779,0.00152737906376523,-0.0012431113006279534,-0.005036043301994362,-0.009834927488931385,-0.014518369235197143,-0.017800080418076937,-0.01928427350177563,-0.019069895370241997,-0.017453776499789294,-0.014369948909273962,-0.0100163277352131,-0.004689732260833542,0.0007852831324478721,0.005320311065131639,0.008552549823590353,0.010366558391727383,0.010778840466691697,0.010350074028091325,0.00965744685800313,0.009030788686611807,0.008684477645450987,0.00861851373452067,0.00873395108742538,0.008948333289172255,0.009805866166373,0.011471458478800095,0.013763710997725135,0.016550687760860997,0.019733452059792007,0.023295519530882103,0.026940029171218714,0.029743500473523744,0.031046294328494026,0.031128746673273644,0.030683485695504106,0.029891920799446924,0.029083861364220573,0.02822632848701983,0.02728633308950636,0.025587761874274036,0.021745358466039855,0.014324403223079518,0.0033578811535181175,-0.009571070827656805,-0.0220712604404446,-0.03204830960030489,-0.03819946006663328,-0.04044223914358393,-0.0398980312818656,-0.0378201670700073,-0.03493424342292265,-0.03142165956934005,-0.027348373314869966,-0.023423517561856167,-0.020751972046305148,-0.020026375131391525,-0.02142810569477749,-0.024528417648928876,-0.028370821057163056,-0.03194937289188922,-0.034126183987696304,-0.03430758321642471,-0.032839884671895185,-0.03110832437832453,-0.029855014140861745,-0.02879958749576343,-0.026969090493777097,-0.024050177768354112,-0.02045513139445879,-0.017156935847942936,-0.014584337216340703,-0.011797360453204838,-0.007806532648834234,-0.0028922121265458132,0.0010656306696996995,0.00210456379318216,-0.0006164527222153055,-0.0062728691758210855,-0.013116638671811181,-0.01926778913813957,-0.022335112013952624,-0.02053759391477152,-0.014056623893791543,-0.005497791696059893,0.0015768514881863123,0.005369784507106032,0.005501712328966667,0.002599294142712849,-0.0023480083350407312,-0.0077900421798783115,-0.01224261125544127,-0.014353464545637903,-0.013182596477421633,-0.008697047481500138,-0.0019027514274844353,0.00578205945919717,0.012889683581355222,0.018414173841185665,0.02134957093024471,0.021135192798711077,0.018513120725134453,0.015000536871551857,0.012312496816831671,0.011405490497656533,0.011916719456569634,0.013598796132632788,0.016138415861429792,0.018727498856668082,0.020623974015331087,0.02133308656660865,0.020426080247433514,0.017952428499780067,0.015033515774357084,0.012493896045560077,0.010300600586116931,0.008882369378241939,0.008635004203476595,0.00957499146056358,0.01127356471090252,0.013054598446447569,0.01460474933575671,0.016270341648183806,0.018315226957236877,0.019799420040935566,0.019436621583478756,0.01636928853213259,0.011075670943004948,0.004990490492926743,0.0003565168973581622,-0.0007153987921214434,0.0024343843653870565,0.008569040292546277,0.015594207999711467,0.02067344745730548,0.022273071788589012,0.019881872385715187,0.014918084526772237,0.009344117772307469,0.005336801534087563,0.0038691019720047304,0.004809089229091715,0.00670555522977492,0.008354657073246091,0.009063770642076967,0.008717458583362835,0.00777747234382916,0.006919939466628417,0.006590118894423521,0.0060624065894276736,0.004116467146770075,0.0006038820721235068,-0.004260965822233171,-0.009290723697426303,-0.012193137813466877,-0.011533498704163704,-0.0077900421798783115,-0.003040631434915682,0.0001586247575458866,-0.0001217224744399476,-0.0037662354727024815,-0.008927922187309558,-0.013166112113785574,-0.014897662231823119,-0.013611373091555114,-0.009389669563821779,-0.0029416855685202065,0.00436383232153542,0.010927250617081769,0.015693154883660253,0.018034880844559686,0.017606114405959314,0.014307908683910351,0.008651495689985828,0.0011645765360951753,-0.007493204580691883,-0.015870636532141817,-0.022417564358732246,-0.025649802099637648,-0.025138583316257655,-0.0218403877697418,-0.018311309376990038,-0.016282908431573023,-0.015375912287930994,-0.01392469810703753,-0.010379125175116601,-0.004475349041533356,0.002912623228408511,0.010514978717650563,0.016814549509902132,0.020228186479535937,0.019964334906027916,0.0160889424194554,0.009673937326959054,0.002599294142712849,-0.0037992174281676395,-0.007921970001738944,-0.007921970001738944,-0.0030241399484064475,0.006111880031402066,0.017589619866790147,0.02890246213549217,0.037213929158458475,0.040924406779938645,0.03907741523878314,0.031194714654417206,0.017836987076662113,0.0017747442385305746,-0.013281543361370418,-0.024544902012564936,-0.03100937749437574,-0.033631449567952366,-0.0345879293291019,-0.035494935648277035,-0.037094559979560564,-0.03884261481230039,-0.039584706266383184,-0.03841383819816691,-0.03552791455108226,-0.03133919704902732,-0.026342430287279152,-0.020636540798720304,-0.014732757542263882,-0.008713537950456061,-0.0023480083350407312,0.004066994722348992,0.00969042881346829,0.01445632900983353,0.019024339508514444,0.023955158640185274,0.0291168402670258,0.033734324207681105,0.035894650939852134,0.03381677655246072,0.02759966828052188,0.018579088706278012,0.0091956984639376,0.001692288841091023,-0.0022490624686452554,-0.002413973263524359,0.0003565168973581622,0.0047925987601357915,0.008915351333707097,0.011191112366122902,0.010778840466691697,0.007909400165689796,0.002962096670382904,-0.0026943203937548617,-0.007773550693369076,-0.012440505023338842,-0.017503249941763686,-0.023440012101025334,-0.029558173489015387,-0.034670391849414624,-0.03729245374745814,-0.037424389709745265,-0.03650088885140096,-0.03627001618069816,-0.03676474042490899,-0.03655036229337535,-0.03377986989387555,-0.027892581176588296,-0.019597608692791153,-0.009983345779747943,0.00024107984971944514,0.01015217720753382,0.018941887163734825,0.025752676739366383,0.03028770833524207,0.03155751311187402,0.028523169138866187,0.021448517814193494,0.011537426459943654,0.0005379180594378586,-0.008730029436965296,-0.013660846533529508,-0.014122591874935104,-0.011780865914035672,-0.0088949402318444,-0.00698198172709865,-0.006223395733846692,-0.005646211004429762,-0.0031890507432855513,0.0023354384989915807,0.011009713137394496,0.020788878704890323,0.029083861364220573,0.03414660628264542,0.03539992669564131,0.033585903881757924,0.030238234893267674,0.02718739638109068,0.025884602526120397,0.02684108228726993,0.02969402703154935,0.03325608432710633,0.03581219859507251,0.03650481660718091,0.03546588450125176,0.033552924978952695,0.031062788867663196,0.028028434719122253,0.024763218075411625,0.021316592027439484,0.016732086989589404,0.010580946698794124,0.003275425756078566,-0.003601325695376689,-0.008218808618478683,-0.00993387335532686,-0.009538088872191647,-0.008037407354643655,-0.006371815042216561,-0.004739205702807936,-0.003320978565146185,-0.0019192429139936696,0.00024107984971944514,0.003671210239213779,0.008255711206850615,0.013137050791227189,0.01740822063806174,0.020277659921510333,0.021794831908014248,0.022404997575343026,0.0226028913432406,0.022553417901266207,0.02156395923731145,0.018645046511888464,0.012724778891795985,0.004198922544209627,-0.005382355360708494,-0.014732757542263882,-0.02311019254637375,-0.030580611055775375,-0.037424389709745265,-0.04349307765576092,-0.049231946047125,-0.05455854253905786,-0.05929145772729801,-0.06376052134203014,-0.06793274430491592,-0.07106603516187253,-0.07192356803907327,-0.06915308581510658,-0.06258966344934698,-0.05360206277790834,-0.04390534955519213,-0.03440653010037349,-0.024957184087529248,-0.015013103654941073,-0.004640258818859149,0.005551185770941059,0.015033515774357084,0.023015163242671804,0.029298239495754205,0.03419607972461981,0.037824094825787254,0.039308287909485935,0.03810444093846444,0.03436098441417905,0.028242823026188996,0.020426080247433514,0.012592842929508862,0.006425209117097728,0.002665258053643166,0.0010821211386556233,0.001181067005051099,0.002549821718291767,0.0047266348492054746,0.007167304641393762,0.009228680419402759,0.010267611507778598,0.010498484178481397,0.010531473256819732,0.01099321859822533,0.012147592127272433,0.013598796132632788,0.01483562200645951,0.015676660344491087,0.016055963516650174,0.015825090845947375,0.014967557968746633,0.013829668803335587,0.012972135926134842,0.012576358565872803,0.012065139782492814,0.010185159162998978,0.006573628425467597,0.002549821718291767,-0.00045154263962351955,-0.001061710036792926,0.0009501932150396581,0.004495760143396054,0.008338165586736857,0.01135601705568214,0.012642316371483255,0.011850751475426073,0.00904727915556773,0.005155401287805846,0.000834756167400941,-0.002430463732480283,-0.0036837800752629293,-0.002974667523985365,-0.0015729308552795388,-0.0008803088747132294,-0.0016553862527190907,-0.004046582602932984,-0.007526186536157042,-0.011187194785876061,-0.014353464545637903,-0.016546770180614158,-0.017437281960620128,-0.01742078742145096,-0.017503249941763686,-0.0178660483992205,-0.017585702286543308,-0.015458364632710614,-0.010989301017978488,-0.00487113352466857,0.0011645765360951753,0.0057985499281530935,0.007958872590110877,0.007760980857319927,0.005864514856636722,0.003390863108983276,0.0012140489605162576,-7.224938860921315e-05,-0.0002701414775438232,0.000504936002217369,0.0017087793100469468,0.003308407711543724,0.0050894373768755295,0.006985903377558734,0.008602022248011435,0.009558500991607655,0.009476046611721415,0.008371147542202015,0.006870467042207334,0.005815041414662329,0.0057985499281530935,0.006771520158258548,0.007843436254759478,0.008305183631271697,0.007711507415345533,0.006045915102918438,0.0035227909308439102,0.0002245887702315348,-0.0034364159180508952,-0.00652023435058643,-0.007921970001738944,-0.0072788203438383875,-0.005184462610364231,-0.0028922121265458132,-0.001408021077953746,-0.000748380849341933,-0.0011111834787673192,-0.0022325719996893314,-0.0032220326987507097,-0.0036672896063070053,-0.0038157089146768743,-0.0037827269592117154,-0.0032550146542158678,-0.0018697694720192766,0.0005873909926355965,0.003918575413979124,0.007365196374184713,0.010251127144142539,0.012263023374857277,0.013038103907278404,0.012592842929508862,0.011191112366122902,0.009261662374867917,0.007365196374184713,0.005996442678497356,0.004743125318161398,0.00306104253677838,0.0007358100974948032,-0.002067661204810228,-0.004475349041533356,-0.0054153373161736525,-0.00403009213397706,-0.0006164527222153055,0.0033413896670088828,0.006985903377558734,0.009838848121838158,0.0116528577075285,0.01209811868529804,0.01114163892414851,0.008882369378241939,0.005617148664318066,0.0023849109234126632,-5.575838035003454e-05,-0.00119363785865356,-0.001408021077953746,-0.002430463732480283,-0.005200953079320155,-0.009109323451144586,-0.013298037900539586,-0.017222903829086495,-0.020916886911397495,-0.024264555899887744,-0.02710101628053111,-0.02932730081831259,-0.03026728604029295,-0.02860169372786586,-0.023225623793958594,-0.014205044219714724,-0.003931146267581585,0.004743125318161398,0.009558500991607655,0.009377099727772627,0.004644179451765922,-0.002413973263524359,-0.00958756231416604,-0.01460083175550987,-0.015771689648193032,-0.013133133210980346,-0.007806532648834234,-0.0015234584308584562,0.004149449102235234,0.008272201675806539,0.010432526372870945,0.01099321859822533,0.011026197501030555,0.012708284352626817,0.01772155582907727,0.02567022439458676,0.03413011174347625,0.03897846835483435,0.03724691823679681,0.028869473057153833,0.015759122864803816,0.0004224809100438104,-0.01476573644506911,-0.02813994838646026,-0.038644721044402815,-0.045109196526213625,-0.0464119802056508,-0.04263554477856018,-0.0350496848460406,-0.026474356074033166,-0.018575160950498062,-0.011599466685307265,-0.005481300209550659,-0.0007153987921214434,0.002252983101552029,0.003374371622474041,0.003044551050269145,0.002005617926786684,0.0009831752722601478,-0.00022066844259075434,-0.0017213501636494078,-0.00356834373991153,-0.005398845829664417,-0.006586198261516747,-0.007146893539531064,-0.007262329874882463,-0.007311802299303546,-0.007031456186626353,-0.0052339360523386246,-0.0016388957837631668,0.0023354384989915807,0.005237855667692087,0.006903447980119182,0.008272201675806539,0.010251127144142539,0.01290617812052439,0.015462282212957456,0.016995948738630536,0.017226821409333334,0.016336309629327365,0.014885095448433902,0.013318450019955594,0.011636363168359332,0.009756393741951919,0.007315723949763631,0.004165939571191157,0.0006203730498560861,-0.001968715338414752,-0.0028097567291062615,-0.002644846951780469,-0.00226555395515449,-0.001754332119114566,0.00024107984971944514,0.005452238886992273,0.01443984464619747,0.026131969735992362,0.03838479722667475,0.04926886288124328,0.05782770728961466,0.06411077336716396,0.06795318695093125,0.06834897448672639,0.06391288977479949,0.05439757578081169,0.04082545989598986,0.024268483655667694,0.006276789808727859,-0.010593513482183342,-0.02324211833312776,-0.02998693992761576,-0.030778504823672944,-0.02731539441206474,-0.021312674447192644,-0.014930651310161455,-0.010577018943014174,-0.009323705652891461,-0.010560534579378115,-0.013001197248693227,-0.014996609115771907,-0.01570572166704947,-0.01580466855099826,-0.016513781102275825,-0.01880603362120086,-0.021955819017326645,-0.023258612872296927,-0.02020777436011993,-0.012902250364744442,-0.003832199383632798,0.0038031380610744135,0.007826944768250244,0.007744490388364002,0.004264886455139944,-0.0013090752115582703,-0.0073777662102338624,-0.012193137813466877,-0.014650305197484262,-0.014353464545637903,-0.01097280647880932,-0.005695683428850844,-0.0003361055919848025,0.0035722643728183035,0.0049410180685056605,0.00413295863327931,0.0027147314956175598,0.0019066720603912086,0.0012800138889998856,0.0003565168973581622,-0.0011276739477232428,-0.003106595345845999,-0.004524822483507749,-0.004293947777698329,-0.0023150263795755723,0.0004554629672643,0.0023024565435264223,0.0023354384989915807,0.0015768514881863123,0.0017087793100469468,0.0034898089753787514,0.00682099258267963,0.010795324830327756,0.013153545330396357,0.012164076490908492,0.007332214418719554,-0.0004350515601356092,-0.009373179094865854,-0.017734122612466485,-0.023951230884405327,-0.026655755302761572,-0.025369455986960457,-0.020718993143499925,-0.014271012200858284,-0.00713040205302183,-0.0003031235347643129,0.005815041414662329,0.010729367024717305,0.014093530552376719,0.015379829868177836,0.014175982897156339,0.011009713137394496,0.007002393846514658,0.0027312219645734834,-0.0011276739477232428,-0.004392894661647115,-0.006371815042216561,-0.005712174915360079,-0.0019522248694588283,0.004083485191304917,0.010630420140768516,0.016055963516650174,0.01918925437360679,0.019683978617817614,0.018133827728508474,0.014885095448433902,0.01015217720753382,0.004347340835026185,-0.002034679249345069,-0.0077900421798783115,-0.01105525882358894,-0.010593513482183342,-0.007328293785812781,-0.0034858883424719778,-0.0011441654342324776,-0.001754332119114566,-0.005728666401869313,-0.011632445588112491,-0.01755272338373808,-0.02160950492350589,-0.022664931568604208,-0.020850918930253936,-0.017025010061188922,-0.012275600333779604,-0.007773550693369076,-0.004129038000372536,-0.0019192429139936696,-0.0012266198141187186,-0.002133626133293856,-0.004310439264207563,-0.006784091011861009,-0.008350736440339316,-0.008235299087434606,-0.006487252395121271,-0.003716762030728088,-0.0002371595220786647,0.003423845064448435,0.006540646470002438,0.00873395108742538,0.010663399043573742,0.012559864026703638,0.01460474933575671,0.016880507315512584,0.019255212179217242,0.020854846686033886,0.0207558998020851,0.01800190194175446,0.012708284352626817,0.005765567972687935,-0.0013420571670234287,-0.007047946655582277,-0.01039561971428577,-0.011005785381614546,-0.008944412656265482,-0.005118498699433914,-0.0007153987921214434,0.0034403355334043585,0.006392226144079258,0.008140274871499216,0.008206238782429532,0.006375735675123334,0.0035722643728183035,0.0013459777999302025,0.0004389718877763897,0.0005379180594378586,0.00152737906376523,0.0029950786258480626,0.004413305763509813,0.004891544626531267,0.004215414030718861,0.0025663121872476907,0.0005873909926355965,-0.0009132909319337191,-0.0010287280813277672,7.616969589892737e-05,0.0018571986184168156,0.003968047838400207,0.006425209117097728,0.00884938742277678,0.01054795762045579,0.011108660021343282,0.010844798272302149,0.010514978717650563,0.010580946698794124,0.010894271714276543,0.010927250617081769,0.009871830077303316,0.007183795110349685,0.0031929703586390137,-0.001061710036792926,-0.003997109160958591,-0.004953588922108122,-0.003601325695376689,2.6696671121391567e-05,0.005221365198736163,0.01099321859822533,0.01646823541608138,0.020788878704890323,0.022718332766358554,0.021432033450557435,0.017226821409333334,0.011306543613707747,0.005039963934901135,-0.000533997630041747,-0.005118498699433914,-0.008697047481500138,-0.01230857923658483,-0.016761148312147787,-0.021642483826311117,-0.025352961447791283,-0.026622776399956343,-0.024924205184724026,-0.02015830091814554,-0.013298037900539586,-0.0059430486036161885,0.0004719539449968793,0.005023472448391902,0.007596070062440822,0.008964824775681491,0.010119195252068662,0.01143847957599487,0.012642316371483255,0.01312055625205802,0.012510390584729246,0.010580946698794124,0.007381686843140636,0.00329191622503449,-0.0007153987921214434,-0.0037332535172373226,-0.0054483182540855,-0.006091467911986058,-0.006091467911986058,-0.005629719517920528,-0.004310439264207563,-0.0019522248694588283,0.001247031933534727,0.004512251629905289,0.006919939466628417,0.007711507415345533,0.006969411891049499,0.005369784507106032,0.00329191622503449,0.0010821211386556233,-0.001061710036792926,-0.0032879966096810266,-0.006157431822916375,-0.010642986924157735,-0.016134488105649842,-0.02146108459758271,-0.0257652435227556,-0.028420294499137452,-0.02863467263067108,-0.02614453651938158,-0.021642483826311117,-0.01646430766030143,-0.01222612689180521,-0.009604052783121963,-0.00874651990592122,-0.009274233228470378,-0.010807901789250082,-0.012489978465313235,-0.012852787098303155,-0.010494566598234556,-0.004772187658273094,0.003308407711543724,0.011685836610333726,0.018414173841185665,0.021926757694768262,0.021497991256167887,0.017474188619205303,0.010894271714276543,0.0032259533316574833,-0.004227983866768012,-0.010642986924157735,-0.01570572166704947,-0.019317262580113962,-0.02116425412126946,-0.02053759391477152,-0.017008515522019752,-0.010956311939640154,-0.0034034339625857372,0.004561725071879682,0.01180127803345168,0.017688566750738936,0.02200921003954788,0.024911628225801695,0.025967054870900015,0.025142511072037604,0.023410950778466947,0.021827810810819474,0.02072292089927987,0.019815914580104736,0.01838119493838044,0.015561229096906241,0.011685836610333726,0.007464143258133499,0.0034568270199135933,-3.9267372090855945e-05,-0.0034858883424719778,-0.007196365963952146,-0.011154205707537727,-0.014848198965381835,-0.016909568638070967,-0.016431328757496203,-0.013331016803344812,-0.008334244953830084,-0.0027932662601503374,0.0022200011460868706,0.006441700603606963,0.009937793988233634,0.012444432779118794,0.014110025091545887,0.015561229096906241,0.017540146424815755,0.02007976615361276,0.022042199117886213,0.021497991256167887,0.01721032687016417,0.00957499146056358,0.0002905528846725141,-0.008317753467320848,-0.014732757542263882,-0.018558676586862003,-0.019663566498401605,-0.018426740624574885,-0.016150982644819012,-0.014023644990986319,-0.011995254221102413,-0.009604052783121963,-0.00652023435058643,-0.0031560687878203924,-5.575838035003454e-05,0.002170527704112477,0.0034568270199135933,0.004165939571191157,0.0045782155408356055,0.005204873712226929,0.006507664514537279,0.009129734553007283,0.01246091714275485,0.01475316966167989,0.015066494677162309,0.013994583668427934,0.012708284352626817,0.011784783494282513,0.011553910823579714,0.010960239695420102,0.008321675117780931,0.0034733174888695174,-0.0028592301710806548,-0.009439143005796171,-0.014996609115771907,-0.01822884685667731,-0.01865761329527768,-0.01656326471978332,-0.013116638671811181,-0.010544040040208948,-0.010642986924157735,-0.013001197248693227,-0.015375912287930994,-0.015491343535515838,-0.012407526120533616,-0.006998473213607884,-0.0010946919922580844,0.004545233585370447,0.009838848121838158,0.01490158998760307,0.020211691940366774,0.02555478297146881,0.030122793470149723,0.03251399287302355,0.03175540687977159,0.028028434719122253,0.02252043899846098,0.017078401083410157,0.013631785210971123,0.012328991356000837,0.01254336948753447,0.013433891443073548,0.013813184439699528,0.01292266248416045,0.010663399043573742,0.008041326969997119,0.00635924520616741,0.005732586017222776,0.005765567972687935,0.005765567972687935,0.005452238886992273,0.0047925987601357915,0.004149449102235234,0.003654718752704545,0.00306104253677838,0.0019396540158563673,0.00024107984971944514,-0.0018532779855100416,-0.004442367086068198,-0.007080928611047436,-0.009208268299986751,-0.010708954905301295,-0.012044717487543696,-0.013232080094929134,-0.013875224665063137,-0.013710309799970791,-0.01239103158136445,-0.009422652536840246,-0.004805169613738253,0.0007523011769827135,0.006969411891049499,0.013186524233201581,0.017985407402585293,0.020211691940366774,0.019139780931632395,0.014340897762248686,0.006078897058383597,-0.0049041154801337285,-0.017453776499789294,-0.029937466485641363,-0.03981557893708598,-0.04547199498367044,-0.04672531539666632,-0.044845334777172494,-0.04143169780753868,-0.037919113953956085,-0.03448898244515312,-0.03005289773322621,-0.023588432426948514,-0.015112050538889862,-0.006586198261516747,0.0002905528846725141,0.004611197496300764,0.006095388544892832,0.00540276646257119,0.003671210239213779,0.0019396540158563673,0.000504936002217369,-0.0008308358397601605,-0.0027273023492200205,-0.0054483182540855,-0.008878448745335164,-0.012984712885057169,-0.01697553661921453,-0.019960407150247966,-0.021510558039557107,-0.0213291588108287,-0.01963058759559638,-0.016183961547624238,-0.010857365055691367,-0.0042114923802587766,0.0029950786258480626,0.009492537080677337,0.013978089129258764,0.01572614396199859,0.015429303310152229,0.01483562200645951,0.01572614396199859,0.018776972298642478,0.023229551549738544,0.027451247954598704,0.02938070201606693,0.02687406119007515,0.019881872385715187,0.010960239695420102,0.003654718752704545,0.0005709000149030171,0.0019561444848122914,0.006293280277683783,0.011240585808097295,0.014044057110402327,0.013235997675175974,0.009080262128586201,0.002962096670382904,-0.0033044870786369503,-0.008548628173130268,-0.012061212026712865,-0.013594878552385945,-0.013462952765631933,-0.011896307337153625,-0.009686508180561515,-0.0074272396522082566,-0.005283408476759707,-0.0028592301710806548,0.00014213377981330731,0.004099976677814151,0.008865877891732703,0.013895636784479148,0.0186780355902268,0.022784290571969006,0.025538288432299643,0.02670915650051591,0.02667616742217758,0.026164948638797588,0.02525794231962245,0.023625328910000583,0.021316592027439484,0.018496626185965283,0.015429303310152229,0.012708284352626817,0.010877777175107376,0.009805866166373,0.009063770642076967,0.00861851373452067,0.008222729251385457,0.00705186728848905,0.004660670938275158,0.001181067005051099,-0.0029251940820109717,-0.0077075867824387585,-0.013199091016590801,-0.01897094848629321,-0.023918251981600098,-0.02658978732161801,-0.02614453651938158,-0.023060719104399358,-0.018624634392472455,-0.013990666088181091,-0.009768963578001067,-0.00617392330942561,-0.0027108108627107858,0.0013789597553953612,0.006689064760818995,0.012592842929508862,0.017869976155000446,0.021959746773106595,0.024994090746114427,0.02774808860644506,0.030617527889893654,0.033058190559208764,0.033734324207681105,0.030980326347350463,0.02453234540470883,0.01557772363607541,0.006755029689302624,0.0007193191197622238,-0.001408021077953746,-0.000253650499811244,0.002549821718291767,0.005056455421410371,0.006095388544892832,0.005336801534087563,0.003143497934217931,0.0003565168973581622,-0.002413973263524359,-0.005283408476759707,-0.008218808618478683,-0.010791407250080915,-0.013001197248693227,-0.014666789561120322,-0.015392396651567053,-0.015309944306787433,-0.014798725523407443,-0.01422153875888389,-0.014353464545637903,-0.015441870093541445,-0.01704149442482498,-0.018327793740626094,-0.018113415609092465,-0.015458364632710614,-0.010544040040208948,-0.004640258818859149,0.0006368640275886653,0.004759616804670633,0.007167304641393762,0.007826944768250244,0.007249760038833313,0.006078897058383597,0.0053038205961757155,0.005551185770941059,0.006639592336397914,0.007695016946389609,0.00800834501453196,0.007365196374184713,0.005501712328966667,0.002137545748647319,-0.0027932662601503374,-0.008763011392430454,-0.014584337216340703,-0.019300768040944796,-0.022417564358732246,-0.02376983165567692,-0.023538958984974122,-0.022285638571978232,-0.020471625933627956,-0.018162889051066857,-0.015112050538889862,-0.011912791700789684,-0.009158795875565668,-0.007493204580691883,-0.007460222625226726,-0.00924125127300522,-0.011962265142764076,-0.013941192646206699,-0.013248564458565194,-0.009109323451144586,-0.0022160805131800966,0.005996442678497356,0.01348336488504794,0.0186780355902268,0.02072292089927987,0.020046787250807534,0.017375241735256515,0.013598796132632788,0.009822357652882233,0.006111880031402066,0.0022200011460868706,-0.0026943203937548617,-0.008960904142774718,-0.015524322438321065,-0.02045513139445879,-0.022236165130003836,-0.02015830091814554,-0.015013103654941073,-0.008763011392430454,-0.0029251940820109717,0.001692288841091023,0.00517189175676177,0.007793962812785085,0.009492537080677337,0.010465505275676171,0.010828313908666091,0.01031708494975299,0.009261662374867917,0.008090801429524822,0.006952921422093576,0.005501712328966667,0.0034073535779392,0.0011975584915603337,-0.00018768648712559578,-0.0003031235347643129,0.0007028281420296446,0.0020880733242262363,0.0029456051838736693,0.0030115701123572974,0.0019561444848122914,-5.575838035003454e-05,-0.0019192429139936696,-0.0030736133903808407,-0.003057121903871606,-0.001688368208184249,0.0005709000149030171,0.0025663121872476907,0.004083485191304917,0.005600658195362142,0.00693642993558434,0.007826944768250244,0.008635004203476595,0.01054795762045579,0.014291424320274294,0.020046787250807534,0.027220375283895905,0.034080638301501855,0.03850022847425959,0.03850022847425959,0.03310766400118316,0.02245447101731742,0.007909400165689796,-0.008119862752083208,-0.02296177222045057,-0.03471986529138902,-0.041860464246139054,-0.04360850890334576,-0.04092047902415869,-0.03585773410573385,-0.03051465325016492,-0.025732254444417266,-0.02142810569477749,-0.017734122612466485,-0.015359417748761829,-0.015178008344500313,-0.017354829615840506,-0.021312674447192644,-0.02642488263205877,-0.0313062181462221,-0.03391179568062956,-0.03277391669075162,-0.028024506963342303,-0.020554078278407575,-0.012143664371492483,-0.0036837800752629293,0.005023472448391902,0.014175982897156339,0.022718332766358554,0.029215787150974584,0.03254697177582877,0.0328603069668443,0.031013305250155693,0.028572642580840583,0.02759966828052188,0.028803515251543378,0.03135961934397644,0.033998185956722236,0.03553185248239532,0.03454238364290745,0.03038665521919086,0.02327902499171294,0.014472823549002698,0.006557136938958362,0.002269474588061264,0.002830167830968959,0.006639592336397914,0.010828313908666091,0.013054598446447569,0.013021609368109234,0.011702331149502893,0.009855339608347393,0.007843436254759478,0.0057985499281530935,0.004017521280374599,0.00329191622503449,0.003902083927469889,0.005452238886992273,0.007117831199419368,0.007843436254759478,0.007315723949763631,0.005881005325592646,0.004462778187930895,0.004050503235839758,0.00447926967444013,0.0051224193323406875,0.005930478767567038,0.007249760038833313,0.009360609258816705,0.012180571030077659,0.015017021235187916,0.016732086989589404,0.017012433102266595,0.016286836187352972,0.01579210176760904,0.01570964942282942,0.01528088298422905,0.01348336488504794,0.010086213296603504,0.005534694284431825,0.0007523011769827135,-0.0029251940820109717,-0.004491840528042591,-0.0031890507432855513,0.0012140489605162576,0.008305183631271697,0.016699108086784178,0.024334451636811253,0.029512627802820948,0.031211199018053266,0.02850667459969702,0.021662906121260234,0.012147592127272433,0.0023684204544567396,-0.005596737562455369,-0.010708954905301295,-0.012588925349262023,-0.011071753362758108,-0.006685144127912222,-0.0012760932560931118,0.0024178928788778217,0.0017747442385305746,-0.003964128223046743,-0.013232080094929134,-0.023077203468035417,-0.03053113761380098,-0.03331812455246995,-0.03071254701806249,-0.023868778539625705,-0.015178008344500313,-0.006586198261516747,0.0004884449227294586,0.005435748418036349,0.007942382121154954,0.008338165586736857,0.007332214418719554,0.005056455421410371,0.0018407081494608917,-0.001836787516554118,-0.005464809740594735,-0.008713537950456061,-0.011286131494291739,-0.013017691787862395,-0.014238023122519948,-0.015821163090167425,-0.01875656017922647,-0.02372035821370253,-0.029657120372964172,-0.034670391849414624,-0.037424389709745265,-0.03691316075083216,-0.03277391669075162,-0.026095063077407187,-0.01837726718260049,-0.011484025262189312,-0.006652162172447063,-0.004162019955837694,-0.003980618692002667,-0.0059430486036161885,-0.009670016694052281,-0.014419422351248355,-0.0192512945989704,-0.023357549580712608,-0.026062073999068854,-0.026787681089515583,-0.02566629663880681,-0.02324211833312776,-0.019828481363493952,-0.015821163090167425,-0.011830339356010064,-0.008697047481500138,-0.006437778953146878,-0.004508330996998515,-0.002908703613055048,-0.001754332119114566,-0.0010122370018398569,1.0205662862212966e-05,0.0017087793100469468,0.003423845064448435,0.004165939571191157,0.0038031380610744135,0.0032424438006134074,0.0031929703586390137,0.0034898089753787514,0.004231904499674785,0.0050894373768755295,0.006144861986867225,0.007447651771624264,0.008981315244637413,0.010531473256819732,0.01209811868529804,0.013813184439699528,0.015693154883660253,0.017226821409333334,0.017836987076662113,0.017589619866790147,0.016666129183978952,0.015429303310152229,0.014357382125884745,0.013384418001099156,0.012427938239949626,0.012032150704154478,0.012411443700780457,0.013615290671801955,0.015148957197475037,0.016451740876912212,0.017177347967358942,0.01714436906455372,0.016435256513276153,0.015693154883660253,0.016022974438311837,0.018562594167108846,0.023839717217067322,0.030650506792698883,0.03726340260043287,0.04189738108025734,0.043579467931853605,0.04221070609573976,0.03787356826776164,0.03007332002817533,0.019024339508514444,0.00528732910966648,-0.01023071502472653,-0.02723294206728512,-0.04507620744787529,-0.06196300324284904,-0.07464458699659868,-0.0801360881780908,-0.07721718562820092,-0.06704223252490994,-0.05249716269083563,-0.035742302858149,-0.017437281960620128,0.0018736901049260504,0.020244681018705107,0.03544938996208259,0.044898746150459946,0.04646539157893825,0.03980302232922987,0.026164948638797588,0.008865877891732703,-0.007509695049647808,-0.01939971492489358,-0.024561396551734106,-0.023192644891153368,-0.017816574957246107,-0.011203679149512119,-0.004129038000372536,0.003094024492243538,0.00969042881346829,0.01394511022645354,0.014505802451807923,0.011240585808097295,0.004924526581996425,-0.0022490624686452554,-0.007888988046273786,-0.010296672830336983,-0.008845466789870008,-0.004244475353277246,0.0015438695327211539,0.006227316366753466,0.008453602939641567,0.00789290867918056,0.0050894373768755295,0.0011480850495859405,-0.002875721657589889,-0.006157431822916375,-0.00813635322103913,-0.008647574039525744,-0.0077075867824387585,-0.0052339360523386246,-0.001688368208184249,0.0019066720603912086,0.00517189175676177,0.008354657073246091,0.01157040536274888,0.014786148564485117,0.017193842506528112,0.018892413721760433,0.019964334906027916,0.020096260692781927,0.019024339508514444,0.017111379986215383,0.01460474933575671,0.012328991356000837,0.011290059250071689,0.012032150704154478,0.013829668803335587,0.01572614396199859,0.017078401083410157,0.01734226283245129,0.016072447880286233,0.013417396903904383,0.009772885228461151,0.005963460723032197,0.0036052463282834624,0.00378664759211849,0.006689064760818995,0.010828313908666091,0.014027562571233158,0.014736675122510725,0.012658810910652423,0.008470094426150801,0.003638228283748621,-0.0003361055919848025,-0.0025953735098060756,-0.003057121903871606,-0.0026283564828245448,-0.0023480083350407312,-0.0031560687878203924,-0.005200953079320155,-0.007806532648834234,-0.009768963578001067,-0.010263693927531755,-0.00950510691672649,-0.00816933517650429,-0.006586198261516747,-0.004442367086068198,-0.0016388957837631668,0.0008512472468888513,0.0020715818377170015,0.0015768514881863123,-0.0002866325570317336,-0.002875721657589889,-0.005398845829664417,-0.007014964700117118,-0.007839514604299394,-0.008927922187309558,-0.010741933808106523,-0.01305067069066762,-0.015095555999720693,-0.0157881841873622,-0.01468328410028949,-0.012044717487543696,-0.008614592084060586,-0.00487113352466857,-0.0008638178969806501,0.0032424438006134074,0.007447651771624264,0.011125144384979342,0.013433891443073548,0.013747216458555967,0.011636363168359332,0.007695016946389609,0.0029291147149177453,-0.0013750391224885874,-0.00460727686339399,-0.006751108038842539,-0.007987933912669262,-0.00825179057394384,-0.0077900421798783115,-0.006949000789186802,-0.00640479699768172,-0.006899527347212408,-0.008927922187309558,-0.011467540898553253,-0.013199091016590801,-0.012935239443082775,-0.010263693927531755,-0.006190413778381533,-0.0019027514274844353,0.0020550913687610774,0.005270838640710557,0.007134322685928603,0.007167304641393762,0.005501712328966667,0.0030775340232876147,0.001098612625164858,0.00012564270032539696,0.00012564270032539696,0.0007358100974948032,0.0014614141352816022,0.0015768514881863123,0.0011315945806300166,0.0002245887702315348,-0.0008143447602722502,-0.0016388957837631668,-0.002034679249345069,-0.002199590044224173,-0.002545901085384993,-0.003057121903871606,-0.003238523167706634,-0.0032550146542158678,-0.003205541212241475,-0.002413973263524359,-0.0005010156745765885,0.002038599882251843,0.004644179451765922,0.006788010627214472,0.008123783384989982,0.00838763902871125,0.008024836501041195,0.007447651771624264,0.006886957511163258,0.006656082805353838,0.007447651771624264,0.009476046611721415,0.012230044472052051,0.014786148564485117,0.016022974438311837,0.014274929781105125,0.008750441556381305,0.0005214269799499482
