0.02679057146768371,0.06085940025355407,0.11979775312187775,0.19380649421182886,0.250380993000301,0.2524889715052301,0.17569530977763645,0.03838980495791817,-0.09391325954124927,-0.17313131574760104,-0.2042849631397801,-0.23915263039897988,-0.3364432140218479,-0.5032413598736539,-0.6578997742003788,-0.7390933058286131,-0.7640269403402513,-0.7571744336044088,-0.7228868351971354,-0.66104222635758,-0.5890662535169465,-0.5237567814299595,-0.4594189943289876,-0.37221457495601024,-0.23429375124588667,-0.017788926076370472,0.2520042605945714,0.4814085112834102,0.6347674298625159,0.7243049723597262,0.7596881353091043,0.7337449849617191,0.6157677361242416,0.38112669340626737,0.062461179864448026,-0.28728282424733653,-0.5893130043877177,-0.7598415675738113,-0.8253192483257523,-0.8330046069135634,-0.8029954239925898,-0.7386101237991508,-0.6419001777491133,-0.5220372019169534,-0.38792852481165474,-0.23481051727975566,-0.07976482096893092,0.03892153244731087,0.09620340961076582,0.08358616888464249,0.02763332135106353,-0.03725031053018197,-0.08703891835027205,-0.11036711523575214,-0.09090565658007412,0.0062672740818932,0.23171881101799482,0.5348138010407951,0.7494787760883354,0.8469737174562797,0.8831980196783367,0.8905606087835729,0.8881709739196979,0.8842727384624063,0.8804065971395432,0.8743620884383873,0.8663495864001843,0.8633159663408907,0.8665578414292533,0.8691747520230846,0.8588190443529244,0.8328598841483352,0.7980175721902683,0.7600413980562472,0.709417127546241,0.6364860369817955,0.5361232644163807,0.43150495370089015,0.3582450863928766,0.32850377121474805,0.33829855707188944,0.3661278665270111,0.38184459113733143,0.3796103214021193,0.35847000634764437,0.3187830438332362,0.2528638583729364,0.1478908730299956,-0.0060740532796862215,-0.18419071072277865,-0.3360049355972678,-0.4308595449840304,-0.46891824099259716,-0.45626813691042145,-0.40877633575505085,-0.345716380335868,-0.284483565191128,-0.2263654857063637,-0.16121152403694103,-0.0833889696422855,-0.0013828428098330635,0.0762914439578913,0.13548973868845993,0.17228295705153296,0.17684543366699865,0.13607516285998922,0.04703891745821237,-0.06118248924757601,-0.13910502511579792,-0.175913498683394,-0.1755868457519886,-0.1453407390472847,-0.10371558948930985,-0.0732524202335606,-0.06792864548837124,-0.06734389974630094,-0.04970224429072829,-0.012096003808410496,0.027669701064874073,0.03419357480091326,0.0017009236718219815,-0.05857832334932263,-0.11825567515981697,-0.15144234988220348,-0.15342831421071174,-0.1269023253433801,-0.09413707570337561,-0.08063824136886462,-0.09021661418378955,-0.11172392549823094,-0.1340546352329469,-0.14582943804258927,-0.12143904086096448,-0.04494811251647628,0.09131977440911791,0.26819192523844687,0.43341829482829314,0.539659823477537,0.5481760621205928,0.3966471967005741,0.01594036686242742,-0.38756428767248546,-0.5965215586313979,-0.6735242014487394,-0.6827871876148758,-0.6418708733138779,-0.533267237980182,-0.3232716670011358,-0.023339389408204375,0.23351254906665378,0.346436886897493,0.35721984036813953,0.33063817239497256,0.3015341168432912,0.28838721402200945,0.2941949032423066,0.3266333715581123,0.386261223270361,0.4561487332102713,0.5163869847361653,0.534925767105871,0.4990587184864529,0.4148684210865599,0.28948368620529047,0.135876479628908,-0.0020319203859654592,-0.09065330457470136,-0.1249217417170857,-0.12370744388943392,-0.10839758662700667,-0.08994646407003394,-0.07094707375972252,-0.04600827139542248,-0.015766939738279237,0.006622559233733777,0.010349694258310456,-0.010276032279800531,-0.06158316007560661,-0.15698667674390857,-0.30151721658215763,-0.48230348728239814,-0.6420366586456022,-0.7174193227042257,-0.6794735989136285,-0.4537962898254978,0.047030504838396124,0.4740045355881029,0.642552964655072,0.6781320123730198,0.6400679729154022,0.5471331684845385,0.42110915454628656,0.276190646777707,0.11391294756099567,-0.04727604585882977,-0.15859318861939942,-0.19819981914565463,-0.17189059924659592,-0.08855133110801115,0.039454769436864746,0.20160620440665372,0.37051771785017856,0.5118988316636376,0.6053873184171755,0.6427730345852646,0.5886344378744418,0.40131290725329555,0.14652306133435036,-0.04662021485375844,-0.14046393708994231,-0.16403636468457208,-0.15009113904271865,-0.1357328243278191,-0.16972665957428423,-0.2652874069042569,-0.37250722362977134,-0.43518636363265645,-0.43558301323494447,-0.3642415837453427,-0.19668446103260326,0.0669334159807864,0.31005889651268254,0.4303578803964819,0.461182514694092,0.4573251168583718,0.45234536071979187,0.46652280594399936,0.49628026915865636,0.5374925386850932,0.607382375117977,0.7056387834086257,0.7950117099438894,0.8211725000415583,0.7507965841896321,0.6037156016675379,0.47980773728949283,0.4773086340970979,0.5415188048297572,0.5501267071471099,0.5209317518357239,0.48407341095694706,0.45315412505165814,0.445948693289783,0.4714594470663501,0.5163341010290635,0.5597368023063033,0.5684402543494986,0.5008279132136504,0.32138198732790124,0.0033124490059505567,-0.37605408750234626,-0.6462370578175237,-0.7724751416676875,-0.8117734104343521,-0.8050335651056761,-0.7713099584985593,-0.7281740697877218,-0.7007585941045347,-0.7085550074453915,-0.7429135904990107,-0.7712550076384543,-0.7656436849028008,-0.7115435372448934,-0.606951587229918,-0.4612783248185633,-0.2873974723913117,-0.1012430886325287,0.07352333921089257,0.21734494824278008,0.32145275607549223,0.39532763158938106,0.4514411805378206,0.47927311142681633,0.4780681510926934,0.4572355552550752,0.4383401330805331,0.42711481396100276,0.416909446392399,0.3981548932715659,0.3759130524665165,0.3635851069216647,0.36152862516222356,0.3576747220912374,0.35242298484191387,0.3437575758584902,0.3272242352930955,0.30291716372506317,0.26299434439940217,0.21964698882304168,0.18907168812254574,0.17679977816687742,0.16158930709370686,0.12376842504212272,0.05577615449206197,-0.028577734376674224,-0.11719251352846329,-0.19627607541111713,-0.26970143000698876,-0.34673817220544323,-0.4178816383546641,-0.46395854201529124,-0.470877690597721,-0.43329019890716447,-0.34856200689600225,-0.2290000966873766,-0.09139557840501555,0.042413380581186065,0.1600371207030599,0.2565582222607316,0.3398937360932772,0.40027412932173984,0.42178749931406945,0.4260432965399905,0.4476211779094914,0.5015132161609723,0.5666936681618591,0.6025251277206809,0.5861595153179502,0.4941443048995212,0.2695417587824165,-0.10346041726593347,-0.4241758074984429,-0.5765426389348218,-0.6246896043871617,-0.5863310411523579,-0.47451358275914635,-0.33740406380514404,-0.199423795011635,-0.06571469347791842,0.06665505721187001,0.1960967093814982,0.3035556931415633,0.3858977520826641,0.44983201042379545,0.49024849184335784,0.4829664814706539,0.42935258645117186,0.36317469851994705,0.3058273516160746,0.2573398808877876,0.22880808111172063,0.23740727014328647,0.28334514678060096,0.3404676555657941,0.38593427469605235,0.4069421991116756,0.40448541133942173,0.375013365306774,0.31947515219755623,0.2542732271899316,0.20361507637623658,0.16894423485379445,0.11794214812049336,-0.018171912473437236,-0.3298533221152921,-0.6841258137705614,-0.8514986332172297,-0.9004746541619878,-0.8927146501866408,-0.8082402201474603,-0.4511530909216942,0.32527719664677196,0.7346323148184056,0.8560914965463,0.8732645269328473,0.820661700588063,0.7360231142431827,0.6717547899844007,0.639220606439584,0.6094862062448791,0.5571270463368744,0.46844619215428956,0.3266464837606633,0.11465300944724005,-0.11840046015161376,-0.2874394799426953,-0.36808452809557457,-0.38045310817830125,-0.346574563810464,-0.2742826020148919,-0.17622314751470516,-0.09572727284946587,-0.09762214174435861,-0.21582757283061502,-0.4058033151100503,-0.5678356214799921,-0.6645997695537796,-0.7118151862441594,-0.7220256667127121,-0.7002393809043954,-0.6535389833895582,-0.5899029559888356,-0.5188598161843266,-0.45077910281679845,-0.39810032564647435,-0.36694260224832537,-0.35985960091022473,-0.38614599116244763,-0.44754297314342695,-0.5201928807617505,-0.5763940149056582,-0.6045015261609924,-0.6043320728349465,-0.5671521432176723,-0.4546746879985943,-0.17772518116500918,0.23540711653217433,0.5138174944285432,0.6303177247682553,0.6697088157871729,0.6650468260317604,0.6275656719177057,0.5710027180994819,0.516773085837929,0.48217284367539015,0.4694627785514784,0.4679960684590375,0.4666312648035891,0.45480502094641356,0.42551382672057786,0.38862539070884333,0.3721435177780031,0.3987034017975023,0.46073034234238197,0.5246685555808449,0.5626714061198731,0.5633872589885053,0.5258701869903268,0.4476084147523029,0.3277929783577212,0.1968423959713924,0.11783259872235717,0.12580870490550836,0.21642562015514819,0.33970462978651317,0.4296464347807153,0.4536331284785182,0.4084878026948308,0.297974214622314,0.1346650141063604,-0.049897250784426396,-0.21257686342246107,-0.33814000868049443,-0.43314727898450944,-0.4903273964650792,-0.5070958538175573,-0.48958081547643223,-0.4551922651268107,-0.4136155372651666,-0.3700570341778755,-0.3122988835531033,-0.21895664928397474,-0.08280408439716418,0.05337398390797933,0.14352019482371078,0.1813078936242404,0.19630343670910103,0.22457922273911704,0.27297264297871626,0.3195507762813435,0.31401380309150856,0.24077826338966665,0.150653560623035,0.09395669708596463,0.09874096037360283,0.16161428863399072,0.26503906135287,0.3883725975818256,0.5101584560727184,0.6024804292366425,0.6090681067777718,0.4597516652100731,0.06782471000528192,-0.4375102532060513,-0.7270407914186118,-0.8417414867907849,-0.883899595357817,-0.8908240323806508,-0.8714915349426462,-0.824471361758125,-0.7441264719125017,-0.62549151904355,-0.48795932633116457,-0.39595360800694523,-0.4044870601608522,-0.4544355359539135,-0.43301228653985824,-0.27463241510581865,-0.02661957403452621,0.19118797495420076,0.32712851100513085,0.3967428065150475,0.4228217819406844,0.43176389924861963,0.43808550769554,0.4386089168032223,0.42106575425098186,0.39078786306084995,0.380595807493249,0.4198109355721218,0.4946250521347997,0.5582332920731319,0.589272194474407,0.5911880895172557,0.5713671007941107,0.5385373115346502,0.49633072780524384,0.43797077808387846,0.3580195686268651,0.2530847341870381,0.12598280171821546,-0.01444800039584113,-0.1478125437123748,-0.2789833465947234,-0.4370610904507727,-0.5883195960141694,-0.6810221578839284,-0.7332233870638221,-0.7587419573705575,-0.7675479336470432,-0.7606513167976744,-0.7293341555483935,-0.6603988680502515,-0.5535847627912849,-0.4301839519307904,-0.32025095786734564,-0.24047535069432807,-0.1882247785652693,-0.15685268018437232,-0.14588605941265284,-0.13799900371145324,-0.10535793708944982,-0.025350436993501996,0.10078856941030884,0.22825821656542394,0.28844982151980025,0.2656714891104379,0.17902595833254614,0.05278266956122847,-0.08463866294997541,-0.18944929800636648,-0.23449076274062822,-0.2142926231264146,-0.14718709883667358,-0.05424520189619657,0.04646674517004991,0.14428770639376368,0.22605559765070043,0.2835182588908567,0.320857781924168,0.34484502966726427,0.36983019415526647,0.41139663000474186,0.4590843506472922,0.48581510372623987,0.4843485816789003,0.4710276543328598,0.471239897295333,0.4969548881207768,0.5363911098483886,0.5682305108345342,0.5814530020661333,0.5697236496270532,0.533629940033271,0.49079096771908803,0.4348084459328395,0.34253312988966395,0.20830594647156406,0.05549382039188659,-0.06117725060328606,-0.09034192201851857,0.010149794899783422,0.24588825198256392,0.46483883932998027,0.5528013728300363,0.5728516503244331,0.5691360567950121,0.5537954769155463,0.5267585897004413,0.47621011565619337,0.37681192569906213,0.2048789994984517,-0.03140469901074402,-0.2573220635469449,-0.3597743790266782,-0.2634901552241725,0.06870487218989474,0.45912335145909755,0.6687537633272291,0.7417461523070208,0.7559362508811608,0.7454182912604795,0.7191720829246243,0.6767692324512485,0.613009773521207,0.49815234149882853,0.24790633834356007,-0.12082983374715704,-0.3576450049414997,-0.46151728846082746,-0.5242748958683613,-0.5918648278050566,-0.6720743151870244,-0.7518298090472116,-0.812524914967395,-0.8468571408375846,-0.8603581939172948,-0.8567148349676036,-0.8389928834490312,-0.8094219656485552,-0.7716988540443928,-0.7281180347810721,-0.6743610835293984,-0.5939721843069524,-0.4701002059483938,-0.30469395722142995,-0.12764549421975405,0.05102792627106986,0.25098798244457216,0.4764013930573743,0.6709221872750906,0.7921210040528365,0.8480694380412425,0.8679612515268399,0.871999764631522,0.8670667383351672,0.8440533074261908,0.7624911407629608,0.6208224062520238,0.5411899901064423,0.5561536446901084,0.6062614266702483,0.653327501592388,0.6770800272317715,0.6526834507884243,0.5212514728287093,0.13056770801339201,-0.42718518143424633,-0.6919825174234558,-0.7679449997286901,-0.7748630772476001,-0.7429428136214289,-0.6700037202931064,-0.5281676305482601,-0.29483226510150484,-0.037911396710561374,0.1465173219787074,0.27272361855042454,0.3807269519626168,0.4753362699506901,0.5340616966254842,0.5535576117142869,0.5374822460423727,0.48831204499419967,0.417928349198622,0.3502192761649785,0.29603773983384063,0.25700356887317466,0.230700523915259,0.22303820391734733,0.23746754898176958,0.2675066400656402,0.30546552291729473,0.342665815235779,0.37624458257853444,0.397698505733014,0.3851942781402545,0.3230801063913524,0.2194962928349744,0.06456421629397774,-0.14550800368464736,-0.35850290922956346,-0.4824346503649817,-0.5196022190044771,-0.5100444221493983,-0.46346089712045285,-0.37440900848809827,-0.24503101376830133,-0.09961827427169462,0.03243007296277962,0.12196527941168121,0.153309365194724,0.1368968023068898,0.10541645442899285,0.10487508785021543,0.1525817906518887,0.22550319728423773,0.27296834520270685,0.24786739932649018,0.1531591793616952,0.052300625687485745,0.03177221055221118,0.12946932300017125,0.30595975679116605,0.47041698893394124,0.5715771338390702,0.6128773591704121,0.6079379371045001,0.5671389875174385,0.5042381353007857,0.4488958703295759,0.4148686524127665,0.396882099266096,0.37812168070903807,0.3575389763340476,0.3441731191042123,0.3553465800355771,0.35659714702514506,0.28643454433962173,0.13393415098898692,-0.047863178087719165,-0.22767662351647588,-0.39422092281665944,-0.5289304234722783,-0.612861498874126,-0.6434680793386389,-0.6243248118780088,-0.5724711717025792,-0.504771319836561,-0.4067021591748783,-0.2683392868330377,-0.1305903310362934,-0.03402523524618659,0.025641289197142127,0.060447730194682525,0.07657027149621135,0.08104637084931647,0.08729085783606644,0.0972404831673636,0.10225013982378979,0.09511637807892183,0.07933953776450157,0.06746926715927684,0.07570590663640932,0.10740489094545755,0.14457584452797384,0.17010802106953424,0.18097378412839454,0.18730731846424192,0.18427533943101584,0.15792076677682917,0.10005298649344553,0.018514782454551165,-0.07935169632916102,-0.19949352811012952,-0.3425069832996333,-0.48137533979652436,-0.582833207265067,-0.6356618926688249,-0.6480714940619539,-0.6253736287889208,-0.5634372185168356,-0.45677917479726543,-0.33939014622172414,-0.2697566229212746,-0.2808469690706792,-0.3589412744776476,-0.43605025376211687,-0.46407090118614186,-0.4391246107657446,-0.3694392724790863,-0.26824197934674654,-0.12505976490183907,0.08255776135181798,0.31999638115743545,0.5004233580436726,0.5934389645750445,0.622169687276183,0.6024407451963963,0.5333817346824736,0.3946143981939654,0.19923732408799386,0.030700240883952186,-0.05810550728738742,-0.08729961438097122,-0.10916742509455285,-0.16949163691505953,-0.2815260375521054,-0.4183588749041265,-0.5210857335359871,-0.563541979748374,-0.5557142591308292,-0.5169606386509027,-0.4740896655762097,-0.42817935177148797,-0.3740646315886417,-0.32797533565305353,-0.3030778388004887,-0.299900001854621,-0.28812437189632517,-0.2430928538465813,-0.1534606449115667,-0.0026651004743421347,0.21311810861064276,0.4296051307796154,0.5572913523076857,0.5842333228045996,0.5506296640085206,0.488553078036215,0.4173111939945861,0.3318858009989178,0.214585576435154,0.05432577589676709,-0.12584594181079228,-0.27751408514176423,-0.37347746833970297,-0.41600916734550347,-0.4117474388249647,-0.364424517955413,-0.28227843916281653,-0.17428226261532004,-0.0440319601525135,0.10329016422306307,0.24332768875897012,0.33628526683699256,0.37469326521142055,0.363732832863923,0.3064595229457073,0.19722593042683706,0.05936422152689752,-0.07023524791900575,-0.1571682502677233,-0.1804896606345989,-0.1377634994998614,-0.02698188457700848,0.16036395091396263,0.40960321328637456,0.6394609263331776,0.7800671902550831,0.8484994537934497,0.88031779015656,0.8899931612571922,0.879178241211067,0.8441196459948215,0.7724378028869844,0.6419864067492387,0.443455943071293,0.2318220606821069,0.07621509208195967,0.002141130741970104,-0.030364542899181047,-0.06872375278794822,-0.13375858788676753,-0.2342685916812663,-0.36970390154931715,-0.5009343824670434,-0.5879760000360699,-0.6230850248153268,-0.6169748657660962,-0.5819866597111166,-0.5257235389755426,-0.46361813261429086,-0.4021704084172295,-0.3523348935701102,-0.3324700870884172,-0.3372886819976249,-0.3472958284672348,-0.33778185857468523,-0.29573301243527744,-0.21207334393512908,-0.07898971688352811,0.08530092790058656,0.23380042060201342,0.3599376273984505,0.4994615402110332,0.6487628015591036,0.7588858269922537,0.8192492400320469,0.8435073665602655,0.843444327442371,0.8207077147355925,0.777507143872309,0.7161553197888282,0.6381357088484984,0.5200298575497568,0.24707428211578383,-0.3079928110587889,-0.7193563620223595,-0.8442102350766315,-0.8669611259106468,-0.8372734162793672,-0.7396946693376262,-0.5368154121708201,-0.24471759182985073,0.0319938488931354,0.22941577029729546,0.3635830761940453,0.46327831275097336,0.5410313417409964,0.5894080575906725,0.6000405540006686,0.5848621787392034,0.548775615039783,0.4823893150386005,0.3882960404931819,0.30370299992302513,0.25464547722969766,0.23695889315033777,0.2464943596822346,0.2861072576531039,0.33938307444673094,0.3926304986028151,0.43989927657979827,0.48027886898126726,0.5150665356715961,0.5500596576565189,0.5918550474386342,0.6515783040553853,0.71898941959301,0.7809834553845372,0.8294204009970314,0.8548378097791602,0.8283444697880149,0.6356340312137936,-0.03535972427635753,-0.6379740034375659,-0.8280225044763929,-0.8877473792804074,-0.9052749122856124,-0.9036176245600137,-0.8902588800285963,-0.8628583260114139,-0.815166854658452,-0.7372216794145927,-0.6220608502996824,-0.4889798871426886,-0.380508513764988,-0.32589999611669945,-0.33181367034026593,-0.3780739067992132,-0.43012667389259984,-0.46195264651868095,-0.47404787461316494,-0.4736613615153742,-0.459735394107163,-0.42474122615505083,-0.3585303647586865,-0.2424058072032021,-0.06725937552649121,0.14879945399846306,0.33582495180461774,0.44897303320716575,0.509675572049699,0.5560665113057837,0.5997802649354571,0.6313985846236332,0.6463586833975146,0.6461917251019452,0.6357202171407802,0.6312068382613093,0.6415926886089843,0.6648278827059692,0.6956297557026503,0.7295706954942753,0.7607024566123893,0.7866549684097662,0.8047004731152013,0.8071352456522868,0.7636779791594553,0.5770547021021855,0.14994820762432493,-0.17848444035259622,-0.26268682585422093,-0.2202128207489293,-0.16931247232244392,-0.20058763363411836,-0.32194494204451435,-0.4578425990522581,-0.542174957516394,-0.5589325862419856,-0.5153796251906658,-0.4073683295054083,-0.23547011718556887,-0.04240868741003898,0.09898998214892339,0.1618009545928911,0.174757837736713,0.15964201466630212,0.1444765762896336,0.1662868709575535,0.247547690248194,0.3627834719102444,0.46713273080699436,0.5428986888124737,0.5921610328410656,0.6166517571081152,0.6171873100247528,0.5886557334628998,0.522314846794159,0.4262173144394996,0.324733469388094,0.24897936736887552,0.2190667748239081,0.22685625782264543,0.2575490409955228,0.27393510539924043,0.26093789316315863,0.23494890921595724,0.21672777449354133,0.21458669088406207,0.226578696850888,0.24076456131078447,0.2318973743719085,0.17901556641103697,0.07637715929358427,-0.07559085718403634,-0.24665716106059504,-0.3877584397802997,-0.46742363119555785,-0.4889120482520261,-0.4633997849276409,-0.39787892358120847,-0.28627904881249844,-0.10916728435111558,0.11482819038184376,0.28012649385384236,0.34453793464600024,0.3561369377039412,0.3619622870257803,0.39300611891401055,0.47191613107371805,0.5816233816908924,0.6647530016986487,0.6844694471535456,0.6598726513715566,0.6060861817924987,0.5096728808992029,0.3329020814859324,0.03673231361662842,-0.2981107045633075,-0.5321032017271351,-0.6505838944551601,-0.702998841307488,-0.7210160031122961,-0.7199893519957098,-0.7016358950664562,-0.6696198845116079,-0.6400176078702865,-0.6257508434607263,-0.6129297012311394,-0.5767661968036457,-0.4987638389968012,-0.38308635359954774,-0.2524086649017651,-0.15158512633366047,-0.10713070556553377,-0.10504767481082357,-0.11264563698169083,-0.10089141215249232,-0.06113572703683577,-0.004002465431839071,0.05218752410214646,0.11129028451403536,0.169830535272814,0.21556868146570904,0.23216766793263496,0.21326995381022185,0.15778269210834273,0.055584799877133086,-0.10375197312055567,-0.3167596202397761,-0.5335199484344666,-0.6939191099027754,-0.7855871637145123,-0.8279385550903541,-0.83700463849077,-0.8198312519460307,-0.7733654348792112,-0.6888283364262001,-0.5368195401630583,-0.28033426589019994,0.08590166318894536,0.4684449719675633,0.7364241069069061,0.8705322297315526,0.9302770368712308,0.9547693587381604,0.9564561854148398,0.9293092577187922,0.8673791458702376,0.7797293110579734,0.6794257455049123,0.5650382782276194,0.40718738325724174,0.11743438808897372,-0.3672058944021666,-0.7278788305573857,-0.8569650963024723,-0.8993559416763651,-0.9092907119132737,-0.8959878347089255,-0.8482690219679988,-0.7335256134574683,-0.5404971919204987,-0.3878970867546089,-0.3605090734621561,-0.4048471561098815,-0.4548174069331588,-0.4845934576920409,-0.4887570309356927,-0.4637645851680063,-0.3873416739951773,-0.2270186637922473,0.04676635102756658,0.39977355896191274,0.6939700074138272,0.8507116928184119,0.901438264839971,0.896711974076896,0.8739747717357307,0.8516377117317026,0.8325116002491315,0.8152312338807486,0.7939101151243363,0.7555009267624099,0.6918351794667041,0.6049081116905268,0.5074996902056335,0.4169583623988411,0.3461268133267777,0.2938639457035416,0.2749877968567852,0.3017150181435683,0.363081582982115,0.43453439658182524,0.4810464710984813,0.492259803148175,0.488694762345737,0.4860906562169872,0.49304639473982004,0.5044165661836214,0.5034814735327923,0.4676703856940688,0.36381051132221137,0.15695030054922549,-0.11752285391335503,-0.3284141480196105,-0.4274402175490826,-0.4445931060856006,-0.40727569449829076,-0.32834164975448804,-0.21135478633387286,-0.06250701392018214,0.07742503502437152,0.19002664849551795,0.28551142211623093,0.3706172276023063,0.4424134740993113,0.49915668386488743,0.5454420624122346,0.586944211788922,0.6234177062276777,0.6540051158428672,0.6702248751867631,0.5930301100425512,0.04652093533196098,-0.5373158968327474,-0.7362484554639077,-0.8090323892424333,-0.8338726981005659,-0.8307128115263978,-0.7973947146235598,-0.6947242872662189,-0.37278929902014285,0.23582678149055633,0.5636365075575464,0.6202527213982745,0.5709014418374305,0.4790361198485978,0.3725476782533769,0.2664322083135285,0.16478397658890936,0.07816389997449523,0.014725029198805284,-0.03625206077591934,-0.10312009180042539,-0.2145081030274964,-0.3481614764319702,-0.4676063308720719,-0.5537081619261233,-0.6005859730271937,-0.6167834500691722,-0.611758841977552,-0.5930285913617549,-0.5603647470174523,-0.5076694671324975,-0.42944210052123344,-0.32113989101220847,-0.17448524030418902,0.0134564820148672,0.2389931113069941,0.4494945001458367,0.5873648776512135,0.6480417756221338,0.6504430384792369,0.6126802799032683,0.5525736469109075,0.4889799698935638,0.42698653323674235,0.37067942164213796,0.317339019371434,0.2614167836026065,0.20244168550294867,0.13818481264565438,0.06636359905680578,0.0008183600254917228,-0.031916722817485275,-0.02332722112754285,0.003884155732002023,0.03667494367203912,0.07631115789505202,0.1206093451161896,0.15705412787840328,0.18351134042065229,0.19942831224910446,0.2114843251313035,0.22682885883037482,0.246676493152786,0.26817932083865975,0.280368026101138,0.27267651711405116,0.24749917213313763,0.19942135778193384,0.12495662259622595,0.027919855647781554,-0.05989955880806501,-0.10413719196042268,-0.09310505493827517,-0.02820821835989227,0.07691567678149484,0.18126391545435683,0.24185100401958473,0.22390616186171608,0.10072350337560271,-0.07081128831152658,-0.19656218111063709,-0.23537762297076595,-0.19146396553788586,-0.08002824884336895,0.08857633625254846,0.2724578954834708,0.42392046869684946,0.5252107520057816,0.5797083839278053,0.5941237293466588,0.5707211786715949,0.5040072523387101,0.3528343901457214,0.08545260910627167,-0.19248102592374486,-0.3709217049734735,-0.46536643621120466,-0.5142127081345423,-0.5388445452444333,-0.5429840943104576,-0.5066477844546033,-0.4095734804173499,-0.251115566468949,-0.048103653138596734,0.18357835357085636,0.42462197892081865,0.6041725026241178,0.6695696896522952,0.60006454858884,0.3295557095194248,-0.1292493343676443,-0.4844314882283549,-0.6410667448612389,-0.6803042975334275,-0.6447663488683774,-0.5483077812746154,-0.3918440218051484,-0.20359578402771217,-0.06986214949583548,-0.04762603838990746,-0.10650738003151233,-0.1814406190477494,-0.22958888051145152,-0.23544765752478886,-0.19193025821649454,-0.08755908653714096,0.08447961050108899,0.23023568092904154,0.24779269383967406,0.20023820545346763,0.13497256879933361,0.05870322921281361,-0.02355222874830282,-0.09916481609611967,-0.1621089824799748,-0.18983180082267984,-0.16142650431784275,-0.07601305103735148,0.027794461397955758,0.11987299042848293,0.20479141225605635,0.30120734451980974,0.4142959261607123,0.5316242558652686,0.6297014054547024,0.6827961164980261,0.672438932459374,0.6027931758966864,0.49575658233991204,0.3859922787529102,0.29436687527374,0.22828189699973034,0.19579846088754618,0.21005734861133885,0.2807891991430586,0.38330475759961136,0.4659131966700481,0.4886455958025162,0.4230876523485696,0.21112265669437813,-0.1581718319437668,-0.47617654693488004,-0.6033191605380918,-0.5281228263636983,-0.0957994977695094,0.4603831459285254,0.7131254145174717,0.8140858654310968,0.8644295154453935,0.8919824084558574,0.9039737438968809,0.8997784036139767,0.8653845332489669,0.7890336920229565,0.6896560496061348,0.6102616622961383,0.6018275524618154,0.6657991875928014,0.6178863669617557,-0.056910968793817365,-0.687972301664433,-0.8538422504143,-0.9040912438485242,-0.9225650574818228,-0.9271156061384511,-0.9195520259567037,-0.8921486110082809,-0.8269724207173702,-0.6996156723472257,-0.5249894239125305,-0.38142049076033013,-0.3199776086180985,-0.31924445852594835,-0.33487241853952504,-0.3193829626541839,-0.21726940361121252,0.03178608864936572,0.35004200060811497,0.6017692025163922,0.7548415338221458,0.8400607292025982,0.8906359676391032,0.9214301813510287,0.940010434293004,0.946164778777335,0.9371715668761873,0.9043454465108635,0.829845492842726,0.6943748589677251,0.5174285597837162,0.36254967096829493,0.27782865669800766,0.26444992045144844,0.2971376100363924,0.3528631638535466,0.4113466849242584,0.4465195477574911,0.4364372776599361,0.360723157371135,0.18446338497612702,-0.13617510602012917,-0.5316999772487769,-0.7960613972687416,-0.8987767221248306,-0.9244695374778188,-0.912015752440241,-0.8330935453202577,-0.49606304106599797,0.0813045763904002,0.32996845504420846,0.38809523929066087,0.4219465947160966,0.5040647617088135,0.6050045384558255,0.6829849088691203,0.7296860955111074,0.7498836143793904,0.7482488339746548,0.7315522667277545,0.7030610270728409,0.6591473491622051,0.5964236050956802,0.5296607655726057,0.4839649694391276,0.4516217745798272,0.3990480699054438,0.3183203373598214,0.22122233354089302,0.11654810760009505,0.019237142629289283,-0.07348261345197162,-0.17479018060008703,-0.2754556512840084,-0.35643024369526016,-0.4197266741787624,-0.4669037119314871,-0.49594008857381244,-0.4953857644809376,-0.45497765304634624,-0.36346775125005093,-0.2091894786698197,0.009092175792985395,0.24423042419466548,0.4208146079404109,0.5220930836414854,0.5841365231635458,0.6334797531688071,0.6789276927757204,0.7197750477602736,0.7565256235336786,0.7700129812598355,0.7554101633651528,0.7165551024863799,0.6376044574228374,0.4862490358159949,0.2504578549708891,0.008875330380903624,-0.17766447079449288,-0.3095784533960914,-0.41170391864850026,-0.4962069861771655,-0.5720423804787006,-0.6466965625262712,-0.7083948701902539,-0.7466384815584013,-0.7596989572197043,-0.7507634378129743,-0.7201554666894158,-0.6599722099727736,-0.5383661698790763,-0.29088742580023114,0.08574043889504193,0.37800489876127014,0.5012064331866782,0.5316125154998147,0.5238365965736358,0.4998243435555387,0.46937593962802215,0.432667263377793,0.3856519848178493,0.32396990668526493,0.25011482088198284,0.1759034621574877,0.11530381491212059,0.0797058952661527,0.03827564848330401,-0.043058371386213365,-0.16408039073129893,-0.2866785754265673,-0.3757083166602045,-0.41169483342808705,-0.3974038236728756,-0.36085531073279714,-0.3371049649804183,-0.3379615401554838,-0.34855456284269554,-0.3467956245993397,-0.30973456123529625,-0.21163255482716387,-0.031176918562354942,0.23321291596871335,0.4835752161031087,0.6085830638438935,0.6351613068746573,0.6166400327753364,0.5755868314873026,0.5126929504327048,0.40727643563156884,0.24408000530309082,0.061659783896394885,-0.07132132978822811,-0.1372283783529255,-0.16153631826810666,-0.17266966397662184,-0.20063907060417852,-0.26391223811116743,-0.35077782817053027,-0.414753136186254,-0.4228988610102734,-0.38075109905489934,-0.32485731574191945,-0.2807807821025498,-0.25857608187505,-0.2579110149759653,-0.26846798702239233,-0.26799210748573987,-0.22915242147664142,-0.10519035419567446,0.12998336989233178,0.3217751823161102,0.3291168252621472,0.2449987371784186,0.14734590742135797,0.06682927166331204,0.013029976881426134,-0.011933267348870739,-0.03033178907797671,-0.0782476755330476,-0.164621043357123,-0.26583434358088726,-0.3371954635573656,-0.3586928872076912,-0.30482379977798385,-0.14184233936772886,0.1054623713293127,0.3309536941272093,0.4766236951403147,0.5591223572217437,0.6043473193470892,0.629280972782747,0.6456002442036026,0.6552825252882836,0.6575652323483182,0.6497838589890406,0.631040575219112,0.6066115933253602,0.5739144034796437,0.5335570984291209,0.4865853747274097,0.43173976086732213,0.37120864870084225,0.3138584688042687,0.264121139519326,0.21361627213434367,0.1458081538082423,0.04702525047188439,-0.08270312594865961,-0.225984414922499,-0.348344571031486,-0.4150068863097623,-0.416812843113527,-0.3522482008339354,-0.23444114056388984,-0.08915656716694019,0.05677057599606781,0.19158759181415633,0.31023269704439765,0.4027748953057793,0.4665943731469551,0.5024133062575684,0.5073684696702204,0.47598149760507635,0.40835203170024353,0.285808149852861,0.037330989858539,-0.2645978335146966,-0.45461179437280513,-0.5371944778533483,-0.5582345826661408,-0.5510221133915388,-0.5337819592623436,-0.5123486717060458,-0.48498769501051175,-0.45337786828064813,-0.42430318151777285,-0.4029800263600936,-0.39340476392239354,-0.4051936120964905,-0.43892367402151666,-0.47177925929202524,-0.4809891786729975,-0.4522735305597044,-0.3674186403201949,-0.20147958413461872,0.04329193781148203,0.3145210903392154,0.5214349924882097,0.6327070889855616,0.6898869149723384,0.7316109842213849,0.7736442355781037,0.8183461350273438,0.860059073140849,0.885343947134178,0.8855871049542904,0.8599653445847925,0.8192279187468192,0.7644014122984768,0.6590856608574679,0.4450766754031869,0.07814902147105798,-0.3828621640312179,-0.725259468164121,-0.8663551324830684,-0.9027949329482731,-0.8889814560542615,-0.810527465839233,-0.5705313123562274,-0.1301220716145113,0.19654889745498091,0.3094295598699498,0.31364078079131474,0.2806931185531695,0.2465104702979466,0.22659058500008084,0.2273203924554622,0.25093136164732766,0.2932405072548241,0.3401752616449417,0.3826115094296666,0.4068856090580039,0.3978012939031516,0.34726506450073186,0.24856755979290432,0.09443427544258161,-0.06930563506510429,-0.16668461934316336,-0.19847765124892194,-0.21498439136591457,-0.24773733525061123,-0.2845443359285452,-0.30105049324690564,-0.28871700767749386,-0.2548255945138217,-0.21428367777408366,-0.15590807787576277,-0.05703386390253242,0.09988371005703348,0.29888793584122036,0.4941296593713756,0.651452926730603,0.7555614278416428,0.8057282958703166,0.8105095073940255,0.7835855587688547,0.7316288828120467,0.6623828031722689,0.5836117795285986,0.4944595383985118,0.3929764427458318,0.2855763737077712,0.17582962250031617,0.04657096133805441,-0.14250755784142566,-0.4168325300373458,-0.6713567834979253,-0.8113727854142578,-0.8703390316850963,-0.8906254397433283,-0.8854466566493433,-0.8451724623896344,-0.7302004257374555,-0.4766804745106297,-0.16497236516482924,0.028413288183508308,0.10981507090628458,0.13768625445780835,0.13373077320155702,0.0906846989679399,0.023734472240770892,-0.022959269157075815,-0.0016366199555630583,0.10025036682632359,0.24579838964030926,0.38564128648802776,0.4730572369905102,0.47215654833718884,0.39049840116618384,0.2702238113941954,0.15579869580157396,0.06578444747542436,0.0163250900716986,0.03293282806269291,0.14353342923099702,0.2973688857692076,0.41261814854411066,0.468839273244386,0.46803450993297163,0.4156649931756001,0.3163104243525433,0.18417794941819524,0.02184605791333993,-0.1476650565328404,-0.28503961540466405,-0.35423102244764043,-0.3678628322607091,-0.34545106702332923,-0.30605919377476487,-0.27415332156055694,-0.28184225573115895,-0.33523603025207027,-0.4041536370659735,-0.4376093095299098,-0.40473321179730704,-0.28576406540383537,-0.10860314795628732,0.06427281849081368,0.19361320773471238,0.2809826750183712,0.32729333090592755,0.3247989767654138,0.268493276092722,0.18243104057440865,0.11003396591215903,0.08002949548597979,0.09389153008287808,0.15595405615517155,0.2805747970798062,0.4421607877613289,0.5714131105619514,0.639442179165591,0.653096487762677,0.6192416761019045,0.528362016237251,0.3662324523887319,0.15125826848169344,-0.06139638856850688,-0.2297119288499188,-0.351156478584965,-0.43207152336431237,-0.48114235616656953,-0.491341314193686,-0.457387051006159,-0.3698216093779571,-0.23971387982832307,-0.11227506523429814,-0.032101912884317955,-0.0162169032144699,-0.05838183390396936,-0.14180326607322602,-0.23797526581250547,-0.3121286603762865,-0.34636600521109395,-0.34890219053888255,-0.3364384500359448,-0.31574675968036775,-0.28610823846900807,-0.24718577950111476,-0.19264054204851572,-0.106846478866749,0.01523263547205967,0.14907166829188992,0.24649217441144897,0.2742709366427159,0.22734503935293068,0.12772301203499326,0.017855923676162497,-0.043849696556064695,-0.00021032393845576484,0.15410703446236182,0.35301637271657293,0.5155443594801076,0.611321145575953,0.6639989302163496,0.6837095835987789,0.6722027799116901,0.6370428890093406,0.5994184796178198,0.5736253826017982,0.5717196586194363,0.5955882377929493,0.6387246234030414,0.6830168693585464,0.7150738507341644,0.722576877654682,0.6943480247700993,0.6245762121972445,0.5164926739757149,0.38633937615665653,0.2519417796692323,0.11401275035435621,-0.043399446167946464,-0.2143218714046389,-0.36820073344955967,-0.46793791226936843,-0.49300052061850125,-0.4446286704583407,-0.36317575666854984,-0.3222711138022357,-0.35515789683273286,-0.41867141257254603,-0.44414017173879233,-0.3979277880255634,-0.28571359653833955,-0.16566009466987616,-0.10279582683508404,-0.13994668363671436,-0.2716951131970538,-0.4271547560050261,-0.5306838972696424,-0.5676222094297714,-0.5696209977640527,-0.568542741504668,-0.5646966700019422,-0.5492794147817779,-0.5098330037094023,-0.44643743999754315,-0.39775054744592403,-0.4044367449245282,-0.45334318092440756,-0.5043677654362686,-0.53440450244981,-0.5390502862430595,-0.5249199223475757,-0.498721450791957,-0.4656609873186675,-0.42822426959625653,-0.3775216604339526,-0.3005721559030986,-0.16953485788961425,0.05370622932937245,0.3503218175404852,0.5832990847327985,0.7020131697155757,0.7463464032544491,0.7461153802786341,0.7030132119793588,0.6246807943678845,0.5629182873224302,0.5595281982737972,0.6106795055190368,0.6861759196864355,0.7519352156570595,0.7853170048441555,0.7872803781148897,0.7588225525712238,0.6837718804286498,0.530336817925816,0.3006869502386442,0.0955432038909149,0.03834923702515969,0.147468075358579,0.33109622077119405,0.48638475825745564,0.582285952997572,0.6396637203465737,0.673679741972971,0.6916718190815538,0.69935628392017,0.6939618988289404,0.6669614137521469,0.6171657336195089,0.5488661699629517,0.47071132719799597,0.38273308003754675,0.2618665942576371,0.06661190022848988,-0.23699037141391546,-0.5672689214530459,-0.7699841203155501,-0.8574386631675934,-0.8881440465682502,-0.8878904828673982,-0.8497111839171055,-0.7342897323849366,-0.5078692378754649,-0.2558069941951327,-0.0881110209649688,-0.011636574377532143,0.02652969222812989,0.07671379480472318,0.1670888188445128,0.281880842729842,0.37797000119683605,0.4287409218691163,0.43596914734413567,0.441634328819064,0.498034495948493,0.6169152007065154,0.7267485763570521,0.7772629185020402,0.7952398971507758,0.8036098299221056,0.8056234627274783,0.7952023866480156,0.6787398108475621,-0.32424313879726613,-0.7840061477537024,-0.8303796356382503,-0.8299744065460434,-0.8076256877952389,-0.7580634408516145,-0.6576633561646645,-0.46959996868930504,-0.1720893149904453,0.17257379307845933,0.46262654624051963,0.6551820314058956,0.7699119249841295,0.8312677308715825,0.8542649646587691,0.8484043371415646,0.811276853369983,0.7282718580580732,0.5694975046956532,0.30165456644963934,-0.013828829380919207,-0.249888903825473,-0.3792285261094025,-0.42659107805606206,-0.402493501757817,-0.3138317123143053,-0.18390735228096622,-0.07883159317555158,-0.058953550618692445,-0.12815905603447328,-0.25914392336997943,-0.3955268865820321,-0.4844898904723408,-0.5244477408225269,-0.5311542421190394,-0.5132955083517381,-0.47638548339969183,-0.42999050097077657,-0.40322911897309327,-0.43400044146798344,-0.5159228971363639,-0.6105867950585467,-0.6779212926001931,-0.7055795056430813,-0.6796265744851262,-0.5600590083414283,-0.2862832202960297,0.08788274631038698,0.35965063615106674,0.48665576511394654,0.5317943821509188,0.5395837659262687,0.5311796253638901,0.5158881611567332,0.49221594939941565,0.45925414859121677,0.4156357418695133,0.35740503190984185,0.2814683344909107,0.1944070447999872,0.12324287307387809,0.0859990728455483,0.0865943034980523,0.12674958051354754,0.20012896476177955,0.28997770207109486,0.36923659843528256,0.4216110405058409,0.4433939289802851,0.41463178045262417,0.2714044877309082,0.004528452336232257,-0.2488569079974225,-0.39786656349907534,-0.4411288347943774,-0.3724312259059068,-0.18393479924662215,0.07297125653648445,0.2727422847997532,0.3589387205358701,0.3449665683803786,0.2428791073029719,0.07320606303067495,-0.11900805645177183,-0.29301285656542086,-0.4207001530886879,-0.4890202798366825,-0.4962368580040953,-0.43789745882284775,-0.3158530548462335,-0.16096234022256467,-0.005200054483707094,0.13815511614444176,0.26303629672931456,0.38076071644500203,0.4982197633458212,0.596780765085773,0.6542970318847657,0.6607988164625206,0.6233961859190253,0.5485964139775859,0.4325066590269659,0.23795077001091947,-0.07076371330854117,-0.4092002523658896,-0.6503896083678085,-0.7788439226240389,-0.8237232608940549,-0.8083469254277703,-0.718081068115189,-0.5241209236488946,-0.2755510957774764,-0.1042562461502515,-0.03513618787086419,-0.0270216440964518,-0.04052187203982922,-0.05249345874509815,-0.051472104476233675,-0.028136428400013413,0.0023235916642483445,-0.04894222407283922,-0.3107933853790058,-0.6238298064363232,-0.798605541331641,-0.88428633834581,-0.9305168659063269,-0.9570768222911138,-0.9672296893031652,-0.9394451184106062,-0.6143857668965842,0.44208378014561217,0.7402172227422611,0.7923748039990065,0.7781374468586036,0.7174665795038896,0.6078438103136903,0.4715339662190794,0.3593412462516375,0.305245858044519,0.29654669670754336,0.2955036664512759,0.2695732744027092,0.2200277061821597,0.16875361112704138,0.13374450223728565,0.12566700709507642,0.13337667555367103,0.12199786253932239,0.0671805408939141,-0.019524286251106356,-0.11218436223262707,-0.1868768375120735,-0.2298042223679907,-0.20169437749806737,-0.07932343062774364,0.05491545665557375,0.12844455489594747,0.13928572594332556,0.12290084161614914,0.11787217839781136,0.13612960741551916,0.1721811990841299,0.19430242073556633,0.18314524764272946,0.1516677322026651,0.13765740247094727,0.13791699185911394,0.12689403044787564,0.09898831278552683,0.06261582515137148,0.05155019872130212,0.09874290866572447,0.2100612086198955,0.3386316699039861,0.42750901431734667,0.45611078605420613,0.43635478584114035,0.3726180995909785,0.25522506929431976,0.11039887515235991,0.011005894522900043,-0.011097471717787483,0.030057641775131656,0.11558155253775093,0.2227424077857938,0.3379050918381722,0.4627736071867466,0.6075332184668288,0.7172106873098371,0.7254221604035586,0.6897223874316566,0.659584929726838,0.6427472943670407,0.6244980443916087,0.5754840342654859,0.38379249622075884,-0.011680979373840212,-0.28150925894743634,-0.40397791545007633,-0.4624075625263233,-0.4886104516289083,-0.49717782068735045,-0.4961279428691055,-0.4858193867961726,-0.4582804582522853,-0.4187763750792103,-0.37227193889507976,-0.3135649491040481,-0.23231139099094417,-0.12852402394536172,-0.02758311784589491,0.041138170080268405,0.07204385796162971,0.07497046334399758,0.06279361266035952,0.055206975870689366,0.07196526647326036,0.11670097028298347,0.17375933331019114,0.2250205509969509,0.2497485876561815,0.24531901982009782,0.21177537066451374,0.1581335738033876,0.08344576751565372,0.00016421551652384548,-0.07416888576363762,-0.12786535074938166,-0.14628791434963087,-0.11219956469240176,0.002016820075677466,0.1760596336492084,0.34054231758027487,0.46154777890384396,0.5471867736806807,0.6075378821586739,0.6391955152707963,0.6532113446955288,0.6595437381544644,0.6594903295363506,0.6536961025363895,0.6333165098660477,0.5773476903069686,0.45821922467258586,0.24785512176660485,-0.038846683679381905,-0.3378839674001678,-0.5617141080093008,-0.6878412215975016,-0.7505797686271505,-0.7793300760378031,-0.7882917351764551,-0.7847780351452688,-0.7725824948539357,-0.7590217215367716,-0.7502300238687792,-0.738812142061174,-0.6987505561191522,-0.59360041510361,-0.4105251750136447,-0.18158735846525964,0.03916673860438977,0.2212295880055653,0.3513847889887283,0.4521733712554454,0.5356119458183659,0.6047176676237157,0.6525209821581052,0.6601042011425708,0.6161877429625614,0.5337224938289213,0.43808116272872377,0.3477155396758953,0.2648630279658333,0.17828822185957477,0.07241784778143907,-0.029745233445543168,-0.06666237180963286,-0.05832692437108197,-0.04991454870674286,-0.04477002357078749,-0.010508000508866066,0.07925864054534623,0.2191163317924416,0.39432324131792745,0.5845005487879766,0.7502238842941272,0.849093143769602,0.8923820944324546,0.9014136776666247,0.8802962099965534,0.8103259743111126,0.6240449569285158,0.22902225784103417,-0.18022925799612022,-0.360256070464363,-0.3759137377104386,-0.3003670015946998,-0.18420462979167196,-0.10048863602942598,-0.0924779457127105,-0.15007212921984656,-0.22336382673004393,-0.27111582538252643,-0.29065658333557426,-0.265478958862535,-0.1699443927039017,-0.0017478428348224999,0.1904895362406358,0.35356545536890777,0.44903662469817385,0.46782669159525886,0.4326539255569996,0.4078904791796714,0.4328388351504617,0.4803683057185214,0.5117963316883264,0.5185477159663688,0.5067714338552666,0.4630568931457042,0.34721161800859607,0.057936156558612985,-0.4637519960704981,-0.7975151906785011,-0.8746738841975273,-0.8804257452638362,-0.8685196631498913,-0.8460122069147428,-0.8028241435261401,-0.7121297627248357,-0.5080429927129506,-0.08546988759041836,0.4127298642443998,0.6832836118772944,0.7784608037840896,0.7931473824600406,0.7549768765696279,0.6428267856912393,0.42192768180413326,0.19562924339411242,0.09022360455220678,0.09845922307001548,0.1799183378199863,0.2831874336186649,0.3452415969400825,0.3296700254054279,0.24753118227144674,0.14213969591455955,0.05851221567672622,0.018411734516590172,0.033127172612467885,0.10581198406104089,0.2117353401646262,0.3055364233463463,0.36428200611677336,0.39640332030540537,0.4141320478485064,0.4172842874560737,0.39107094362505,0.3291234818742835,0.2485158820247785,0.16324584865980712,0.0643527815311107,-0.061405642319833725,-0.2045626847575586,-0.33182511055197345,-0.4164073383375108,-0.46293387202882624,-0.47934764463525303,-0.4654141912744789,-0.40829252525253223,-0.2884678482049171,-0.11392718943975241,0.07352917326281475,0.24502364378167846,0.3953266300144243,0.5196020982797706,0.6096354594944097,0.665193433319215,0.6885308517247634,0.6738619775625324,0.6205599265929175,0.5313215676242293,0.40969666071798977,0.2554139597327139,0.05003073648918072,-0.21676132941126317,-0.4468106283486679,-0.5582094549858315,-0.5752820106731171,-0.5290693551474897,-0.4215893701617753,-0.2686718213262176,-0.08572683567354591,0.09892840692139852,0.27970594503367285,0.44392388782671816,0.5709558878930949,0.6651756286446513,0.7326868912616743,0.7771076807253882,0.8030543679995743,0.8095032139703283,0.7724320573243526,0.5904932765777506,0.0472288261874814,-0.5200025630343181,-0.7411630357495317,-0.8151042013124131,-0.83814589128847,-0.8350851209757509,-0.8048482533794815,-0.7346396876596495,-0.5971491924874254,-0.32969281122088573,0.1314032709539612,0.5328985206535283,0.6925082184090662,0.7378075363678033,0.7360482581419038,0.7052938163719294,0.6533829169691975,0.5895117932645779,0.5414228363353227,0.5432870288463942,0.6039137008746949,0.6694781631324063,0.6879981431838326,0.6488300486217368,0.5569256064934007,0.44530672404122035,0.36381186139804045,0.3231185262549573,0.262539969205197,0.1286910688562371,-0.08807191003387069,-0.3128883017257677,-0.4601758668330448,-0.5173620397725687,-0.5091362638113152,-0.4728542704200163,-0.43043083496366286,-0.3929533312103916,-0.35655613596649044,-0.30756444801606175,-0.23074930639692004,-0.11275895689514266,0.016812366559684634,0.12269191633999081,0.1836748963532277,0.20222543470557083,0.2028726776274786,0.2020602937826678,0.20625955973005344,0.2162949570118346,0.23410135289110295,0.2636682519173655,0.2946159923993794,0.31303321099198,0.2988873595854205,0.24018558894366726,0.1615844597242369,0.07625689011907898,-0.020429137145297007,-0.13892672349369978,-0.2753333344465032,-0.4092858796560145,-0.5152433132802174,-0.5714040566577534,-0.5665947288424245,-0.49745358952859126,-0.36549511510295435,-0.19054523812712415,-0.046321276081488776,-0.005421467318574022,-0.049619467646501464,-0.11608319193440932,-0.16051949164355786,-0.1686081240142014,-0.1506828453044326,-0.12822064199927843,-0.1184961680014678,-0.12156712593576569,-0.11825114347916713,-0.08752954045409515,-0.03426531522031185,0.03308230048602789,0.09405526155263702,0.1209870936026925,0.1087404727522497,0.0892764768242674,0.09984658492341926,0.15108808616922034,0.22515567048003657,0.31431601950257454,0.409363449406266,0.49511103943346046,0.5575931748114793,0.5947534829227656,0.6181101404522128,0.6460838707877331,0.6869311437488773,0.7186148472045474,0.7236201030654227,0.6925159173676175,0.6014809768935121,0.4126982307661647,0.14365981209226678,-0.08329191825729616,-0.19304181693826789,-0.20740222890065665,-0.18374890361994792,-0.18111913962296255,-0.22463803392928045,-0.2897437111114011,-0.3294289132752145,-0.28902948342657603,-0.19236162863262724,-0.1471890933274129,-0.19172997181822354,-0.29455038180816623,-0.41697906502696236,-0.5235920671158422,-0.5886019507251578,-0.6057507099554243,-0.5783349114126777,-0.49573297580679987,-0.3400709696825629,-0.10489762064395625,0.174832138642616,0.40226322971823225,0.5381151702335322,0.5929389584823762,0.5793710893414391,0.4926123938293317,0.297748286606938,-0.01954117935240549,-0.3161692151380965,-0.4681324494281272,-0.5111205606505503,-0.4984482565512955,-0.49911040201975443,-0.6038576803266746,-0.7710022113052318,-0.8796821376949784,-0.9245893902735846,-0.9345292643204013,-0.9080609930984687,-0.7838608102821251,-0.36350449583467304,0.1522790780698349,0.36215411950413323,0.41115054928319916,0.40744760619977705,0.39056854282827963,0.37621645506702783,0.36782171772402317,0.3475793110754522,0.29882981320787344,0.23462481276938393,0.2064263856719847,0.24247785539668004,0.32413631535891085,0.4019600974415439,0.42586949028375054,0.38467705565125415,0.2712650180453513,0.07076716651009053,-0.1999672281623714,-0.44127233978796476,-0.5875613854471908,-0.6536670740069658,-0.6675478312102613,-0.6390479167636528,-0.5302850660741957,-0.21134329696574933,0.3599139644738143,0.6966710258351114,0.7885502464806329,0.7985921440911156,0.7820096920238492,0.7569939285187095,0.7370273993665722,0.7321963108858066,0.7325268060752774,0.7182203726202908,0.6768159070521014,0.6205180016449843,0.5840330434849017,0.5864924950875893,0.6165698324318739,0.6443971966736147,0.6528843957541617,0.6460982957432737,0.6259012826237281,0.5912304296033778,0.5474779335900525,0.5034164990680519,0.4696572059745689,0.45380663577434976,0.455331200766252,0.46198315762907016,0.46922900279014973,0.4741100521085481,0.47303907918328486,0.4578701928425809,0.41653335242931216,0.32565249868715346,0.15627608363815515,-0.09512261404028083,-0.35474932857619224,-0.5402032605204028,-0.6419377933248596,-0.6780950322011504,-0.6521267798335337,-0.5706439196998474,-0.4561826839522337,-0.3427298936773114,-0.2656030335189985,-0.24649059404503842,-0.2802995527679377,-0.33547281719209043,-0.38722280038409435,-0.4239602820401809,-0.4411385056589728,-0.4384534599533985,-0.41226430056648383,-0.36129614114286024,-0.2996378219605925,-0.2424379232670856,-0.1843797568906524,-0.11235019063935073,-0.015366936245261214,0.09714975627537123,0.17012556109955118,0.1329535618779476,-0.036080224011838934,-0.24695822136318427,-0.3933630213977613,-0.46433475342595654,-0.4785434310556565,-0.44139426439279694,-0.37737318473364945,-0.31359696705275314,-0.2553296810475804,-0.1846982574600381,-0.07813998370559712,0.06410455270726233,0.20661502020620953,0.30914630543572813,0.36982803329333064,0.39650534475714033,0.40517664778082557,0.41123109094906984,0.425983569460797,0.45322195069696336,0.4858883477031434,0.5020668572081306,0.46705279321903886,0.33096889492788456,0.0560477832895712,-0.23045617883656844,-0.41779438827308957,-0.5285012903259951,-0.6006046480127671,-0.6484638295743104,-0.6755947690913444,-0.6761639534914353,-0.6358579347432816,-0.5112112633137421,-0.2576070290781361,-0.020100503258018976,0.07424174036125387,0.07349714248208183,0.04205863473433785,0.03697980090122049,0.11577068662717092,0.32097768532896803,0.5872004320440186,0.7479855046189294,0.8033335596101734,0.8080061725214356,0.784555840078429,0.7332621949969691,0.6359366157468187,0.44764948176124025,0.1529792118140472,-0.08913765042476308,-0.18849049372495308,-0.21194775041792197,-0.21483752982012283,-0.22098145684093035,-0.23704211614189946,-0.2680119120621411,-0.31365558031886637,-0.3662684400482186,-0.4161499781705295,-0.45200922666114773,-0.46379853672563714,-0.4526378688755859,-0.42044048621713775,-0.3632459890669223,-0.2826445764960322,-0.1800790109706283,-0.0399445566864382,0.19558330704537594,0.5284123320935598,0.7567423455221024,0.8433639944773333,0.8672961366085993,0.8643354560692196,0.8443128202888657,0.8059998159876991,0.7429971852663814,0.6366141969443688,0.41954975818667845,0.04447268947990822,-0.2922568151687541,-0.4776379942951081,-0.5791581830013255,-0.6372106985774152,-0.6681886907397513,-0.6789500676166402,-0.6693452889218993,-0.6421652186901623,-0.5989261075699989,-0.5432659618956596,-0.48179933044175705,-0.4196595953144609,-0.3723931684424676,-0.3408809225801982,-0.31371292087338903,-0.2834874822998238,-0.2362522650810676,-0.17300098716970255,-0.09813505682487997,-0.0064890259930378055,0.1283724106090671,0.33653394904325085,0.5689580461348691,0.7372455340372511,0.8009045526519236,0.7748363809905299,0.651241275858787,0.4107452046794404,0.10344284004451997,-0.13144104758506472,-0.24761993458354545,-0.2566554695723044,-0.17288367435044896,0.024082599062407464,0.3352017626662817,0.605850771241898,0.7364519963109415,0.772374939765521,0.7600772495719742,0.7068445642569944,0.5982711049104112,0.43299206147716857,0.26650427122271825,0.19800430524047163,0.2479471656494079,0.34639330665724594,0.4208476110280925,0.45617563942249545,0.4409441104612975,0.3328340053851579,0.02755570254333962,-0.45893392104760494,-0.7597787218389898,-0.8722415697704866,-0.918564873543325,-0.9397610310511337,-0.9431548885021892,-0.9101860738237967,-0.7841583106931317,-0.5365803133534593,-0.27864204969291534,-0.10041442469346198,-0.00410375575851454,0.05310011082917107,0.09450306755339706,0.1293915828843852,0.1661461868904292,0.20563170408146403,0.24956198437418287,0.29125888565723274,0.33203342021630294,0.3829755388343072,0.4556558174259046,0.5448958947247692,0.6321639879207052,0.7064785428664702,0.7642736395684154,0.7994069230070532,0.8046869109552567,0.7830570898968044,0.7405529086880395,0.6784998181897323,0.5843493136333782,0.4168055005429667,0.1688519056110102,-0.0414053089357111,-0.17737799348941843,-0.2811399937109613,-0.3508682298855997,-0.37803769659066916,-0.3740476491620752,-0.35196856678701866,-0.3084259965327231,-0.23455753492974285,-0.10999290709362534,0.08057128566281369,0.2759499995164319,0.3990499779482613,0.44031815988044826,0.41349262052499736,0.30962694337730146,0.13638624682557438,-0.0474341357735476,-0.17592463870222438,-0.23987291300152638,-0.261052998777207,-0.2572983255591251,-0.25139703533037167,-0.27238449661984715,-0.3244084961119295,-0.3893804194861036,-0.4340853286401964,-0.43978189960700353,-0.4028615328729115,-0.312182735408046,-0.10334313422890824,0.2994452886232366,0.6456034316586069,0.7615664597934438,0.7880909670504241,0.786796903179456,0.7618968892573217,0.7040653321877877,0.6177556612487847,0.5334459556512101,0.47916683643667485,0.4482209830211519,0.4225532863206076,0.36911034689020394,0.24562984677683475,0.005283158133592478,-0.34856605021772313,-0.6742571601503589,-0.8461588551760603,-0.9061848623035479,-0.9079951807421672,-0.8600829814369496,-0.7402522571616451,-0.5530873374139463,-0.41251935035591797,-0.44401135033102435,-0.6622071908164727,-0.8505434014102096,-0.8927301991441035,-0.8534963335260648,-0.7343829640496333,-0.4690203140279461,-0.0932999439498502,0.1751169785042608,0.2676168064186492,0.2589631613033649,0.2188729011957735,0.16924252879596582,0.09036525979016763,-0.010454398211575544,-0.09703655505690953,-0.1250090905898154,-0.06506392866513697,0.05649252333198568,0.21277062326356463,0.3823359342358617,0.5353704038559025,0.644724073236794,0.7101844383885344,0.7339703915170429,0.72629950306569,0.6957917808623476,0.6454630849820471,0.5828216032317716,0.5233163188172664,0.4847740442215767,0.47197964552632893,0.4589162816250348,0.42536839248930075,0.3823977679374803,0.3411355099654635,0.3007664493678042,0.23135433976433178,0.08171959957818788,-0.15293243952095067,-0.37038416316472805,-0.47911727640419177,-0.48913475561835396,-0.4381375183730706,-0.3405482955571706,-0.18840256666837044,0.03865006441135429,0.3320346522693869,0.6088794807677147,0.7776262590563688,0.8318842645665359,0.8108423056193774,0.7380835234183375,0.6291355907258228,0.5101512564001697,0.4144090403815226,0.35110140039489846,0.3129401359250861,0.3002394975616023,0.30012783340201027,0.27711836419979385,0.21229111742330706,0.12497012400091326,0.0022071539973228145,-0.19276725461201935,-0.44985364533246275,-0.6852181165679759,-0.8309650244037677,-0.9006399860988078,-0.9298976086661603,-0.9393867268186202,-0.9360121339454397,-0.9168093496453821,-0.8625446829810105,-0.7138018788112758,-0.37814652226101875,0.015976535206068686,0.23530161012360018,0.32204853060151534,0.34863659815102926,0.3577302852459584,0.37184458684384863,0.4026595606098003,0.4411378549458877,0.484420334482727,0.5296543701650335,0.5653287011388214,0.5919363378969122,0.6079061441736309,0.6083092109161881,0.5880853778771339,0.5530976515077282,0.5187869097805686,0.4991220338912331,0.4873933612843286,0.47753421108022387,0.4724916284817401,0.47465428969628526,0.48614496893741094,0.5084441724301514,0.5358118921494461,0.5616976192949261,0.5743529796934042,0.5673521712618673,0.5656422880809011,0.5928986524063644,0.6427953814417469,0.6808995849771443,0.6859951315619786,0.6244731365517422,0.42343302782978187,0.06751658959927685,-0.26461955899705136,-0.46012815952028263,-0.5397559051461465,-0.5349089157716418,-0.45035796591755695,-0.29063969055425803,-0.10396597322670446,0.054123734179467003,0.16226287285160237,0.2303841715400986,0.28617049814665674,0.3471629229349064,0.4136931114128308,0.4708371742400644,0.5025008624228968,0.5062210188521007,0.4867765785775976,0.4460095388757854,0.3734930496531041,0.2557251833151602,0.0875028487638149,-0.08868264175709395,-0.19662282605050754,-0.19152591175538933,-0.10091243229383084,0.033795603416721755,0.15378870062784836,0.20491439862568558,0.1430296768301416,-0.02799581524124658,-0.22812765295560047,-0.3768499483385412,-0.4596541379009219,-0.4833405953531617,-0.4353006869715149,-0.3177748912431434,-0.16217065405153724,-0.007578466725609151,0.10229430917809566,0.16103954338013746,0.18078366798865123,0.16799686302038846,0.13319135508763474,0.08585162144527675,0.038035469725642645,0.005003445517018382,-0.0014795260874703013,0.01409956566149454,0.03976396336991307,0.06593714366798106,0.07724606828404541,0.07412992266634273,0.0627421266302021,0.06433267325578076,0.09711044513414836,0.16801704681588464,0.2625272162053799,0.3595382252514484,0.42683325414162154,0.4495296024338507,0.4199486046780604,0.34667958680334493,0.24772296514918546,0.14518916330513215,0.05841740177622927,-0.022908794221340834,-0.10791068127986175,-0.19521373583295237,-0.2716417045787358,-0.3265476378597575,-0.35255917574460033,-0.35124947115709665,-0.3262345853005963,-0.28618278934743674,-0.2464997103007248,-0.22585752979289594,-0.22486696081896787,-0.24361394368848546,-0.28235410328962895,-0.330866122552379,-0.3900707217170048,-0.455648472734487,-0.517365748672804,-0.5627143996030048,-0.5782257527459839,-0.5664280388394026,-0.5384407082880164,-0.5041318290620506,-0.465188849204932,-0.42368575159121846,-0.3778696571069468,-0.3261551259108642,-0.26010505917568455,-0.1631202701675952,-0.015502792600274087,0.18914585698466915,0.40060685463901485,0.5690881418720094,0.6768278281742763,0.7384984007875449,0.7639351050333567,0.7563404524853764,0.7257797081863723,0.676362097312011,0.6038477190620216,0.5087757810943583,0.391069875022194,0.27312965272432255,0.21087250898393273,0.2411368444763233,0.3395155229168645,0.4436102180218053,0.5122106895637908,0.5293304113580637,0.4732041870099788,0.30997190257426604,0.011684111382321125,-0.3320770719360497,-0.5563375714164943,-0.6340496783803773,-0.587052428903326,-0.3480278225407639,0.17038472428589338,0.5860135387930889,0.7352267208959136,0.7648039125788303,0.7378355138868132,0.6822654623572735,0.6235640429060124,0.5777790846810127,0.539294158331684,0.49000704250449184,0.41315910652422355,0.308229712189406,0.18293688440578462,0.04892313347533105,-0.08443784906680799,-0.20288676848682502,-0.2878963558485597,-0.3319846316934557,-0.3354832711240451,-0.300589909511545,-0.20020268643418407,-0.007368749692151413,0.2488339139527281,0.426821904487274,0.42190132681655945,0.27885369272993216,0.09542765988560899,-0.05747020390548279,-0.1699160161184847,-0.2509706093953466,-0.3029801442238175,-0.3395707954960401,-0.36952320562323404,-0.40335528202186044,-0.43782596612589764,-0.4622594468029499,-0.4618623043941573,-0.43154114885555783,-0.3651395278346695,-0.2646532653313251,-0.15719599289873246,-0.07653246908110865,-0.044614536826715956,-0.0738525112226405,-0.16874318832071603,-0.2723577988927864,-0.32940849548908413,-0.30107588136811514,-0.1639895494327475,0.054245410056366836,0.27478876802185953,0.4445057453739221,0.5354053599665477,0.506074072965429,0.199215081822636,-0.4521076187117729,-0.7866277295078478,-0.87703141796579,-0.8867886772636137,-0.762038375627423,-0.20553485358719886,0.3947090859368033,0.636242133558181,0.7255929585307004,0.7397440844519088,0.6731885397613105,0.46707779064570804,0.138682427425257,-0.12053131090301014,-0.19957900903757364,-0.10237113269418631,0.12516441085870378,0.36293820338995325,0.5095418048488737,0.5624377355317389,0.5476002444666289,0.4958024127064777,0.43324270217155963,0.3644149380564595,0.27444423863211703,0.14034123429626935,-0.02921000179903267,-0.17832662410812097,-0.2595283777037688,-0.29439496123618947,-0.3371784923198822,-0.42148233767079374,-0.5244191101593788,-0.5752465211721771,-0.4901502058866526,-0.18622053682444595,0.1637896866317972,0.3693567517366358,0.4754911778292641,0.5312550152238152,0.5599053370951723,0.5644303306964056,0.5432747143257275,0.4840734275038323,0.34840422487749256,0.0366324650021466,-0.40753437524543323,-0.5972277341250657,-0.5912216998173775,-0.5036783246652442,-0.37584024773891445,-0.24152650039653956,-0.14173364361826096,-0.1074391880435075,-0.14032533667262082,-0.19970323913355142,-0.246374225500535,-0.2610768711488831,-0.2566675633646123,-0.2589607101057363,-0.2858091691901474,-0.32201562570438597,-0.35778745016940855,-0.3931350892249993,-0.4272192757988178,-0.45166973115779185,-0.4573046260297959,-0.4289930989949621,-0.3524768920854518,-0.23002299125845127,-0.07081828568765086,0.12031516786525574,0.29565888796550843,0.38766005196396697,0.33496306138270876,0.09736241567369909,-0.19081419111276285,-0.34166283816415194,-0.37063767632776057,-0.3422318818389503,-0.2828286513159181,-0.149786656460329,0.09089396766942702,0.3479099038314039,0.5010464761404583,0.5722624863706036,0.5941497491919894,0.5818806373712032,0.5400351722315652,0.4764156502674342,0.3993566736573392,0.31959587267698436,0.23908146312727302,0.15698744552700344,0.07320581430481743,-0.012735209794393961,-0.08527548234217308,-0.130481680581618,-0.1364434507921015,-0.09348007487743257,0.00019869540159071121,0.13395753792712958,0.28136120596059694,0.4083977466866285,0.4928185046997098,0.5423214471562012,0.5571380451073793,0.5307901906639628,0.47512636020771815,0.403330328196729,0.31865604367486533,0.2066706924803094,0.06634341746273482,-0.07573719799643355,-0.17834617128897173,-0.23731336052550558,-0.26000353750999733,-0.2579000739068498,-0.23013216832266803,-0.1646464795240182,-0.04929835401609335,0.11829964192989867,0.31587368332943117,0.4987623450843012,0.6375614277353824,0.72349203516886,0.7577720397298778,0.7423157637025718,0.6776904124655504,0.5642603707704059,0.4165907482138838,0.26421262413763363,0.1228831414842151,-0.014916552041286064,-0.14617930476277002,-0.2560262480851979,-0.324245871003193,-0.35048034852484666,-0.34430175143459935,-0.3218005998576147,-0.2834654365828491,-0.23124754089919783,-0.18572746515127253,-0.15864636893997527,-0.15143353422757266,-0.16459205717152078,-0.19401166209085874,-0.210562575359062,-0.19080797408766273,-0.10673332576895964,0.05775550614545155,0.27823739427163297,0.48340213863203774,0.6012524861177956,0.6186390483331954,0.5444683323224548,0.3551565574442346,-0.0009542794522891384,-0.4148275444582738,-0.618260769307632,-0.6355991266387038,-0.5352455183728438,-0.2977052768642827,0.097488367892047,0.4524972521948998,0.5999570828633336,0.5870653558632627,0.45507641190517356,0.2249916530557659,-0.03315529140828744,-0.22499359363279595,-0.33214204838232736,-0.3852986770993152,-0.4225376531293685,-0.45729693586359754,-0.487654643354409,-0.4876850224378463,-0.41983008007817824,-0.2840733330174071,-0.11987736946038109,0.02389964908403005,0.11145832236965529,0.12783919827983903,0.08805538417406349,0.027064466362067375,-0.011870036488317633,-0.0016513744404158192,0.0223869905649029,0.022349360137088794,-0.01919482950278913,-0.09367302175551669,-0.17263482921301934,-0.22855026490969865,-0.23974966152293445,-0.17321092286709058,0.01892361618905936,0.3018823423854095,0.49113763495971197,0.5516648408205109,0.5371128503915057,0.47972717005332144,0.3999957967040924,0.317586872580096,0.25123570950513147,0.2265103965980153,0.262347035336724,0.36139245112360857,0.49564382135272783,0.6125464996916198,0.6797266297184545,0.6604203114126478,0.40270553605746884,-0.3296448766549375,-0.7316629664208514,-0.8283244608227623,-0.8472402169170733,-0.8308625929675862,-0.7754895428296793,-0.6537282819103265,-0.44966001906597797,-0.22872192580384892,-0.06835018004633493,0.038674031360611726,0.1372650863829654,0.2706406755527619,0.4510572046157027,0.6001574460474488,0.6570271829929405,0.6798960001910936,0.7002397356709292,0.6844463342730277,0.6079335425813166,0.5103330018772038,0.429381279605243,0.3648033922302164,0.3166753731290393,0.2841255292534241,0.27373342475870427,0.29455768936784715,0.3361449678909895,0.38156632575037863,0.4200960740402181,0.4611611266823678,0.5111036581239808,0.5641538555065707,0.6037382526487955,0.6154412964565946,0.6102660812031531,0.6278618385861211,0.6667039410655909,0.7022303843558454,0.7229859247051069,0.7271695025321924,0.70603295413517,0.640498799184451,0.49796652087448673,0.22270720627995122,-0.10655900568239261,-0.27758443758009926,-0.3446783083208059,-0.39243523308814315,-0.43719324940049215,-0.441367940719191,-0.3760449932873575,-0.2907839513887084,-0.2720456687013278,-0.3626533195218346,-0.5130854996309683,-0.628142435182917,-0.6810790276216487,-0.707559073136226,-0.745564091984087,-0.8158426898786576,-0.8917269278790441,-0.9223165366976258,-0.9196875311048192,-0.915844125635249,-0.8984491754141668,-0.8506351575944987,-0.7756422369183714,-0.6949634068010405,-0.622825628818204,-0.569091507182569,-0.5242794409572737,-0.47240005622556674,-0.4040992144240976,-0.31259282633216073,-0.20525484509155975,-0.10724915543312288,-0.04278078376005676,0.019683359611061733,0.12443217828832805,0.2751856191719898,0.4335365072843515,0.5565406368303675,0.6312051328836703,0.6648882498484863,0.6559618865334432,0.5869615367952216,0.44683466331794125,0.2942039811341512,0.21781292945289094,0.2558521184659435,0.3619365861010542,0.459699908063856,0.5035338122167461,0.4880896954981516,0.4188915199584178,0.3022960335353602,0.1599487126730047,0.024587153802294502,-0.08303295013351207,-0.15954084928218165,-0.20015373980961684,-0.19670594946538378,-0.1397247304168683,-0.031570682998357275,0.09916786344970208,0.22470675339002788,0.32294499446609903,0.3862784366751861,0.4339276237794583,0.49208741771094777,0.5698898237910317,0.6449754617630381,0.7069218007101729,0.7502855517205727,0.767490078654677,0.7648965026405861,0.7462135322800536,0.710580054661094,0.6597346225958363,0.6062279751931821,0.5660892941662942,0.5362430700338637,0.5062469964871497,0.4725508803391569,0.4278233858350431,0.3552008959191056,0.2387156773477019,0.08631580395474447,-0.06356553832950565,-0.1588526321933569,-0.16783123486843762,-0.09878514189145574,0.00437286952797246,0.0947755117270163,0.16088372732362138,0.2084139779206638,0.24459865385133428,0.27141171484042653,0.2732492817071183,0.2222107398925338,0.10202639803999908,-0.08315830697999367,-0.3150916129241353,-0.5544165902599429,-0.7230175691479878,-0.7978916246968408,-0.8283080178793705,-0.841152835099305,-0.8358051365997746,-0.8007836139522362,-0.7260089449115894,-0.612662485881042,-0.4698690280219765,-0.30372662221717456,-0.12433676800612324,0.06072649928368607,0.253332510611147,0.42255734061139216,0.5062280740455404,0.48868104499862913,0.4188163504564493,0.3701681596152933,0.3767112645971924,0.42639691695583803,0.4830453547059361,0.5213927409662422,0.5312705992746278,0.5053232339672724,0.43721376524978967,0.29384850334717877,0.01623586029132629,-0.36922557650999055,-0.6569279289910368,-0.7788465199476045,-0.8053978847182092,-0.7873564254848033,-0.755775295742854,-0.7283342149889326,-0.7158836218529787,-0.7259308823680425,-0.7472473006263839,-0.7659874073953142,-0.7675531379440632,-0.7396705627829383,-0.6714563563540988,-0.5419181525458269,-0.3359115174391311,-0.09669263482705763,0.08353883630840471,0.1608634590349536,0.19069640959208198,0.22259624292574806,0.2854656249249422,0.366828881157835,0.43208542377994896,0.4866346177582763,0.5526334068290636,0.6357579037621608,0.7143670043119587,0.7651579509340192,0.7888903576328267,0.7930466039686891,0.7848865899955926,0.7730284390346664,0.7628514481605396,0.7510090443426375,0.733730241977162,0.7052261533282815,0.6636364716299992,0.6089109108364064,0.5447532094368984,0.48005282785854175,0.43520208408989475,0.42430942899359253,0.4345407525104934,0.43634343521572666,0.4156599245925766,0.3671896803970155,0.29035385589889967,0.18676203031230776,0.06356823180856847,-0.08308127583102382,-0.24178127953573628,-0.3744706844422692,-0.4482374407687795,-0.4564691274231539,-0.4123663698915789,-0.34159646782800673,-0.2763493782469298,-0.22112426375974045,-0.16349753943903012,-0.08327637557811325,0.028718683709962268,0.15263060654989874,0.2149971950650285,0.12967211238438237,-0.173563231217988,-0.5944683637852786,-0.8277143132044141,-0.9022147720948256,-0.9080994462480203,-0.8462910727485312,-0.6044114002445398,-0.054379455387765466,0.35928223078712007,0.4941995650848838,0.49383605732088276,0.41227261612141947,0.27433548151679366,0.12820391693881916,0.01723277869608029,-0.04900887628445079,-0.07705239165291485,-0.07298891780223064,-0.03874474734244748,0.026900257051165933,0.1335267789405362,0.28877008937802,0.48253998894680106,0.6733236294039887,0.7996607355497749,0.8204597545523017,0.7636640086755421,0.6754049143786257,0.5621501277854831,0.3701911981940163,0.002264000409740975,-0.410593060556018,-0.5659467200492201,-0.5330469965321354,-0.3640815368508384,-0.04896059889156024,0.29118662325302497,0.4659177146135634,0.4850236849510676,0.4114832379584698,0.2770870855196066,0.10493050589789703,-0.05625842645149992,-0.1568522921663426,-0.19114363085525962,-0.18311782130465176,-0.17976513448910175,-0.20770999373196566,-0.2722271358214437,-0.35793376876953287,-0.4359437516251714,-0.4767313728457469,-0.4501664109810744,-0.3332056115194978,-0.12198301077150348,0.13315838017740056,0.3316852560704914,0.43508205183808674,0.46999027417301104,0.48550075531830295,0.510491142171417,0.5517962951474211,0.5908613035762353,0.6128206001649193,0.6054163841173921,0.5474029123329751,0.4147051232876242,0.18443115557512743,-0.11148158044131572,-0.3689608967123736,-0.5350523148662922,-0.6331682691542557,-0.691635720611896,-0.7193792422399755,-0.7286356327912288,-0.7307480991857374,-0.7277679499321429,-0.7164365420853519,-0.6855592503577611,-0.603773709911546,-0.4266927870357015,-0.1820509654154807,0.03964260221261483,0.20182231458395503,0.31486433810770353,0.3873118456817554,0.4183060198724095,0.40571534467210624,0.34346922842134503,0.2364078268002037,0.12246345925762135,0.05670554743672582,0.05178638374130236,0.07510833559660392,0.09485566701236882,0.08288434845574727,0.018698874838552728,-0.09279859422303523,-0.20944080897546563,-0.27300842130007125,-0.26019943830024284,-0.17955736379475068,-0.052004386791349236,0.07864466125747534,0.15035238946802684,0.12149178185477466,-0.007487556774512264,-0.16687076125050307,-0.2614813100922437,-0.26048681120537376,-0.16249606520274554,0.03685829767214845,0.27748576948760595,0.48256369467452453,0.6252679507165945,0.7245897893136496,0.7865365906625376,0.8108714321496086,0.79441936924297,0.7309179298177354,0.616594601211514,0.48163471004338126,0.3588762384064707,0.254907009821106,0.1625185854282842,0.07397660334106788,-0.013301491673255846,-0.09454098692314584,-0.158743187302056,-0.19214788312846826,-0.19249733245176906,-0.16400805501479462,-0.12892334722444695,-0.09048187888771658,-0.03618556580044299,0.037142953490726924,0.12007598854304298,0.18663058108732167,0.2183702775481584,0.21622618542651048,0.1766815622748243,0.09635260976805345,-0.017518663244204057,-0.14946357488718648,-0.26643181164672325,-0.325747775841776,-0.3282782536886907,-0.29297088943415817,-0.23222391477172435,-0.14459712295317698,-0.026933734165023135,0.09578462627812769,0.19570056360922705,0.261728296066104,0.28576289986444214,0.2836280117837612,0.2893610048911735,0.31998305818274136,0.36967477944202415,0.42386863530454577,0.4756943314442328,0.5134868905547951,0.5187225422851499,0.4756637664479634,0.37778505389560807,0.19261967024010435,-0.12057889534782808,-0.457468891703254,-0.650016431870849,-0.7253234370066358,-0.7480715082183393,-0.743976015466571,-0.7142320858477044,-0.6388922079746694,-0.45430611967812645,-0.0656744775875366,0.33718851970176683,0.4645617428919708,0.3524613007819937,0.052328795713298966,-0.26441663127324316,-0.4619090483187847,-0.5642454770381515,-0.600959699516402,-0.5702118195860102,-0.44032892430686515,-0.22355718047470885,-0.029570537956261942,0.08442917004337096,0.17953039621222902,0.29843077796836515,0.4204741656622929,0.5097778953657028,0.566336252491324,0.6398641520327383,0.7574256588685294,0.8397640737471807,0.8679981321656,0.8716304620723633,0.8593521986500788,0.8151423056864342,0.6354063102182119,-0.21172095084246506,-0.7976834095851275,-0.874797117873073,-0.8449810584572517,-0.6852946556426205,-0.2687111319791155,0.18308872904423876,0.3904424292296761,0.4363133043268821,0.40724861401232987,0.3573270667914236,0.3265194598394765,0.330342535726263,0.3554123572760275,0.38295927141616914,0.4138888354355191,0.4411667545928007,0.4527682222160514,0.4444359743916315,0.4218003307207064,0.3822841903286179,0.3261677229260102,0.28082087265642774,0.27075851073008156,0.2919668791387875,0.3251910077672306,0.3585851198362885,0.3884214716087174,0.40971072668075537,0.41957358500556907,0.4066267255483159,0.35903127804173274,0.2766974517273203,0.16892990065183042,0.07065359794757599,0.03446997497078611,0.08592634135566776,0.1903984884994217,0.29560057045279414,0.3570731513892033,0.3575431055480386,0.30042854313289485,0.19846608339110514,0.0701194109123703,-0.04645406672242448,-0.1399494254792045,-0.23553683348758525,-0.33392273435882497,-0.41456936214432966,-0.4560490803180142,-0.4391067495869097,-0.36742322688694595,-0.25592860559579955,-0.12024509504462555,0.011545304380150148,0.10024680182396278,0.1279005633215106,0.08396567939769693,-0.041939452386879766,-0.23918203253531709,-0.4263655806308768,-0.5263370882176388,-0.5440351987472254,-0.510356521486171,-0.43808701493163094,-0.344072745146186,-0.23526732775893314,-0.09734081408823554,0.02501335318734069,0.03840036057395242,-0.06136950772633501,-0.21048365398476462,-0.3374848444228467,-0.4047293745927523,-0.42127613575907863,-0.406015790954376,-0.37542067828341574,-0.346329646810375,-0.3204320703692621,-0.27819391152406786,-0.20219469260216075,-0.10103489621561812,0.010381189047417418,0.13146024208041454,0.24941039398955464,0.348185804223568,0.4168130494817679,0.4485815155449107,0.445675130722584,0.415390753642197,0.36729180792869326,0.3026191476602303,0.22428733262647343,0.13754996062585806,0.04982975233018102,-0.021805921236791672,-0.053998290028488764,-0.04726075507982292,-0.021534038887775785,0.013574788239322061,0.06242822130877218,0.11711853894909585,0.172365578238091,0.2146769134262815,0.24051441005550206,0.2456474453302392,0.23491796449358268,0.21429332389768133,0.18954064265382742,0.1636461100859055,0.14232858935949105,0.12584045149519316,0.12100765747036775,0.12964007453130325,0.13472771975066336,0.1017558461019419,0.018140441504470535,-0.12342706678634584,-0.29362389687828055,-0.43939511158863764,-0.5174960335206052,-0.5390354218549626,-0.5369396072486078,-0.5348830043675629,-0.5474053664604751,-0.5742012020824919,-0.6000790174308653,-0.60710371003394,-0.584048451410353,-0.5195845664536978,-0.40924235074150656,-0.26812522150303525,-0.13142739982463392,-0.018420991104640544,0.0952140769724854,0.23852198455316212,0.40493394701026114,0.5604661121870884,0.6714211829938602,0.7269028836062947,0.7282538609515238,0.6821243263325171,0.5986910379516582,0.5022248271159344,0.4279400617854411,0.39839522382083653,0.40636476194982807,0.44205749555928253,0.5038726228131868,0.5830779939678711,0.661757442062535,0.6955898743639228,0.6662620283522108,0.5601974438806638,0.3072215350664483,-0.1172169326660801,-0.4682398803510848,-0.6318746401554247,-0.6905933296103538,-0.7034783751328146,-0.6983981098249361,-0.6834759613213501,-0.6565656137901748,-0.6151521008571516,-0.5730426782598921,-0.5467454368414674,-0.542714504362862,-0.5612423094974552,-0.5981410635841262,-0.638435088909167,-0.6464944871706851,-0.5381155283136334,-0.24476750216572934,0.08656893690020176,0.3003316038078266,0.42104876267410085,0.4891214171345846,0.5209555742295009,0.5271613659596136,0.5219556205892197,0.5100175650832273,0.4767169716829181,0.404920021905567,0.2898946500562142,0.12921384948521833,-0.07581372219588164,-0.31772187476466485,-0.5709183766326047,-0.7652919645814618,-0.8610846777155257,-0.8916581944407649,-0.8852492006675601,-0.8482490592895858,-0.7661524468872197,-0.5915267422509948,-0.21603138573279448,0.33957380013997396,0.6955536076882619,0.8251124497111441,0.8620602446298384,0.8614191604841848,0.8406184154432,0.8084889417888748,0.769085907466968,0.7174154083509985,0.6036343727474289,0.2151339997086222,-0.3447368028994207,-0.5315393241707892,-0.56650399819385,-0.5460617446988352,-0.48217563462545854,-0.37533609584677224,-0.2539672233000858,-0.18624550064186812,-0.22337690207542935,-0.3533548937061828,-0.500997278827235,-0.6079120458447695,-0.6370546326741223,-0.4683932010423272,0.13965077995450512,0.6680095846698448,0.852147537658493,0.9107034371492946,0.9239772261019632,0.9169196928440947,0.9012093697394218,0.8835279083112098,0.8647253113913662,0.8473977421130702,0.8359678704382038,0.8285896612774188,0.8151214473697977,0.7799819206937393,0.69825930559613,0.5535648213154065,0.42440661443442196,0.40715970027489967,0.4654531109911397,0.5369960650901767,0.585617558351903,0.600753813018447,0.5769496143567787,0.48301194299953415,0.2563562910569071,-0.16346207942388669,-0.5654210123660958,-0.7534438276843245,-0.8180837049282503,-0.821831012653776,-0.7767563173362357,-0.6965343985127784,-0.6121038304787786,-0.5465827871703511,-0.48039251687120665,-0.3575082577125014,-0.1354370402419832,0.07806141051040558,0.19949776302188227,0.2569900217991329,0.2757677063999213,0.2747805741471475,0.2725316994827737,0.27840296293331085,0.2931888633501657,0.31968380359409737,0.35791481032120254,0.4020184666189582,0.43440667686168494,0.44617585137623467,0.4435224030369899,0.4392650906879336,0.4666357614945061,0.5485131656705631,0.651618533766882,0.7180196090276401,0.7307293184343682,0.6596688653772622,0.32206400449999684,-0.5021670068971482,-0.8133992298967533,-0.8714855886103646,-0.8810126746320195,-0.8680236898249237,-0.8221553519056517,-0.6995852653024226,-0.41891423374348036,-0.06632972558204975,0.11790675998058776,0.132330441222565,0.07331593604019138,0.013456697187094949,-0.010141811200549376,-0.017466658027165873,-0.05336277379452082,-0.12785279272972944,-0.19611715024238263,-0.2278957014300518,-0.21985187115761484,-0.18173567069612623,-0.12112887923099133,-0.04491857695785012,0.03231610362704243,0.10063044138629122,0.15191680833513507,0.19134875670143328,0.23503936744725173,0.29771647999479206,0.3844850760004853,0.45425114402289024,0.44101805318464565,0.37357214586042525,0.3203558813040156,0.30042202072791496,0.3140651179235569,0.3422978473761418,0.3896919256035059,0.4587914179203283,0.5383901199738452,0.6109329739749839,0.6539778109040424
