0.529103452468362,0.5051988051243568,0.47337226835659885,0.4423472540252208,0.4133279543807405,0.37352821154063126,0.3018417113322992,0.18203305935440453,0.038893879703587673,-0.09313822309064158,-0.1909957216323603,-0.2395596690033213,-0.24190110279160146,-0.21201248962792624,-0.19527773945847582,-0.22795902246048402,-0.31018477789144583,-0.3991942050730589,-0.47584146281249173,-0.5248657956919792,-0.5438629079262267,-0.5252100734257837,-0.46142897576376024,-0.3643893414610345,-0.2545346343148982,-0.14240132408668355,-0.04324538279353041,0.035793173986861056,0.10157617363948218,0.15741385684228743,0.21436388700431006,0.2844242190430967,0.3598353339696354,0.4267848859886467,0.4725552188427945,0.4886065468488623,0.4614746140825915,0.38211488525814685,0.21200830395661355,-0.09614353461366683,-0.43227177776020775,-0.6267040784798968,-0.7058236680958901,-0.7226819731322769,-0.6991637241643948,-0.6394043593333978,-0.5421767152541594,-0.40819374572675393,-0.24652283879225023,-0.08993398440025509,0.02862289965225194,0.10411064430259809,0.11104850029886647,0.023881154808253972,-0.13532562436133125,-0.26660197223447973,-0.33139558633129607,-0.34782283323020174,-0.3199431067974928,-0.23106011219708264,-0.03740475926105283,0.2338027243127065,0.47712737095316804,0.6282329238729005,0.6939820653044627,0.6951870179300715,0.6434033587548166,0.5515765516626883,0.4381297658573044,0.33686454057837933,0.2713622108086443,0.23949923375744078,0.23612018172494428,0.24802822212031764,0.25936474415479527,0.2612721644359609,0.24417537465592862,0.20194436740445695,0.13667242529495968,0.06945028279408659,0.025713987047100706,0.031079455109580767,0.08584896345177163,0.17528258056072224,0.29329087108784074,0.4168753472463759,0.5218365664157847,0.5766607618001252,0.5734838180236574,0.5023564418908498,0.37303185944295403,0.26654791847797354,0.29699486944704134,0.4383963444672154,0.5870667682750872,0.673720980650334,0.7068359912844215,0.6972233776395619,0.5985788823079865,0.23782476757065288,-0.4313263996858068,-0.7677251006713868,-0.858790545102765,-0.872448743886778,-0.8393339814709904,-0.7358169240952198,-0.5097423413765816,-0.22753146339349525,-0.10677329113048994,-0.1540917900207573,-0.22903845861538163,-0.2623343250487269,-0.26358288048253903,-0.2723668334349437,-0.32375132900965947,-0.42312747938990486,-0.5344453982282427,-0.6254678563082053,-0.6863755572668606,-0.7133905755067683,-0.6846672353110345,-0.5752140287606899,-0.3904192642971061,-0.20673367106507468,-0.09247381522598862,-0.04471054817622233,-0.016404704980787752,0.03312286046661299,0.09786805848833463,0.13250896228991013,0.14498014461696887,0.15170277190491477,0.16041288446072638,0.16237553122291698,0.1438561737648202,0.08974213809660114,0.01759121884337619,-0.00662483844238466,0.05173690261986264,0.15061035142336837,0.23927967374492815,0.2971650134005968,0.3178677648254661,0.31417142194114267,0.3065074191942133,0.313609728972847,0.3483782807317315,0.4105232902280918,0.4770735495478415,0.529226401191385,0.5636598094310254,0.5902828105006084,0.612444128149039,0.6204940826485622,0.5975811876452671,0.5206639984404772,0.36687992175489276,0.16074459533656135,-0.014738653042910622,-0.09682479398231122,-0.1051362834834722,-0.10165126454513204,-0.1217354630219241,-0.1581387517871349,-0.16353798485733156,-0.09594500305331978,0.044384756408656204,0.19833751988825196,0.3259960282207319,0.4245723424110115,0.49735064074320606,0.5401497565561765,0.5579264598524079,0.5768874022050438,0.6242694020667237,0.6915062015681562,0.7543145336819224,0.7982725374954913,0.8168293344413423,0.803947814857758,0.725696191713365,0.5420004723739748,0.25830245029273086,-0.05343495476519666,-0.3117849314433724,-0.48293858901182657,-0.5764559764768804,-0.6091931691422682,-0.6027279570719958,-0.5969970907834569,-0.6298195639425689,-0.6950039204023792,-0.7544810151719286,-0.7929540221606369,-0.8128046740710017,-0.8164534978207654,-0.8005524903352607,-0.752615664545567,-0.6689491301516565,-0.5984295534161448,-0.5702608629756415,-0.5668037192820874,-0.569032906714594,-0.5651309303003572,-0.5329153005081398,-0.40836633471029365,-0.04302360056584094,0.4153515293698309,0.6108824388057188,0.655502014470296,0.6361113467272382,0.5880309921257231,0.5275182149225085,0.47458710064909676,0.4463640740623312,0.4454002276631685,0.4552418965359147,0.4685382243292912,0.48984939198895155,0.5187103417819099,0.5374014195742705,0.538066276450832,0.5232291535170429,0.5005650352590872,0.4737692314965643,0.4439466047245266,0.4110734942634368,0.36919729061356954,0.30646496826014896,0.23020059448357538,0.16717620283095025,0.13165050907451775,0.11560659753957125,0.10873003353501982,0.09336950294545937,0.05441555496671003,-0.02746365581275691,-0.13085522821979184,-0.2197993587814397,-0.2580436193469089,-0.2346328112252061,-0.17327003886366907,-0.10440961543354883,-0.03900802374635767,0.01786404982542313,0.055342542364164554,0.05697969175644844,0.0160266575202493,-0.05761348691214421,-0.12072366071296163,-0.13395715695118524,-0.07894170821358698,0.03360318027581909,0.19004971752989192,0.34799875360333393,0.45291614790520957,0.49133434659043934,0.4787565084583405,0.4453715007547716,0.41309255236287623,0.3808044807740985,0.3101755613658541,0.15305300650386125,-0.05237249765020253,-0.2208084904456153,-0.30152239790222113,-0.29398939400411234,-0.2080815480595359,-0.0879269088528417,0.025733875742124004,0.12761420253194022,0.2358846838905073,0.36014975568786656,0.4938217020846799,0.6051492450590581,0.6697668260239465,0.6863878202112198,0.6680922921266251,0.623610102644436,0.5579289737038274,0.4798151886724453,0.4153031283572932,0.39462187103280305,0.42752056834588703,0.4949351661703613,0.5730412155930951,0.6309915986916825,0.6381825993179161,0.5562091260614836,0.2863446467312831,-0.26561330808986244,-0.6625830803872355,-0.7816010197473671,-0.8055625328846839,-0.7997228162845892,-0.7793205853057591,-0.7413460483852921,-0.6345197799522239,-0.4113113269893989,-0.22488943906858044,-0.13873833893030824,-0.11130635871708364,-0.11322801976953142,-0.12587109172608774,-0.13286015741826016,-0.12352278559342636,-0.0914669049570886,-0.036823062982965366,0.03705531768737162,0.13033170013886872,0.23765189543482987,0.3475879892871449,0.44273983877036166,0.5050408184739656,0.5158291512453741,0.44999441315119526,0.2776898358383394,0.013618823652352008,-0.21273580411590154,-0.3236713357735137,-0.34278570069094555,-0.3071605435091897,-0.2542554643221753,-0.21463508501320896,-0.20299342418858493,-0.22324842388751734,-0.27104012223293616,-0.31916606841668776,-0.341668106077134,-0.33517174967569796,-0.30258436136613226,-0.25004016542568425,-0.20822540357197775,-0.21485400992235476,-0.30908816208934997,-0.5082983287981716,-0.6977162780690089,-0.8011175917172012,-0.8443110846111128,-0.8523676027183954,-0.8277254076563674,-0.7475709171859571,-0.585642329450255,-0.37688327884542255,-0.21224765535696286,-0.12676753815841493,-0.07650508012988651,-0.014213459110208443,0.09271045065756571,0.2461222569728455,0.4051672242736575,0.515945761572612,0.5651311703515995,0.5649721927262836,0.5193323684738028,0.41113010874325745,0.18205407213508737,-0.16932335153234226,-0.4038412479333362,-0.47434279958614856,-0.4605328621678768,-0.40494502935783294,-0.31991284686854593,-0.2019811985600891,-0.02509251186053636,0.23820162357123495,0.5022840543784444,0.6718185193701501,0.7712604265760118,0.8302875741360668,0.8633494751877283,0.8752715207110245,0.8653881473089564,0.841621316369533,0.8138741377335215,0.782857045392541,0.7299355866737903,0.6034214892389841,0.32325918127846986,-0.006307438088819279,-0.17240516750358384,-0.19064155893021817,-0.13230966138210362,-0.04610593225772939,0.03336345360641323,0.093426758334884,0.1539889501718256,0.24640457810145008,0.3729854752622376,0.48447277652463144,0.5488088744411481,0.5658705954835033,0.5550501709379908,0.5446374594798498,0.5411933152981713,0.5386524616633093,0.5229433160732884,0.4808701014968495,0.4142495157353716,0.3337506015623153,0.250151035216586,0.16962132164025584,0.09486283070952747,0.03298069902715713,-0.02950005422485958,-0.10681145169395688,-0.18819060846289928,-0.23274236411786836,-0.17403274155927725,0.02318991173199817,0.27690959149929945,0.4369367945941734,0.4631412733838444,0.3502661702090111,0.07007823832817063,-0.36129497118742765,-0.6943391844996145,-0.8219795626020376,-0.8537561609234406,-0.8434964819977925,-0.7942469154485017,-0.6700894617208063,-0.3668519013795385,0.19917945864229814,0.6516856293803469,0.8147698058380651,0.8544626035329974,0.8486504866685239,0.8009933713112589,0.6745857976016967,0.4459730593396133,0.2143234362839315,0.08222412288556613,0.03920674826111486,0.030396750702265753,0.02172798860353735,0.003674692548254983,-0.00601517193932085,0.004944838373619197,0.03422886397830784,0.0606305495214919,0.07579332715416061,0.06635504139450243,0.008386182365003847,-0.11090827993747375,-0.2565649598785002,-0.37685016710604524,-0.45333301140206245,-0.4893874423243422,-0.49411168835547153,-0.4730521836785017,-0.4254976059107978,-0.3480586224142964,-0.23862372885548336,-0.12769572607571442,-0.06479089348102086,-0.044800413860641305,-0.010394723015481755,0.0627724929388081,0.1408991579587948,0.19100839186865481,0.22925094606118754,0.2775443570242781,0.3424199357308157,0.40381433047434173,0.43679363297005075,0.42671220439956686,0.3621053653047387,0.22394075464223298,-0.007612283951684753,-0.3027266964289281,-0.544949507199711,-0.65921923635952,-0.6642954113303884,-0.5810146647825457,-0.43363519716579285,-0.29168421095275215,-0.22296173680450768,-0.25992221129195375,-0.3751702498989634,-0.5061831434395244,-0.5969817621520364,-0.6372567989456175,-0.6356748045518162,-0.5959843958046344,-0.4875351592581968,-0.21198194609013374,0.26834360954269193,0.6152871791044696,0.7293503687158851,0.7415886154024455,0.7183791133633174,0.6958584451560205,0.6806858317667028,0.6680560351399785,0.6450796669744708,0.6039518543117753,0.5547298599023456,0.49800146733352413,0.4202711047934592,0.30583802409924743,0.1762947607350416,0.06789707463165107,-0.013204444053171517,-0.06360269173402393,-0.09409711917601114,-0.13563701752605442,-0.22322150514191422,-0.3677822337175393,-0.5330430514153616,-0.6564008991016651,-0.7282800395354295,-0.7627635890154236,-0.7657468839928105,-0.7276959421633185,-0.6141402584973611,-0.3447933207624897,0.11513728598351566,0.49832322632198356,0.6633976759976867,0.7289079526277449,0.7664472254546503,0.7974248735815954,0.8222193898673127,0.8381776381488504,0.8461062239265117,0.8461674964803021,0.8400362313058585,0.831384404542047,0.8250585446125063,0.819708814887824,0.8009432001660853,0.7142197784507542,0.3743964658568461,-0.2265391031222683,-0.5157151376790147,-0.5926918191042316,-0.5994472764532823,-0.5889329403780018,-0.5833265128021226,-0.5805940102423558,-0.5584158097018957,-0.5016653427183848,-0.4100793870780278,-0.2697295342284808,-0.07856736646132811,0.0900827107877627,0.19624816641717727,0.2657669485313614,0.317717801423001,0.36059771199857515,0.4000289080004066,0.4427755941683739,0.4804283332500119,0.5093747325248166,0.5366831647202841,0.5683763892089884,0.6101182991972475,0.6576573168000917,0.6983159576832166,0.7150945478700445,0.7080111603859822,0.6939185595617647,0.6859015974098328,0.6811807348269872,0.6674908278655907,0.6315765266990453,0.5513676282619944,0.39502542157179465,0.14754305165030082,-0.12885181013609084,-0.3454114674866234,-0.4764593877298282,-0.5494903647572331,-0.5983811877797994,-0.6386162772194384,-0.6739319461284814,-0.6882365659033889,-0.6595811345039357,-0.5746313993402785,-0.45593526738700846,-0.35604753364715597,-0.308493566828606,-0.3006882071523028,-0.30175409721292423,-0.29639229701503084,-0.2862089622673273,-0.27029157255575453,-0.24794365275041266,-0.2236308901892429,-0.20578374903169316,-0.1898374738733249,-0.1541533160359896,-0.06987225658261131,0.07354617962387923,0.2533150421640061,0.4246877267153605,0.5416544707685295,0.608647095081387,0.6480303616383959,0.666547674317891,0.6619782367485344,0.627694500830363,0.6018275530795018,0.6053837484483977,0.612828118719658,0.594239469563043,0.5119361580323617,0.3364789100224557,0.07644506643213385,-0.177978110588808,-0.3372714494636595,-0.3790219381533764,-0.29429465472168415,-0.08877143159327079,0.15789291535714675,0.30427573855880785,0.2781447148501755,0.06410733256642044,-0.2874907441108748,-0.5797557019304415,-0.7230492683865575,-0.7735010619063901,-0.7732370880293427,-0.7283881732894746,-0.6197798201646858,-0.4338047872345616,-0.21988929015072875,-0.08008486840462692,-0.046797333905741666,-0.08157624692181717,-0.13752353382989632,-0.18552126311576644,-0.21457264910111934,-0.21992210864755612,-0.21749026073697664,-0.23093117817247613,-0.2617037227217863,-0.28048564878336985,-0.25590286806761925,-0.16938060131008398,-0.04474018213367541,0.06863404245874202,0.14728621416740698,0.20249022952443085,0.25541652772031265,0.3317236691600982,0.4239501568714249,0.4929135803513619,0.49748398269127253,0.43087889668258017,0.29672834085490274,0.07450593303562966,-0.20472766089827135,-0.41166232854837076,-0.4875646015640575,-0.4496093307922996,-0.3247027935424697,-0.16849295152964272,-0.04197734970197412,0.03293575342842306,0.07896582352739878,0.11523910227687806,0.1582753692797143,0.19765873889254773,0.21408556206152013,0.19609880904875027,0.147241001160583,0.0791012572663472,-0.006775715257644402,-0.12053439801880819,-0.24912569122298217,-0.35639479945132635,-0.42468176291039395,-0.4473582928175537,-0.4254174233211698,-0.36405731401390545,-0.2705107101466531,-0.14540981527942723,0.0032834243148281714,0.15489329652699352,0.3062771878561216,0.45430741179184575,0.5769160925927073,0.6730511452388661,0.7453863700617042,0.7946133456092848,0.824418134201385,0.8382985275691572,0.8361874797881539,0.8183295856629674,0.7722659394736432,0.6709511996632287,0.5051785010391598,0.34098704785858486,0.24805139957935687,0.22812148934965543,0.24099262290439946,0.22633153982921567,0.15504225715524173,0.03559834015103018,-0.07617182205079577,-0.1156701006667644,-0.06507938070838373,0.043591648556677735,0.1598407983323923,0.24094964952636413,0.2665048804595892,0.2386180799050498,0.16751369583176395,0.06042202729673062,-0.07851778672383257,-0.21688121328090768,-0.3202498315717061,-0.3640813345469732,-0.3579190659119519,-0.3180825076075075,-0.26727592349007884,-0.22006172354200215,-0.19245866623040944,-0.19686364365521525,-0.22948271505132087,-0.28034571010846,-0.34337199081391095,-0.40545160833818306,-0.4497246658438265,-0.45703442822382995,-0.3968711652434922,-0.24887374362739093,-0.037350397954514454,0.18236683749524338,0.3658089512714844,0.49036823867012524,0.5547538273559995,0.5673810950415216,0.5458958535031327,0.4872742267873255,0.3903447163883711,0.2763682111554422,0.17494109510832329,0.08016582122408832,-0.02014187798166175,-0.12613956206897262,-0.21748216519869268,-0.2671411229200288,-0.2646228919379619,-0.2122320663659957,-0.14174445916458384,-0.08220280781176943,-0.04108538062025495,-0.02248295021045834,-0.02671020211246622,-0.035878389204946064,-0.03502530371784834,-0.01614549642107959,0.011037129326927577,0.017170939471019945,-0.026767044674085756,-0.13441742264043172,-0.26880707042168944,-0.3566279523423261,-0.37090685772752036,-0.3166600489038753,-0.21582196282604574,-0.09006201275934997,0.03957436565716099,0.18883068037595196,0.38861531291679174,0.5936673417456694,0.7261456449481162,0.777543081412414,0.7817742470470517,0.7678152459289671,0.7582808492084824,0.7575265577229278,0.7591245591712804,0.7569102165466847,0.7507655405603332,0.7412568317942109,0.7249482333145227,0.6931981250661082,0.632270789013375,0.5200949043192983,0.26455306173771465,-0.29979571420581336,-0.7512258652277273,-0.8851476083979358,-0.9186096367924874,-0.9186045450554264,-0.8844503286176413,-0.7807788521435581,-0.571268066027433,-0.32741699820888903,-0.17422108269881048,-0.1335610895920668,-0.16542961085368557,-0.21090553857456992,-0.22432300310810666,-0.18980897007324213,-0.118877372819691,-0.033041502874532856,0.03292378306721234,0.07837080740112715,0.11832874185894472,0.14903771601279844,0.16274494835032086,0.16149285622715612,0.17079768763398437,0.2362507735426702,0.3901922692971309,0.5937136993985783,0.7413601380588218,0.7889592430326904,0.7683714220741356,0.7176265657825279,0.6592449866404135,0.6071371674277208,0.564010541433788,0.5255153199330694,0.4981743167026959,0.4885552838292497,0.49427825156518673,0.5069718056532546,0.5295484546564959,0.5824084872050328,0.667050183770694,0.750276041064411,0.8061250114299071,0.8292727387908575,0.8084720454905108,0.7247973834801721,0.5806915890118226,0.41765069858654524,0.2909524695475044,0.2161320978324544,0.13355332398413436,-0.025991041770658533,-0.2320493277101247,-0.40453686919953996,-0.5104698682980848,-0.5641977825035569,-0.5859813685879087,-0.5870333328750877,-0.5739713785549284,-0.5483086096652564,-0.5081051860634807,-0.45966590594147094,-0.42216273179896846,-0.41329261812461066,-0.44218750669062035,-0.4970436051947301,-0.5460599912150474,-0.5614476815152815,-0.5202635684256218,-0.4030986493633278,-0.218987303513613,-0.02379151341640837,0.12888911271921313,0.21988145310197676,0.2353546354417632,0.15872549140545758,0.012214080523487788,-0.12338793539454153,-0.21233863509645556,-0.26874136325725034,-0.3110579643523644,-0.35117677440476186,-0.3888496472173784,-0.42614615380876425,-0.4673031724474892,-0.4967431552768775,-0.4826180718093616,-0.4095409802652454,-0.2872679778080677,-0.1456276939850413,-0.016849914205607042,0.07838322152821516,0.14124317588564317,0.1955647507845937,0.28133512605349453,0.42299882754671514,0.5821411795171997,0.6958345500611496,0.7505170834263372,0.7614490858861968,0.7431212104348988,0.7007313078249838,0.6457042590533225,0.5961894664280856,0.5687743242521749,0.5654702994502204,0.5746021613571757,0.583622883263198,0.5818073137167177,0.5644226191652529,0.5423214775087486,0.5268858552840687,0.5173068081073907,0.5070209034578713,0.4963673655899598,0.4870639222677555,0.4745939297282608,0.4480905944592808,0.39346214866369017,0.32259507438308016,0.2546242051298919,0.19088014908070094,0.10768992791225858,-0.0054717810966883156,-0.13232393911702658,-0.2545784582842948,-0.34914123511618955,-0.3975055242188063,-0.39063349493976746,-0.3276713461653053,-0.1884390938014975,0.01854708136327074,0.235628871520211,0.37159126927955677,0.40882266145758145,0.3808557381613774,0.32983439530181957,0.2877041750435492,0.26427479604608695,0.26317494460957874,0.2721250908617688,0.2724314936782801,0.25259476569699174,0.20962194176170734,0.13514398400988567,0.042456045166710386,-0.016291028677384772,-0.009434141716602798,0.055916417398856846,0.14975190618452117,0.24470077516199837,0.2895616366844115,0.2052489578677055,-0.05849472008080376,-0.3745050695011385,-0.5670248844527545,-0.6560583512824505,-0.6842201082154072,-0.6479917983098694,-0.5219206042867199,-0.33355088456264187,-0.18014685201030797,-0.0964888626510773,-0.06774151443634159,-0.08114651087566269,-0.12151387283374374,-0.17565159350494208,-0.22333475238779105,-0.24691421442881603,-0.2466683530093874,-0.23401769914364773,-0.21747273033296824,-0.20465206119706564,-0.19267801328338252,-0.1711153613207685,-0.12935577932647507,-0.07518775032262066,-0.027883664445081863,0.026875766270527138,0.10066799221655186,0.19281415443579283,0.28902469489069776,0.36554680198552386,0.39308423107719404,0.3159040126568859,0.09646102673861606,-0.20298578442923404,-0.43368088331486476,-0.5443570927517746,-0.5733908911236563,-0.5454573200147795,-0.4923657239326409,-0.4550121319589738,-0.4497976741348221,-0.44329208009452625,-0.4108426012154192,-0.3501130652351906,-0.2775788070057099,-0.21888405292428748,-0.1953811475105954,-0.22076595392937082,-0.2847782159538055,-0.3511198070622028,-0.38698098644970924,-0.3764706095206172,-0.3240208138871076,-0.2420622103912711,-0.14116050533851635,-0.04378014041331746,0.028805798343646015,0.05792164335915271,0.03526511900526334,-0.021224747894785255,-0.07397223534230131,-0.08746216765435542,-0.06017479908441831,-0.017101926881927056,0.03174800235912151,0.09113963418651388,0.17948462947188268,0.2880754675748332,0.39744136364174193,0.46721579960177373,0.48052898165162955,0.4571117406815103,0.4277246792054502,0.38795841191715896,0.3212165089335848,0.20837445066127824,0.053753566712764704,-0.10196713488133893,-0.20999838546683322,-0.2375058620337222,-0.20391058088615788,-0.13584154511934204,-0.03633251827647977,0.10610313234925213,0.2643188822928665,0.3689119835082135,0.4098412810565506,0.41623554933771656,0.4042842179890066,0.3703634013414188,0.29309851074310245,0.1510703284240312,-0.04061361331777942,-0.22106864256211364,-0.3386514836944356,-0.3965434277446881,-0.4162037571449335,-0.38795074854834494,-0.2675575763692135,-0.010458830996664673,0.26095812275440294,0.409749501879442,0.46382001831892783,0.46714958578021115,0.4433823668003064,0.39106636902460756,0.30704419927455967,0.20594051646755224,0.13197507670943018,0.12932955891547618,0.18802685619595721,0.24982001944867535,0.2921128511233506,0.3206028004388112,0.345498330575024,0.3729000225096718,0.3888849298185962,0.38083701925873503,0.3373862996818757,0.2673412782961223,0.20683999968784111,0.19226030873693806,0.19340164319155143,0.16815075509950203,0.1033132116817826,0.010896814417356444,-0.08677805821547353,-0.1619082197933122,-0.1750067411052149,-0.12699988939572296,-0.032918845612547626,0.06717380179247322,0.12368233628306302,0.12349101852469684,0.08885102514849928,0.05232272293577173,0.04409396830165369,0.07535158929453613,0.12499489196773476,0.17224242880290605,0.19586209894641737,0.20258027531156872,0.2193460649226686,0.2598420593330567,0.32958670770854565,0.43424498802305495,0.5713851456178409,0.7092002233186067,0.7964081966048591,0.8251324823738382,0.8140608937931391,0.7549418481544328,0.5619575227290149,-0.1145495245525463,-0.7544189709318093,-0.9011257666336122,-0.9375188261784294,-0.940614080448934,-0.892195696827098,-0.6136012027364431,0.033400153180321836,0.3404808062635228,0.3403800889971908,0.16243880060859942,-0.08313771426783594,-0.25911287556080154,-0.3323447089977625,-0.3295716304603375,-0.28322251309374064,-0.22144480235668418,-0.15553055109616107,-0.06767395575104829,0.049013982802346964,0.17778755181783162,0.28540330829782956,0.3471232402924692,0.35688316167676315,0.31007364498574935,0.19950650711181853,0.02363441155922912,-0.19559791040072022,-0.3959399442880628,-0.5153565052530847,-0.5323396510545504,-0.42274477754657575,-0.15121468801169544,0.19560840414013672,0.444557662930283,0.5659960667498128,0.5981749984629391,0.5585204127597129,0.4357222255476605,0.22624008958166925,0.009053057768476582,-0.08781735088178667,-0.052183786992497365,0.031241278173821233,0.10466835952844439,0.1384326597409808,0.12658759391878222,0.09076963430578217,0.07104164888935763,0.09718791243090431,0.16691986671958528,0.24662687150995016,0.29424847771213986,0.28790466625465577,0.22646753787033946,0.0950257569642684,-0.11184834466771582,-0.3452407456638452,-0.5408053649991509,-0.6741824244960741,-0.7454600833293812,-0.7669367686855085,-0.7524842797222684,-0.7137692379852711,-0.6596736472236632,-0.6012700613657507,-0.5434218985760497,-0.48513471337607716,-0.41544538272799636,-0.3074097874117755,-0.1313693456980606,0.13996063881931425,0.45373092879211435,0.6753805398986878,0.7761704761144887,0.8051814340577597,0.792593263010682,0.7431781870125568,0.6549239021519992,0.5536901601100502,0.4955480996177241,0.5295446900010433,0.6374833186876314,0.7506500630894121,0.8299442293713409,0.8751741221792965,0.8914803635016731,0.8648466003541188,0.7312834589061389,0.42076871760378703,0.015953170371498605,-0.33591565532399664,-0.5828058682922505,-0.7339063603869755,-0.8146281148353834,-0.849912804418814,-0.8566096736671205,-0.8365124359866344,-0.7767349400805834,-0.6362515114032217,-0.33725843132989186,0.07546604046656467,0.36399250990505316,0.4963041420618561,0.5507278794328291,0.5685201154407685,0.5564136872886773,0.5100443413736628,0.43600634611848027,0.3570033060649897,0.28541130336590653,0.2201829732796023,0.159441159999572,0.09461366745900285,0.016179469604124006,-0.07960960406166208,-0.20215034376303448,-0.3401445959607335,-0.47916436383428745,-0.6031222122089317,-0.6907663480967002,-0.7284647872937388,-0.725249163048644,-0.687220497879248,-0.6139642768126228,-0.505287975310085,-0.35811371774570466,-0.16537653216868373,0.047535973603691294,0.23883007708016846,0.3730314913938909,0.4431417157298248,0.4702391384566389,0.46802230285707486,0.43900865978855436,0.3912157384822115,0.3395616328421106,0.29464838935455445,0.26290226293904034,0.24685831723433657,0.2553330968578362,0.29376249104384666,0.3475707414240847,0.3795133473965175,0.3514735019991136,0.253335472722441,0.13166243502982705,0.020252983932911393,-0.07486612023581003,-0.15162857715740596,-0.19815754851574074,-0.18559997295143824,-0.08953513203324136,0.07992602843893111,0.2448225183039943,0.35465390435709676,0.4135681900173404,0.4412314034304406,0.46152100535550783,0.48405694401583466,0.5095454261416597,0.5332771235028385,0.5522716314801062,0.557444396966874,0.5493598753426872,0.5256827830113138,0.49124685725163836,0.4450152072086377,0.39633694588520174,0.3366041291856608,0.2587973606995926,0.1765709783877835,0.09820012965120267,0.014850553983084023,-0.07994970354339372,-0.18294902443663136,-0.28842333850918017,-0.3768168042488001,-0.4222445633070377,-0.40681164043889223,-0.3249246289257628,-0.1793687192190037,0.00675717403767506,0.19022667074995558,0.3186553491076519,0.367229513602521,0.3377464420468522,0.2511793911961332,0.15548985898213105,0.09063799903143754,0.06189856643325173,0.03857759318514062,0.0002723193323113971,-0.042302302487801875,-0.060054150348769715,-0.0242019000343226,0.06393057385352348,0.1839923188649961,0.2871848862724098,0.34575211399383027,0.3585371761966841,0.3191784484695552,0.2058247164901382,0.022090301438848933,-0.19415949069512745,-0.380657930021816,-0.5134466766141744,-0.5960722989711155,-0.637974314827604,-0.6530598715725519,-0.6513732592886227,-0.6447112286275134,-0.6407872518862558,-0.6434677696819971,-0.6655029572495749,-0.7078430748685971,-0.742144451411395,-0.7457756125942128,-0.7133084203091787,-0.6501677799856462,-0.561944826969177,-0.4574963792994323,-0.3540292724631946,-0.2798838207242243,-0.2512089607967911,-0.25859167652613363,-0.2637344716544398,-0.22443143597472506,-0.11557996214683913,0.024767724637377208,0.14834923041036904,0.24108570328585693,0.30469809256122127,0.33754631269596147,0.31291525962460665,0.2479223372298005,0.1721547591366732,0.09837936196644316,0.07303836144118778,0.13781191374107515,0.2855748123774449,0.4483391750267311,0.5759108659712088,0.6575367388740685,0.7025086749733592,0.7170013259283409,0.7066760313912194,0.6692545158865182,0.5842336837083348,0.42140867334323145,0.18501056941183303,-0.049939052750217074,-0.22226178981067593,-0.3035967024669308,-0.2928644959086367,-0.20779325425273543,-0.07388293258927774,0.06176714961745483,0.16743889101691706,0.2525473942964132,0.3460465655720012,0.4536037896722378,0.554390597078533,0.6223136389416561,0.6407132624522545,0.6139989771246429,0.5441091620713953,0.42590272706900006,0.2570504985032533,0.07519106311040302,-0.056662568087669514,-0.10403509914006892,-0.08184214177576614,-0.02979651697753408,0.018994752120146608,0.01778288635142968,-0.06425508390326407,-0.21127723687285896,-0.36463459517516755,-0.4628696005841615,-0.4577601685209005,-0.35145046429733645,-0.17590201412131407,0.03260669610696786,0.17790343416605336,0.2322990348790582,0.2345055980065379,0.20065500119999674,0.1236007365028782,0.0026760833902515976,-0.1320515881479458,-0.2455009761364796,-0.32522096876236856,-0.37793065624511285,-0.4096934246987149,-0.41384410026139723,-0.3965832158529231,-0.3721082282454416,-0.35532064455958895,-0.35304730571323306,-0.36011997477682767,-0.3628470672194139,-0.33717197319016823,-0.26910242409666285,-0.1491638183301533,0.018389458677791525,0.18457282687206247,0.29961448409827285,0.36134574794060464,0.3920268416060044,0.38659545834012193,0.29004803653169453,0.15283961367495266,0.056587577049075674,-0.004057752059702541,-0.034330614173861795,-0.06315505613720321,-0.09754074599525737,-0.11413728497792282,-0.0718556930789145,0.0009654862648252917,0.04420754838862841,0.04474989415775722,0.035558325317624165,0.029070605509764223,0.03624906577750394,0.0570697314631602,0.08682890132650176,0.12543764452475212,0.1840543911816519,0.2683922833563218,0.3759284853819847,0.47454223936457596,0.5304262141127118,0.537855993842709,0.5081770318745905,0.4590692365017669,0.41172693996357496,0.3887847984523836,0.39494426202912747,0.4045923916957969,0.3924459879210402,0.33695719753929504,0.22351874123095772,0.039735739610737404,-0.18074493716105278,-0.3511510195227552,-0.41870709571175346,-0.39757657147880493,-0.3102025139784585,-0.1850851064624093,-0.06234707851783801,0.03967512117811488,0.11174597306877955,0.14924175276222224,0.14657624848924444,0.13063591727426968,0.127578589358583,0.14377136213971878,0.1766151267041235,0.2201081329744534,0.2545411332391541,0.2675661449269993,0.26772263561191295,0.27677384320204973,0.28300253473346904,0.2725276316435049,0.23661082454248972,0.15586273024883868,0.026803546687642028,-0.11607993507363674,-0.21142892448143977,-0.24776716056973197,-0.23868040219232375,-0.19280919258206958,-0.11378136089097997,0.0008770110212559055,0.13193749975269914,0.2590597735747459,0.36523819125138546,0.44586805899549137,0.5037613776720962,0.5473055733279587,0.5802260875810362,0.6039683905800249,0.6215714904213936,0.6137298266138,0.5296346095873575,0.3588562764894144,0.16456535935896616,-0.010251161466380129,-0.1752285627903869,-0.35045559834002915,-0.534701010486303,-0.6833599880540125,-0.7670436134036274,-0.8001235005697549,-0.7968924899747586,-0.7450856040524967,-0.5554275552064085,0.08958125444690952,0.6897833235130295,0.8193200421920772,0.8271197529479296,0.7818925428993238,0.6568485520958003,0.4227965587167232,0.18941954434394942,0.06273181944307306,0.01031707164056132,-0.015345266209624795,-0.04592985830712207,-0.08937932253908884,-0.14933903019108724,-0.22593110285134976,-0.3075641921202607,-0.3776212582278087,-0.40631600507502685,-0.37217533155389215,-0.2720617555423239,-0.12363781806190663,0.03163042726433459,0.1482296498720967,0.20955663944216585,0.22782819273527835,0.230235529588217,0.2466429968405263,0.29438460652667187,0.381273681580403,0.4986379980442849,0.6130680015765304,0.6966948769165842,0.7454287674312234,0.7654864911704679,0.7451507333943829,0.5632056940203408,-0.009432282540101061,-0.41295362330799334,-0.5580536443592681,-0.6331846237469321,-0.7022083744949409,-0.7742438685854587,-0.8319152091308053,-0.8638069354528414,-0.8679533261704904,-0.8379331313348687,-0.7477363641655246,-0.5413974280692193,-0.20889705740278078,0.06719945086974978,0.1626951778719546,0.12133204182106537,0.027967036524866404,-0.03672650609462703,-0.02244917909371398,0.07351454386275966,0.21478204241834195,0.35376081760697087,0.4552097079565805,0.5148798798628771,0.5481916739018038,0.571120485092908,0.5905560142122929,0.6090975896259782,0.6248848460794812,0.6170715536734899,0.5408215887632193,0.32594382875301,-0.05516338883661128,-0.3850074426234482,-0.5285984035407935,-0.5418366395678266,-0.46479297785976836,-0.2890885367041194,0.025873241683802548,0.423175788796277,0.6795317337305851,0.7685127542369529,0.7860532834248539,0.7847152123598086,0.777336026299926,0.763116698955985,0.7448765418809149,0.7215082631260832,0.6885897110622133,0.6491731797428687,0.6097676494251234,0.5723375995208648,0.5393750070076064,0.5179433517784675,0.5205000491938604,0.5469224381562185,0.5904432988192029,0.6306645264540292,0.6600314974786379,0.6751310526241314,0.6753725457478567,0.6609707944053288,0.6362822827605855,0.6035066227430175,0.5601685645663754,0.4981181703023124,0.42198184501788366,0.35008715771263815,0.2908621711227321,0.2155146532702743,0.09460481952156724,-0.06600804299832498,-0.2174191334247586,-0.3106952163650716,-0.3505231254860943,-0.3625865634364662,-0.3685796581594432,-0.3752535918873327,-0.37996323401113286,-0.3912924387586483,-0.4108895916321747,-0.4316772565821653,-0.4454796314342508,-0.4501206353166059,-0.44455889868263576,-0.4324874991022226,-0.412044901505419,-0.3818706641894754,-0.3252979888504185,-0.24632265327292602,-0.17242765796325965,-0.11557839837503422,-0.07211648067149122,-0.04616724877391301,-0.04455688345486577,-0.07444129094383578,-0.11995104207981402,-0.17234788669756282,-0.22654615722825058,-0.27729014419661313,-0.311265902398736,-0.3064671519313441,-0.25693228464749224,-0.17135595783985466,-0.08109448644096369,-0.02746205705862931,-0.040850789630930306,-0.13131921105627317,-0.25973307788621536,-0.3686984193583448,-0.4275410523940677,-0.43625113155842915,-0.4024159196759096,-0.34186601320537513,-0.27974538592748643,-0.2357409604804839,-0.2071340024846793,-0.1824339625914961,-0.1427277430218334,-0.06333983434534203,0.058567369534103145,0.19426148478543548,0.3069400374357155,0.3850985430979352,0.4397438988346851,0.4831731347495532,0.5244178573289704,0.5675659497765465,0.6013335988114864,0.6176927168149411,0.6179769669331421,0.6043197133811196,0.5751182587690906,0.5303256595810125,0.4682930974115078,0.3880597203893699,0.2848973612907615,0.15756605353450753,0.02026835480396388,-0.1098401285669909,-0.21409737887168415,-0.2954178902277421,-0.36752582715033216,-0.45756982890232845,-0.58231972769306,-0.7133583529529369,-0.7954714086968173,-0.8254394383431223,-0.8288319761900808,-0.806967584268958,-0.7419773562282608,-0.624377243494632,-0.4730622838219181,-0.31636041470956555,-0.17461829739812376,-0.06294319252251901,0.02226594415966194,0.0901090385887007,0.15354485041458307,0.2170583306878018,0.26173097759347935,0.2857524870922642,0.3010611755000673,0.315922838604274,0.3202831259397137,0.2872660093494751,0.19216500533999276,0.043464306680848365,-0.12231340781349015,-0.2502005403432937,-0.2982862211045719,-0.2757062251868345,-0.215259197352333,-0.15680107963572143,-0.12098068064105862,-0.11073361848891687,-0.09923792797580389,-0.057904045985403184,0.036674729060040205,0.1885875323311501,0.35900164738947127,0.5069673133622041,0.6016773360961499,0.6299217559119604,0.571846443573265,0.4000056821200109,0.09250335366373745,-0.26544662803816277,-0.5253693283930618,-0.6593845533929347,-0.7101124184643913,-0.7088653143058925,-0.6562750986189771,-0.513595330365769,-0.1936589247625147,0.2709785143598833,0.5836394895440414,0.7201113301309373,0.7752356868050475,0.7901034693463037,0.7682880595436218,0.6955012213458623,0.5806764181399394,0.4647586930160972,0.3826273306439628,0.30755823294083134,0.18007137348731703,-0.03322096780959475,-0.2946931795075926,-0.49063765396067854,-0.5784579399061395,-0.5848073950142374,-0.5206581049860908,-0.37649859357208715,-0.15122611332147823,0.1089066116907896,0.3377673672464124,0.4945847965284157,0.579036770367301,0.5976380045800441,0.5626463702959473,0.486452433274915,0.3738368402074448,0.2188097527453171,0.029325307669381455,-0.16244044066203187,-0.30299275005330195,-0.35331668022724755,-0.2877546238326138,-0.10127054597325816,0.15256841824551517,0.36645440468402934,0.4954108355106848,0.5540198851645015,0.567837788484089,0.5494762163945349,0.5083603441710536,0.4464180513270688,0.3719396027223607,0.36589131432105354,0.4659872239563933,0.5819918208311995,0.6689862456023552,0.7278902251138067,0.761687451926564,0.7782615836563854,0.771917656514331,0.7156460652396084,0.5550131014878253,0.23475380687738953,-0.18425263980566253,-0.5030318656983687,-0.6571956902058346,-0.7151051158695482,-0.7301088882525928,-0.7225365778235465,-0.6997662292678787,-0.6600493839270959,-0.5887706813293099,-0.47102503246827165,-0.32276275097483687,-0.19147435472552254,-0.0965510817710357,-0.024743939283115923,0.06754808454555823,0.19964645930063465,0.3318036186002808,0.42488658002194973,0.4737034647281626,0.49878449183414175,0.5244411323266026,0.5758034972707409,0.6463511072623466,0.6944191586654197,0.6915963681306408,0.637951410691559,0.5426152358486453,0.4336343245287931,0.3674241395764347,0.39003349266456055,0.48052415626127504,0.5551939329781672,0.55349787880216,0.4285886770399345,0.10795208967642203,-0.35578660126499645,-0.6813697118475746,-0.8232645550997173,-0.8788375402500448,-0.8952281599516387,-0.876334262348033,-0.7626953569393563,-0.31293494638047464,0.2854619437129792,0.5009704591784764,0.5144804903392365,0.4253141745858589,0.26021590707453296,0.07651652809239645,-0.04203923070234811,-0.04864912361482679,0.04336255811373611,0.18498264691172164,0.3096336819873346,0.38450848080329963,0.4093722825261796,0.40125269954381,0.36834066115426795,0.3160164271273792,0.2428839558167832,0.14505530197587194,0.024042243934514314,-0.09468659455279135,-0.19177236774064757,-0.24850879903274609,-0.2587315810105321,-0.23026879736974684,-0.19021046083319282,-0.15910346571526443,-0.14316806937714177,-0.14163739001408565,-0.1549100784005215,-0.19303887689603033,-0.23785622852951802,-0.25116303205457297,-0.22362194915447312,-0.17617836405852988,-0.13106030765758905,-0.09965784707463068,-0.09444401291045565,-0.14022747985101558,-0.22154985228731242,-0.2920946947334234,-0.3134902894567963,-0.24903157588323693,-0.1089748790236449,0.04765767219775851,0.17517583876751824,0.25285831942752446,0.28451896025660595,0.2786041978182274,0.23326406208167288,0.13791651670315683,0.008444651197130185,-0.10060470335896525,-0.1533362701305675,-0.13729080134192886,-0.04896798519638268,0.0891859027988044,0.23213986018134744,0.34337138253467087,0.41544224988350553,0.4363275337562293,0.3811383104297517,0.22405157358694208,0.024651397195929348,-0.14017349902054407,-0.2438934713612287,-0.2774950943531616,-0.2341171114845539,-0.12233429313019765,0.010379501215910865,0.0906730699369374,0.07441697549671923,-0.01941581448121533,-0.10886927553037296,-0.12330609418864516,-0.06387381313541199,0.03368691764784619,0.1513439334028167,0.2891017595341026,0.4440038426848831,0.5666835729804133,0.6137617113248182,0.589036855584634,0.5257733926201893,0.4468650140606556,0.359046862674905,0.24421178596565712,0.06273344908732767,-0.22651810779795029,-0.5561366678917563,-0.773339581662661,-0.8706247400448482,-0.9074549925636626,-0.9146735018430262,-0.8948121157081763,-0.8154549098112323,-0.6021560241664365,-0.28174668326820423,-0.04833870550741624,0.06918936495116718,0.14121794938499133,0.21231479551139398,0.28075234361597096,0.3289144702234143,0.35365282114767715,0.3643922217832866,0.3682650792609884,0.382151242955317,0.4149304917717578,0.4560701955322194,0.49568114458506396,0.5253686005619235,0.5378948904155594,0.5221762453240495,0.4742910957727465,0.391173521295085,0.26607425817812247,0.12101598547629797,0.016386913657969834,0.001986712457146109,0.1039515051871937,0.2952562869813879,0.4564068392924054,0.5244739068672312,0.517358906849126,0.4577755517232885,0.37664531105616694,0.30989515209938256,0.2946705425060748,0.33258518786303776,0.38706101413880456,0.40607698143072163,0.3767198363005143,0.3128239987360191,0.22469576112502881,0.11011965899018018,-0.049496240901005205,-0.2735849411121796,-0.500658721562331,-0.6406387774428778,-0.6936294051927996,-0.6948020939698292,-0.6670792788431413,-0.6178162795648188,-0.5548464738572991,-0.4920912520248099,-0.4388080191530162,-0.39505520253560933,-0.35080319860286674,-0.30514934363944635,-0.2920225723215083,-0.34044914700245266,-0.41590025062828195,-0.4673146318856104,-0.4863441260499411,-0.47982251404596993,-0.4578069746245819,-0.4210747330249459,-0.3572217875957111,-0.2423055105377195,-0.07060373930951101,0.10822991423876484,0.2552923666394503,0.35678202765457145,0.42011193130490093,0.4566040196474944,0.49219788106431184,0.5405268417197054,0.5900226995641288,0.6247222918825014,0.637889931900027,0.6181049807996036,0.5603786338908491,0.4828067708775292,0.439539321214328,0.46160581172083226,0.5235733554591557,0.5824418088010826,0.6112387415063791,0.5966345083766781,0.5262732894680024,0.4112861453578078,0.3062427021537902,0.25635066269814744,0.2660552258905189,0.30651677956968787,0.34704473367315236,0.35739466390408375,0.3163598943021801,0.22412345031614855,0.10309985229967769,-0.022700572186508006,-0.13505763707522117,-0.21314385273269867,-0.23962726345676838,-0.21057442832839568,-0.14550153373129424,-0.07823995340896306,-0.052115832789164686,-0.08988417972922377,-0.18849069378404423,-0.31579713286501393,-0.4190078914449338,-0.47181209245568667,-0.48844812276446786,-0.48053973135213246,-0.4463950924102411,-0.38382443146261314,-0.2966712021732922,-0.19383574147205992,-0.09214536119789704,0.006273120168659455,0.10562581479864488,0.21236690980300368,0.33386696024734,0.46707617066554347,0.5837812587425616,0.6476839292631099,0.6301113117767887,0.5037352303619208,0.25580411129058606,-0.05688897552234466,-0.3630648800866504,-0.6043540616969506,-0.7505418657973268,-0.8210148720292785,-0.8346690372972454,-0.7769755722960578,-0.5319211546853079,0.05144589909405008,0.4756579298348893,0.5990208450930834,0.5826168275908178,0.48864976558411066,0.36479757866419193,0.2603012964359039,0.1860558902810592,0.12452986378965206,0.06270116230265045,0.0029646904411949897,-0.06654100362170547,-0.15730858457950297,-0.2793435212023407,-0.43424573481822015,-0.5789122133644509,-0.6621743138740942,-0.6897631254445759,-0.6853612952386628,-0.6612183783593505,-0.6265353462041396,-0.5931948297847308,-0.5649421831559327,-0.5317986303687317,-0.4829088657429489,-0.40928439492175167,-0.29761459587214417,-0.13372404338567886,0.07668520443967737,0.30846025171154323,0.5171532610525879,0.6652304610998268,0.7446428407531571,0.7712574997582335,0.7679013288187139,0.7524332092532595,0.7358084244796447,0.7168223066253734,0.6897333237277161,0.6463434228505966,0.5934701444428826,0.540885939671865,0.4876132467482683,0.45608822673470145,0.47079040028702596,0.5151906249616197,0.5561689873887,0.5402730781899727,0.43681649413939516,0.26994670051779723,0.10111544500293641,-0.022019796852701726,-0.07912008788005609,-0.0570921342105358,0.0279156248441183,0.1417279124276977,0.23228418157129024,0.25262063266121937,0.20909456588989034,0.13307032198884777,0.07200832110505306,0.05610060371636627,0.08170328777218028,0.13180094291913264,0.17910340966133637,0.19138522986132714,0.15040355704955993,0.05464299339976857,-0.07579281507149539,-0.22030102835951015,-0.35232017210771566,-0.4626947800130416,-0.5548171899708099,-0.6212488195398126,-0.6538503372737489,-0.6419870355914937,-0.569463335346138,-0.3660052088394736,0.05722927387834551,0.4616879896945553,0.6587687458204311,0.7399835729346035,0.774563876267813,0.7879082658694555,0.7915514238132845,0.7887420686288175,0.780705628116582,0.7710470624400115,0.7511701138762492,0.7101181676652282,0.6393115666328365,0.5249737115254787,0.32876038594333773,-0.010763335625377695,-0.4655216268748381,-0.7649277049762233,-0.8783597508255293,-0.9169921819191411,-0.9280325469724233,-0.9213822480847282,-0.8906388895206439,-0.8239934024960508,-0.7413044778772245,-0.6901561573180935,-0.679179402137717,-0.6728629939877249,-0.6357321364847134,-0.5503417529009228,-0.41255168171055157,-0.22403007953647597,0.011061722996179874,0.25407273375624434,0.44705621738727713,0.5685496382888373,0.6381452740805053,0.6767594184346695,0.6928702075567406,0.6904766874758235,0.6808080189206054,0.6644832244991592,0.6451681804384964,0.6336253752927655,0.6363995278721147,0.646736143391103,0.6479811897637853,0.6116212860374934,0.5016061312632274,0.27646640391795085,-0.04337385717999588,-0.31640632771691773,-0.45925340003190834,-0.5009053228113535,-0.49597357647501183,-0.4719031900756657,-0.4310892351349785,-0.35773626091883975,-0.24512374273500404,-0.08901400085724306,0.10450808700473159,0.2936096469044509,0.43712004886157824,0.5342405160642122,0.5965278482437602,0.6205313465168801,0.5977278194377407,0.5120822922943938,0.3657621184042742,0.23903930155121858,0.20565152767477318,0.2465127942083006,0.31442892402794165,0.36528600173577963,0.3740221866392122,0.3459271041747876,0.2696809738016382,0.14253540118178085,-0.008975276572641423,-0.12315940622716562,-0.17066917283544272,-0.1642687457836955,-0.13076627148432968,-0.09562899645796867,-0.07171468480751442,-0.05467712492777627,-0.04346868723444321,-0.05848134381388362,-0.09034137244179212,-0.12614176771994257,-0.16022069152407933,-0.19205993112164482,-0.2050276794899053,-0.19299487424117306,-0.14965351772703245,-0.09398402065938202,-0.06262818969342435,-0.06090442628339442,-0.08986468385600002,-0.12269849246626255,-0.13156794215791393,-0.12236901487733164,-0.1277438565111626,-0.15779608681757626,-0.19382134169067305,-0.22064004389630032,-0.2474917782101229,-0.2853047968477398,-0.3244386295497147,-0.3451220033401988,-0.32573551609778145,-0.25204227111546135,-0.11400528834289497,0.06021231687348991,0.20041555548334894,0.2816948410476688,0.2978100590074482,0.25017366061952323,0.145220653468123,0.012316324943997748,-0.11748753066624161,-0.2069904727748936,-0.24792270373129652,-0.27711172676555385,-0.3092067601284616,-0.3337322153330533,-0.34624648446585066,-0.33810834821381053,-0.2833915979864613,-0.14121838575097528,0.05743863803635917,0.21142116433976066,0.29237743785880366,0.3235827213193454,0.33546541974627003,0.3632565439163026,0.4114325301999927,0.3307017673064192,0.24679927928910092,0.23020843683831932,0.25128872586152534,0.3024703477632588,0.375999103372948,0.4224651470948363,0.3985228277984214,0.3634723105603028,0.3520050884938293,0.33159920176351165,0.2554849675836242,0.1104394565497507,-0.08286433637636606,-0.3098964158710547,-0.5232407951298623,-0.6689180103443456,-0.7353010867355999,-0.7331072977999423,-0.6463880139852146,-0.36342531213806606,0.2886923997643058,0.7105616809331977,0.7800115962288179,0.7298316811233687,0.6182282799513017,0.4715455811348671,0.3462878515009233,0.28719877492988793,0.2913481415236073,0.32506793620746527,0.3419637160873371,0.31743221095404894,0.23079549820202508,0.07491052059670908,-0.09030533135798209,-0.16350693152924625,-0.13187483258680097,-0.036381738804896764,0.06807106268234943,0.1304072800752932,0.13854886982292,0.11395030688689453,0.08876087728483173,0.10113153402506893,0.1701859606501175,0.2787176538576168,0.38124971822426845,0.44314678029972904,0.460624986310608,0.44731466665875647,0.42674021786767735,0.4252394053682538,0.4546104380086124,0.5079263358140139,0.5595911535857409,0.5922247410845798,0.5987082805077377,0.5823032854296996,0.5491156865775502,0.49901804161448926,0.40991161498254414,0.20979738232913525,-0.2688249456490232,-0.7842776844407656,-0.9186180382868442,-0.9388704215325405,-0.9395867655879498,-0.9357609350361257,-0.9320941891624194,-0.927748350942993,-0.9189810769644288,-0.8991616612977563,-0.8638504832170273,-0.8147040719673619,-0.7584959438684062,-0.7018672143244834,-0.6445877370228382,-0.5850515043943392,-0.5224418072201443,-0.4580114580839765,-0.3994004291884989,-0.34813637487184046,-0.2907722482627029,-0.21352719048066565,-0.1172075011891477,-0.014871621544639684,0.0929814570826566,0.22125487459266255,0.382951999943763,0.5541452793121145,0.6801216643979403,0.7426695356977168,0.770414165544447,0.7902700500418639,0.8119010841046757,0.840976973661593,0.8774223018538974,0.9114810868681289,0.9136512982868332,0.8497616330486109,0.7359930921522949,0.6545733111129851,0.6811357026529677,0.7873349577629435,0.8721914689340325,0.9065341092579612,0.9034810826573074,0.873355916790032,0.8256160943083356,0.7671005459186307,0.6940959469797866,0.5862477091415593,0.40568666073941406,0.13346294711362114,-0.07944435921370781,-0.09780144780956232,0.06148449117932147,0.37141590073423514,0.6492464544256354,0.7165248066823917,0.6799112530938324,0.630713198639787,0.5854012121039781,0.5416872299810033,0.4874987734999177,0.4091404209502505,0.29673108585367564,0.17033603255565186,0.08099108742542495,0.04588074717831855,0.03613678727003837,0.01718290371635487,-0.02204404435805216,-0.07610362183964839,-0.12925345041384323,-0.16008270898907678,-0.15048399498893816,-0.11221336713128507,-0.07639325824697822,-0.04057515854555108,0.011107022459526675,0.0881019465741208,0.1863838647048079,0.2775932740995836,0.3456522437848844,0.3935342734100581,0.42495666470336585,0.4307786753393467,0.4024688816441477,0.3383053958058834,0.2544106748807451,0.1858409078433597,0.1617351914319497,0.18498267122282142,0.2311426522860311,0.2632744246589236,0.25681354451997207,0.21486215786262747,0.14106226100345137,0.03546913182136229,-0.08304889440204224,-0.19067791592373307,-0.27908678086274735,-0.3519893677036227,-0.41327371880888997,-0.4711368451067342,-0.5203055792455086,-0.5503271378256503,-0.5572944588992057,-0.5501777230848487,-0.5358377940034176,-0.49733043813021244,-0.4235892612866191,-0.37721973864924074,-0.42124245592223325,-0.5106843944958286,-0.5765216074699866,-0.5948314042746163,-0.5656252780068171,-0.49037335076484123,-0.3731506384384773,-0.2454009632120022,-0.14154846726627707,-0.07645512897019356,-0.046107315278581744,0.0029547745484780337,0.1209331584156758,0.3064194350658203,0.48571876213809595,0.560769895977804,0.4722966828615725,0.15336977685797723,-0.2756884805454594,-0.5456652945058386,-0.6654783448752287,-0.6999926919290365,-0.6689507750343913,-0.5826757195273684,-0.5027472444510928,-0.494679746759333,-0.5110347116733789,-0.43681109282461006,-0.15327715049048257,0.21156561357825843,0.39990682839245734,0.4469248667215484,0.4128215993189813,0.333432626613374,0.23525888063835151,0.13639787616065455,0.053172527575319005,0.01283925841486434,0.04033262793026528,0.1317479583583248,0.2635292171690256,0.37997590854823593,0.43152118321819416,0.4239193630780772,0.37754971061214493,0.3174627486346,0.2626159264698462,0.21132872247277987,0.1571856465207649,0.09363984804973087,0.018087323701437837,-0.07106530271838767,-0.16705481353582682,-0.25825374296997655,-0.3334707884103642,-0.37829482481356747,-0.3804861804632015,-0.33979819618227913,-0.26345802833789284,-0.16221847053533686,-0.059859048853165786,0.02870143090362436,0.10701272441191303,0.19066433182251993,0.26201401455447715,0.2874093775346033,0.24761091489554063,0.14767763460886685,0.03077608315859285,-0.03891512758771865,-0.042267751906303996,0.002245339611465023,0.06579895614725974,0.11916893569819362,0.150063388085396,0.1542553193732424,0.1530387631859673,0.1796774732774906,0.23744841026297647,0.30108133107613944,0.35288446324900224,0.3800591941919602,0.3881166980221313,0.3905344796727141,0.39127382308203706,0.3610562173491692,0.2220588634198969,-0.1668554421666245,-0.631066826252598,-0.8294662442586673,-0.8888478946247409,-0.9035438232971527,-0.8905769690126847,-0.8164309732916739,-0.4737097954846037,0.30283978577301024,0.6491022223249879,0.7381596657747467,0.7595757144046277,0.7553495166071466,0.7355467187841797,0.7031360524049249,0.6580245191784831,0.5941954471876383,0.5142170610018237,0.429896188844264,0.3604488890389382,0.31578761170259056,0.2947655830850498,0.2873662335590691,0.27417928538964564,0.2404529134648886,0.18461094278322931,0.11206631127278402,0.04076766226478767,-0.003770999134731575,-0.0037766553506616285,0.04559166219274573,0.130652437706388,0.20949852563189902,0.22377149234213353,0.1713753595945065,0.10646000332504121,0.06046679644177708,0.06055046465676329,0.11989099181111278,0.19079717029805873,0.23922525459016783,0.2705820309565307,0.28500429781142467,0.27581329546462574,0.2471074050120449,0.2170341579018387,0.2100323662093082,0.2318833283287423,0.29131357370431243,0.3791895035217967,0.47042866068346867,0.5342357601216765,0.5568768341375593,0.5454432982785234,0.5052752525418418,0.44763866838688476,0.39785378092915863,0.37827844658176213,0.391808135897414,0.40560376314485563,0.39166187854241613,0.3247439490763717,0.16547924729505217,-0.09560374623803877,-0.39169362263167434,-0.6167630367871615,-0.7454218447381125,-0.7989552587743085,-0.8054748821110507,-0.7843239809551866,-0.7452570131251136,-0.6882451685936973,-0.6120159625568771,-0.5313893182948471,-0.4701334521257921,-0.42738939197980225,-0.3716452049275066,-0.24661411838434155,-0.03896972661979272,0.18489204853198207,0.341734076125153,0.4076695208125186,0.41389987687072455,0.3879158856406936,0.3574412436148875,0.3331535658234123,0.3063836211010841,0.27270269979707273,0.23347819898670752,0.19819506169305723,0.17986938218333842,0.19069092339853286,0.22360781569402263,0.26615945715355044,0.30803818179581444,0.3412524873996448,0.3552819866820905,0.3343528599899108,0.27932576207653137,0.1970206731014274,0.11370747252649839,0.0705736323069452,0.08026342081625737,0.12986604476255661,0.18740692563685207,0.2207383679925133,0.22128863912145452,0.22265680515982672,0.2774390608627257,0.3878333181375641,0.5039328520390922,0.5884157284721991,0.6363315406978025,0.6571715135646102,0.656834801054498,0.6330072976600787,0.5768061460871324,0.4724969278462354,0.3001560613504792,0.032750073589313526,-0.30902367841816086,-0.5592894801444517,-0.6699538162710935,-0.7030367581098731,-0.6973507720315522,-0.6680357036226194,-0.63451068586484,-0.6278896170934956,-0.6527506250504969,-0.6900212173938174,-0.7250004997787272,-0.751131489098475,-0.758513441116545,-0.7392613541013633,-0.6784758628193025,-0.5629320167555463,-0.4000675302879115,-0.23918877803191524,-0.1236316203207915,-0.06050814062703731,-0.030904639234566184,-0.010172583430295338,0.010854317717895577,0.028390163980207037,0.052377992441125044,0.10489229058801419,0.20388334373488182,0.33985642854611725,0.4765569610052207,0.5742150441257642,0.5906445191961571,0.521160110223115,0.4251708077689643,0.348822204674443,0.2920862370749306,0.25142470495750646,0.2213430615720141,0.20369502144635193,0.19343452470428432,0.1839409432153817,0.1732014686731836,0.1699140530794461,0.17543299449046848,0.18473491164872696,0.18366156888409263,0.15572790433224085,0.10328137427310817,0.03886186732340353,-0.008619445681935413,-0.025307452147148534,-0.021145954660632186,-0.008334814685871097,0.004790579260586803,0.018978187264093473,0.03040368267267011,0.06857144932371416,0.10886729508126416,0.12009518343479864,0.10003729718664876,0.048035408663176224,-0.025915811687464138,-0.08415021276726367,-0.09647419218077238,-0.03612738201130767,0.07608839987788707,0.19059708095196568,0.2621046930544524,0.25559190604901977,0.14046330086906572,-0.0744339035869784,-0.2737908580401503,-0.37641989480900667,-0.37774082872432824,-0.2792114580995541,-0.06252049081364087,0.2257049257204406,0.4497049204517952,0.5685420773763908,0.6238926365356209,0.6492027938453725,0.6498257324828206,0.6106081679191183,0.4964933378493431,0.29655303527807475,0.054523423074788385,-0.16736111475257195,-0.35493532832244595,-0.518784097101966,-0.6528898500859134,-0.7342328479498341,-0.7317261665320174,-0.6663413463356176,-0.5871803542689178,-0.5071537217792184,-0.4114440236767452,-0.2702044878440892,-0.0359542089615108,0.2524485905561951,0.35968462755120373,0.25321630525536465,0.052033959960118635,-0.12168428463201873,-0.2068857883710062,-0.20210194709010643,-0.13876598328903444,-0.05156838037150584,0.02428673753064785,0.07490505042516207,0.10333330162181052,0.11316737186493617,0.09708299231426035,0.03239813718295193,-0.0678481377539132,-0.170362733896018,-0.24591726005768014,-0.27404696591100125,-0.25163886132156854,-0.15133176756400846,0.12308608825454401,0.5733053631725694,0.8328848608450266,0.9057477650887632,0.9221529382963349,0.9214129634934282,0.9060197222930035,0.8643923352079975,0.7696407659647275,0.6292602631282556,0.5357531685831379,0.5481650301454744,0.6193456605194678,0.6875750790373195,0.7279033266297542,0.740287353879085,0.7332909836393163,0.7048670232131153,0.6406509999596431,0.4884351849423659,0.1734890276832417,-0.1868392206133037,-0.38967216402987004,-0.4845247882803917,-0.5574369834970224,-0.6524582481039246,-0.7609234435931496,-0.8474920379242543,-0.898241004258974,-0.9240317695133778,-0.9371032683150364,-0.9432717919739464,-0.945033899069192,-0.9423302569083629,-0.9327538824296507,-0.9073057511346574,-0.8452302669941365,-0.6981707447726856,-0.44229371729281747,-0.1842089681161396,-0.002309805702260742,0.13225110045937344,0.24836387358865936,0.3346805143697904,0.3942743110419634,0.44533413975088326,0.5040555698847832,0.5706406528827229,0.6400307554190395,0.7036832288289083,0.7497523635551611,0.7766266868261046,0.7960904807712087,0.8211524157470107,0.8521494102260416,0.8788621000325719,0.8996321136348736,0.9138666899004754,0.9204259247712004,0.9176307833498102,0.9030280850458824,0.8772285005045268,0.8460865023820618,0.8126260488248975,0.7776420442269586,0.7452161136253521,0.698856378345398,0.5815191013110015,0.23652140966888882,-0.38348718548392574,-0.742854074367065,-0.8603746822605554,-0.9014865228675298,-0.9174384514175912,-0.9213339441507504,-0.9118700939801081,-0.8655374122373083,-0.642358234661041,0.1307527582712751,0.5753211199606142,0.6394237552014195,0.6018270375884416,0.5451332943004957,0.5210455357462438,0.5493521935443155,0.6000350729641599,0.6470569450813574,0.6825150862278103,0.7000306665165356,0.7021563815848342,0.6930449979179306,0.6763873926851366,0.6536116660815051,0.6096891065079111,0.5047608108835426,0.32059244156611155,0.15848938545478214,0.11248858810813145,0.1572296606439643,0.24077057344863723,0.3271459230721148,0.39802779672256733,0.445919971596233,0.4707424815185497,0.47523249460203937,0.4722853919022062,0.46664853536797196,0.4587346728618396,0.43868114081914517,0.3698081910852818,0.19755057675202853,-0.11627924899909504,-0.45909866531757,-0.6718298162136015,-0.7671329433214104,-0.8063482783426064,-0.8162816921322036,-0.7959061000277936,-0.7447206393585681,-0.6686368920442041,-0.5807475148318944,-0.49352206057260084,-0.4033303178236222,-0.3041710834998115,-0.21176797203762568,-0.14387687416738557,-0.11284526636896945,-0.10307628137028109,-0.09134032203915814,-0.06892916538491399,-0.044920345592449444,-0.031825030663912825,-0.04429604776627094,-0.09236498572909506,-0.17622659134423566,-0.2613146135210159,-0.3124968853107834,-0.3386919556105684,-0.3666988845817891,-0.40687884858169265,-0.4484824928873264,-0.4771822858343523,-0.4872619130977059,-0.4720284100609284,-0.4262111297717855,-0.3580023667302224,-0.27718521934148294,-0.19223281729066208,-0.11543413273593706,-0.05636290841684636,-0.007731416470588458,0.04012460024448696,0.10241957194760544,0.1865249549523273,0.27054002857218085,0.3231894297260193,0.3372518524244623,0.3261738017265442,0.32091965303924325,0.3460043476496303,0.4033752194671971,0.48101935132838763,0.5544968345291083,0.6047480283382172,0.6320632572689202,0.63267153905825,0.6059959394878817,0.5764310376790603,0.5682811049363635,0.5757630715516853,0.5726353674040026,0.4387713756083271,0.12090632442820286,-0.11980391582448632,-0.25756927416261355,-0.3562961240764241,-0.44596052684533616,-0.5162697631047038,-0.517497120597524,-0.4311564494374007,-0.32225278123617895,-0.23318707297927613,-0.1540866961887864,-0.08166717915734761,-0.028939945039144564,-0.00614928047377975,-0.019297264705718933,-0.07176706669748499,-0.15370058236351403,-0.24494835653102576,-0.3149294579514664,-0.34907855982269365,-0.34587602683592567,-0.30072258249727923,-0.20498421845185594,-0.05211291938886363,0.1286751863307225,0.2823718029570833,0.36946727563253745,0.3746779482089073,0.2933708477917906,0.11086441132161566,-0.15936178930698539,-0.4014150558860515,-0.5097148150797305,-0.4344071901051733,-0.09206006405041367,0.3344772755212316,0.542638590055768,0.619557061587157,0.6562912820294794,0.6815489883571351,0.6992875918075392,0.6961801670935647,0.6450125212414121,0.51709005056808,0.3466585597230344,0.21167551147224997,0.14436891353296868,0.12023565789386698,0.09035114886000314,0.023476964350545214,-0.06108173007623667,-0.12595363149880434,-0.13863911913931118,-0.09395592111032577,0.008359427669363389,0.14149455098773844,0.2608577770110079,0.3190639441396829,0.29022425688037223,0.16859971763401516,-0.019745087599167106,-0.208849527782076,-0.32623046666415734,-0.34723508786950413,-0.2784886921435589,-0.14415083405908305,0.0050471637090749285,0.13289406335843112,0.20810355887888224,0.23063023053433862,0.2371134107598133,0.2783751569510301,0.377324719041672,0.47728009976167063,0.49863350447925475,0.39262074075393105,0.13885941573930302,-0.19160108191247535,-0.4341954567812397,-0.5517714262574445,-0.5861786301088067,-0.5789101549755498,-0.5547091362880886,-0.5303336400094176,-0.5144579129413188,-0.49914801368739536,-0.460938010493333,-0.3708184194730014,-0.1900419024864541,0.05899128144247491,0.2578943492429658,0.35081438146833427,0.35571876931122676,0.30633772562835715,0.23583956394230549,0.17679375122521332,0.15759081793711602,0.18554392859558716,0.24424952055245758,0.30342992417814213,0.3401394676180558,0.3504563819701198,0.33470666176824343,0.3063842720937908,0.27572215859031146,0.22945700662526164,0.16101963045654993,0.06752045645579215,-0.041771944925895955,-0.14556189283938922,-0.22675369072126822,-0.28230071940067286,-0.3190315685296536,-0.3484764104477071,-0.37844265773298946,-0.39016346808125735,-0.3556259185972509,-0.23835674267663845,-0.0028380534720891144,0.2938627703627836,0.5036226255743009,0.5953795055505859,0.6080083307580074,0.576311927619193,0.528037330608627,0.4711141841186455,0.3900291695277319,0.2580996589885546,0.07202042737545658,-0.13019634802289776,-0.28323038639344983,-0.3646126104568438,-0.398407524683987,-0.40175963610241366,-0.38007929384477157,-0.3389988782909096,-0.29556402146200667,-0.2542128202043506,-0.2070023189988557,-0.1344059551472247,-0.031554460547972805,0.07855537490629187,0.15836806090080535,0.20875960630413434,0.3224852955296742,0.5550062737099983,0.7791070606104072,0.8878716287689007,0.920511376000661,0.9198141651241953,0.9007265602124044,0.867905644306806,0.8259053702826936,0.7874021105663144,0.7687855633261876,0.7728715803328409,0.775166675103032,0.6952324357967006,0.4576292915869961,0.08109388288579478,-0.29177225787132666,-0.531084446960009,-0.6553114163204102,-0.7133202318605902,-0.7421736880724322,-0.7645293481294341,-0.7936749084989461,-0.8263334571699364,-0.8524344883066848,-0.8669691098193237,-0.8688767064619678,-0.8559842599823188,-0.8224326761251375,-0.760629607904553,-0.6612491063209261,-0.5202709449879855,-0.34562604846801515,-0.15544455657416645,0.01938528958090675,0.1667305082004269,0.29466881573086934,0.4085647245246191,0.4959274068865081,0.5521798178792182,0.5798254858511859,0.5648958798952141,0.4646114189801345,0.21520452851588337,-0.17054573082351931,-0.4917959614428016,-0.6391798016508007,-0.6433410862136558,-0.5094628243279006,-0.18496439724131136,0.19590347184109203,0.45189587618418464,0.6131809874951808,0.7265266145202711,0.8001577844654377,0.840420592026953,0.8628038278572755,0.8775279535773275,0.8784476288597952,0.8636994227039264,0.8418126308447864,0.8211634254530079,0.7948634414546815,0.7303682914864891,0.5136510906488805,-0.05296899741355024,-0.5504503853360938,-0.7273508080298594,-0.7690091731077394,-0.7420836631772455,-0.6469843387034778,-0.49103259790017445,-0.34933767208174366,-0.31838216693335497,-0.4008352009494521,-0.5240168007145248,-0.632633909667568,-0.7043057548643241,-0.7388052057344169,-0.7394904681554593,-0.7028095385509215,-0.6175307873868513,-0.42113204633247564,0.024428426813562686,0.5733637138639217,0.8096183107776521,0.8695167752561361,0.8752849440708983,0.865751316023469,0.8500577813957872,0.8340516035958107,0.8207727052674159,0.8026042348802687,0.752923223495685,0.6040855237916921,0.19550918936687506,-0.4099115423804337,-0.7294897790999779,-0.8402786182039035,-0.879795851625903,-0.8867218945827263,-0.8546626203725478,-0.6605849371688947,0.07212563347994648,0.5321707437166381,0.6354117843884663,0.6425635491804318,0.611113616399409,0.5597827446944661,0.5021569753228029,0.45104159020725854,0.41334861595785666,0.3952121631591247,0.39698114332203954,0.40692071515315725,0.4152326698894915,0.4267527786191881,0.44661333178694096,0.47213721750920706,0.4846509807976432,0.47783314097233787,0.4627039302857737,0.44725209094723845,0.43643834170119516,0.43973377146377196,0.45908684368757857,0.4874032258692224,0.5146046636844634,0.5348970085932488,0.5339191674284813,0.4883569421990996,0.36970983456630724,0.19995125545052714,0.05741462332022542,-0.02211905519544102,-0.039757186492224615,-0.015779804437876042,0.031721877193337925,0.1085074450115238,0.20223783697755549,0.2769780738174909,0.30197363873339017,0.2705293456569485,0.19629862114770583,0.10143974100313731,-0.0014453042274535314,-0.10936580829123689,-0.21513432768723995,-0.30684956614314146,-0.3695853552914952,-0.3987066073899448,-0.40502057194422614,-0.4058752430716078,-0.4039466066687179,-0.3871350643115448,-0.35804440947102945,-0.33374133312402127,-0.31592217326402927,-0.30097501594347137,-0.29108718420721097,-0.28556294241175995,-0.2868133100028344,-0.2860027393002961,-0.27740753580926425,-0.26325871841598497,-0.24858793409836907,-0.23188028514716738,-0.20931059219868522,-0.18111172045970178,-0.14922445547133856,-0.10805810546095662,-0.056455411395138336,-0.02411182882092622,-0.032606575307666724,-0.10105025751476675,-0.23612131098262856,-0.40426256468287375,-0.5238391625115264,-0.5383535551120842,-0.45493922115229257,-0.30884098185574077,-0.16055334394985366,-0.05695359259170556,-0.005518260770455598,0.009525910259236848,0.003313428076335781,-0.007826827623524825,-0.009991774770235499,-0.001874356993840788,0.0046338606275073465,0.005872688314621199,-0.0007936676555306607,-0.0011545258279113554,0.016689890876706685,0.039730647165073345,0.051735121586577976,0.043086566393004455,0.022086002723659723,-0.0005497768435934406,-0.010751859358239425,-0.0038076855334857984,0.019495661706785444,0.052830532069409186,0.08134701111314856,0.1034753902461841,0.13173227338763355,0.17355874908384733,0.22457855699598794,0.28164714646149563,0.3344061971407479,0.3680761165462035,0.37102945890636757,0.3348131918187173,0.2578836457868712,0.15349729157815079,0.06699682773098438,0.014485943686214788,-0.03378476548535624,-0.1133927088197185,-0.24003542275543624,-0.3885145894639467,-0.5124815144894779,-0.5871662607285747,-0.6011863283747223,-0.5589596069254748,-0.4681279991418346,-0.3543184688341769,-0.24915058897684705,-0.1710072954917976,-0.11504860955854193,-0.059116996992994636,0.013505729914777121,0.10185065624043503,0.17972820174822826,0.21963170949767097,0.23530499765030982,0.2525154646922335,0.2888025115157532,0.3526438642062226,0.41986054255253275,0.45791534995472766,0.4614009401728679,0.4403142416516093,0.4127354957926713,0.4276526641997724,0.49590878004164335,0.5630138953447489,0.5726788642607279,0.5349661958826328,0.47098607695102906,0.4058385449092889,0.36549897356398947,0.35753068161656865,0.37757610919085616,0.39978154374147346,0.4048359753462873,0.39817708751835756,0.3756672386597407,0.32171367955962754,0.24457446452045534,0.16906060131735803,0.10824247095337562,0.05631191476381357,0.0026212885659615305,-0.054207470531759436,-0.09060022277000017,-0.08676793355373247,-0.04343101481517224,0.014896855665446773,0.0644350000085786,0.07156812275804232,0.010676998862101734,-0.14995291506784542,-0.3841904349290086,-0.5633332032722088,-0.6460219258509626,-0.6824271421676252,-0.7103466384735134,-0.7212918057085667,-0.6318831430665823,-0.3067491500483001,0.03386833375764801,0.19944791321315775,0.24816429649253938,0.24711642020784255,0.23421428177245185,0.22229569073193006,0.23097602489533317,0.28823749261221,0.378341362685849,0.4447386793199193,0.4633773415459091,0.4290657173614299,0.32677428090547794,0.14966744484414207,-0.0292486126568862,-0.12511396219169765,-0.15328705628109823,-0.14840581161631616,-0.1399222762892913,-0.1337123829098152,-0.108898614048896,-0.031117313011505415,0.13912799955412683,0.40052314607758,0.6180979894035113,0.7047475233618689,0.7018677264068136,0.6420752997433348,0.5382023915895533,0.4161774886193692,0.3175497805762929,0.26030176360159013,0.2337173536994231,0.22417164416204655,0.20380832125423967,0.14996229537573563,0.06521686915621464,-0.051642724418868406,-0.21252398220976249,-0.38266757794217965,-0.4879179223294674,-0.48884575362838617,-0.386182948654463,-0.17152519026138738,0.12643995377546405,0.33758724523809897,0.35229913050445144,0.19043920215861299,-0.039068996942926815,-0.2246683125146612,-0.3543713037601744,-0.4520007044629926,-0.5316870209990835,-0.6005665998755598,-0.6554966290645577,-0.6962097773554892,-0.7258946380507908,-0.7420667714987501,-0.7418301510592983,-0.7268075775167491,-0.6946015728381769,-0.6129641842641776,-0.3822865571782676,0.04946810846090458,0.40013399684879825,0.5533120332600296,0.6042243965808168,0.6011843284760103,0.5532763595194695,0.45583784522002807,0.31547647654138167,0.18759122665796366,0.14876087797160192,0.1937914883120792,0.2645045585341109,0.3106702984948379,0.3204173310606708,0.30342463726298297,0.2544075919524431,0.14166404563806576,-0.09056334767557325,-0.4587531518893658,-0.7808865171243583,-0.8976137181568631,-0.8958387805233742,-0.8220312959645347,-0.5565585778883881,0.06908630880593465,0.46461960789077417,0.5872943640258202,0.6238752027131671,0.6409458050991388,0.6622632805056551,0.6904177118074413,0.7073363157040422,0.6836232695762681,0.607074581650851,0.5020670609376309,0.4354422482714286,0.45446211067155556,0.5337537889712985,0.6162779901372684,0.6576089263184163,0.627285905739989,0.46031992364225083,0.05737516027587581,-0.3816693936741638,-0.5984156294137485,-0.67777064479737,-0.6969692587788607,-0.6828066725597784,-0.6373607585695165,-0.5552325613186141,-0.43247904643718227,-0.2697613842995602,-0.07496275473174063,0.13541092312742298,0.3388497386287669,0.5100888425796279,0.6262699840137642,0.6756481340161389,0.6695004243760635,0.6479898790848811,0.6586700231126584,0.7085965098134233,0.7588260331270731,0.779431131419409,0.7707197691323125,0.7453874123515456,0.710555905718322,0.6756460076009623,0.646002967581294,0.6215970436917407,0.6008665875279804,0.5762011283587594,0.5378593951535736,0.48241274346720064,0.4191207693610196,0.3602566566250008,0.31209648226443154,0.2693787312727516,0.23243021904123864,0.21065818665004954,0.2037078049937531,0.21608370337380728,0.2434894725072014,0.2798976425694273,0.3259470194658607,0.375972729250778,0.423248602608697,0.4631448806962202,0.49008043200680085,0.49651166564787097,0.4827873003537436,0.44710852387263833,0.39024397946424794,0.30382940945055353,0.18001349466504038,0.026348615454404967,-0.12914429772022676,-0.26145658240198966,-0.35611075936811126,-0.4374887251896144,-0.5464113558297728,-0.6931329959340745,-0.8178650422162594,-0.8831784097553265,-0.9091209147738861,-0.9178649930696577,-0.9185915778369795,-0.9127842241500502,-0.9008275401299458,-0.879196536661442,-0.8379317698100716,-0.7598954091949534,-0.6381872394668747,-0.522721978204358,-0.4635567397456254,-0.4497532439236764,-0.4540187297858844,-0.45605589439579725,-0.4420799114890512,-0.40285222676621785,-0.3289137980235584,-0.2299350324743817,-0.12915918823954972,-0.04653802055094167,0.006577680054105784,0.03538956442332723,0.049736608588422895,0.06061315233236289,0.07463332181685312,0.09302523567127817,0.12243072056304127,0.1572937549601436,0.1891816234094567,0.22104271680027518,0.2621291235798885,0.3094881677818951,0.3612684578995047,0.42749095786535163,0.5137246740273229,0.6024234198483991,0.6715058386587724,0.7100508034272109,0.7353788854641565,0.763382948666007,0.7959920512676174,0.8197589652714851,0.8211148381613738,0.7964117963786077,0.7576559600514592,0.729076158627466,0.7178045036077004,0.7100029359258343,0.678699104447527,0.5576886370033998,0.1537271849606935,-0.5044270857260874,-0.8006489324075982,-0.8781830876451695,-0.8837527271351096,-0.8265043770121917,-0.6305817483281798,-0.20527996957028147,0.19052283133046435,0.37022992555977297,0.4227953251436167,0.4117171096462523,0.3687852218457599,0.3043594002032696,0.2230454593313632,0.13229814977053075,0.04360512131631061,-0.03377819563241456,-0.08825859625255851,-0.10738045060173781,-0.09241705037801971,-0.04819137455713844,0.013777299164463179,0.06935619453657912,0.10397434964286334,0.13006165791439725,0.1600472747381725,0.19791335332944268,0.2476216904441674,0.30880906376003237,0.3579632430327225,0.3752807498100248,0.3522222289734387,0.281144048837574,0.15180850701230122,-0.013189889482971201,-0.1398933517620505,-0.18400535959415124,-0.1687704893328437,-0.13664526263601712,-0.12311034964654445,-0.14810481222759134,-0.20940071051947673,-0.2719236496422062,-0.29879037019788796,-0.26771535058295765,-0.18102624281905763,-0.0729096285147229,0.013107322612324127,0.06622988038815343,0.08934464709205996,0.08749089816783069,0.054191486296482176,-0.005748611621997845,-0.06259802965805318,-0.10663332177040226,-0.13436030889737308,-0.13971315241051507,-0.1016906936968285,-0.0066468776513754135,0.11763745067812315,0.22166149456475884,0.3037736542754386,0.3749209099697037,0.43953815969378707,0.4928395536913044,0.5231570335392666,0.5227944276103901,0.48426201023995386,0.41500588467054367,0.3367102034588981,0.27664470315297557,0.2384015234214513,0.21197569448939077,0.18711289946765539,0.15753022465777108,0.11827948752232073,0.06136480554376505,-0.011570828519088373,-0.06381745830161532,-0.05084247455809003,0.045980891338899946,0.20993658041058133,0.3802165964842146,0.4924972097988749,0.5202024518723501,0.47160054815706526,0.33926743015127053,0.017244173489989842,-0.5141273649775269,-0.7700397328911335,-0.8110250097456683,-0.7898087561878685,-0.7359387220348564,-0.6494292548193903,-0.5431143556737333,-0.4404389796899634,-0.3591376009276549,-0.2832572866088803,-0.15139672719805575,0.06121497376522934,0.25131502924899113,0.33445596810378636,0.3424624056209419,0.32475432850105945,0.31429118374062237,0.32976948304128445,0.3806674611009318,0.45255115829066916,0.5108736107203705,0.5286684759091348,0.4932549836704825,0.4041912837018451,0.2715319696701678,0.12240450286312424,-0.0004959349213070326,-0.0679296355125089,-0.061656375760547937,-0.011720891785088124,0.011083140056086736,-0.042282212456572627,-0.15924112508557983,-0.2857614425307247,-0.40087672228066434,-0.4970483160785863,-0.5702112050934861,-0.6245670646995336,-0.6644737551540736,-0.6844891471852623,-0.668370437644196,-0.6121392081377554,-0.5380634749800387,-0.476668231372578,-0.42961778516320986,-0.38465494976253206,-0.3195441617909976,-0.20302435314883782,-0.015212041904713059,0.22937815005640458,0.46270051309305193,0.6048704227502419,0.6288864843471775,0.5328142146996571,0.30514140081124164,0.022494143596916063,-0.1726362225138668,-0.2494717151004721,-0.24057250725805035,-0.15260057827957124,0.06236887009884585,0.3719455524646817,0.6029005498804482,0.7173887666363794,0.7687821069752758,0.7836122455186108,0.7672945933705243,0.7104609117343127,0.6233521248967842,0.5408565058690717,0.4886236257902504,0.46563469503110294,0.45890668137885,0.4545206694342659,0.4479198475588864,0.43218070036516165,0.40377926388475177,0.36926317432151784,0.3361417121243973,0.2904710470084284,0.20231922077080228,0.04487007543694915,-0.11911243535970892,-0.20577311589510552,-0.20841067555510534,-0.1536232732949928,-0.06975562058606592,0.02809891158658948,0.12971781400712484,0.22215623184432762,0.3010352817292825,0.3708846166990366,0.43328311879725,0.48046855696549284,0.511122384177112,0.5203952592739044,0.49050820151886715,0.3940116428440345,0.20846412306077283,-0.03432515022478574,-0.25489279807438375,-0.4199454107933904,-0.5312627386184078,-0.6029545881087627,-0.6404800420117848,-0.6438601010425621,-0.610281003351903,-0.5392730312573742,-0.4482108349383175,-0.3481515091343494,-0.23219627361382864,-0.11316242667760597,-0.020714536734180028,0.026536265238557424,0.0334548626513759,0.005961831266146259,-0.05534015946504591,-0.14123423859803863,-0.2278374542214055,-0.28126033515512866,-0.2825121365224497,-0.23476465898676896,-0.15505330049341542,-0.06791197106931672,0.0034799915751638306,0.046100892466094646,0.06056065649178868,0.06546474297909677,0.10238557428649321,0.2143580099444701,0.40800432535475595,0.6054550117224152,0.7228054907094587,0.7546325450003839,0.7086060919673167,0.616664569970983,0.5527114929730412,0.5586929017644213,0.6159553843944979,0.6755879703072506,0.7211038724222939,0.7591761002394489,0.7990726911029805,0.8299484904684007,0.8464568659308143,0.8443093302875837,0.8212210535926125,0.7716607486577801,0.7002820215075567,0.6099472238165801,0.508305872296339,0.4028645038449313,0.30447527042344047,0.24637110883817234,0.2526812360077778,0.2986765887696207,0.3392529154014382,0.34040460476565676,0.3178304309114101,0.3037500349938509,0.3057504324979643,0.2775456261830178,0.13015412526373252,-0.22419404869566623,-0.6248567147673912,-0.8194064051255086,-0.8846430789967566,-0.904721565164501,-0.9077226112772202,-0.9036285484661155,-0.8910230938579661,-0.8699272874340105,-0.8408890066096611,-0.7911951206391586,-0.6869718140189305,-0.572907335924521,-0.5494025076717999,-0.6173847989330782,-0.7140256762793642,-0.793070396834191,-0.8387484183807785,-0.8541603721716643,-0.8449532663083661,-0.8007344454148778,-0.6957569328169131,-0.5021157764194717,-0.2607397501211785,-0.11118341323637956,-0.13110163774369987,-0.2999428529527909,-0.5253234699294871,-0.6877913438594124,-0.7479079379320422,-0.7146748837437368,-0.5430020226392205,-0.19386598052486817,0.13688552522176436,0.30828453445765075,0.3757917370515855,0.4181402230071952,0.4771144823649394,0.5777949478817309,0.70229586960451,0.8104017785663622,0.875714818950992,0.9088856579501597,0.9272508339797312,0.9387224992670277,0.9432760487933834,0.9429638494303342,0.9402571106550663,0.9354812530948126,0.925626515462833,0.8936024883539031,0.6753072631473901,-0.6388273884323611,-0.8901417817850448,-0.9139450665502397,-0.9145170638709741,-0.9073792474713325,-0.8931922262538754,-0.8693216230142735,-0.8279077866574386,-0.7370901011181198,-0.4453979981058701,0.2335751912368782,0.6291406889492236,0.748187593835458,0.7863229224849302,0.8008674270757171,0.8093314590348972,0.8207553372334672,0.8334089474415309,0.843558358131208,0.845724055621681,0.8381915388146012,0.8168916863425331,0.7748827270573092,0.7032432996005976,0.5840117174862715,0.3711303741763274,-0.00961329215131962,-0.48160172270366625,-0.7712278656940579,-0.8809834947880187,-0.9080776416919906,-0.8836437558187743,-0.7713072003064009,-0.4428585014544721,0.05666878434961484,0.36201744121147794,0.483007553623661,0.4993415756263297,0.4356198285872698,0.30457182861171544,0.14073218820845665,-0.03180134475673081,-0.20236684726763884,-0.3412966750256584,-0.43520355003996425,-0.48152964582351,-0.470352512607316,-0.3624500442075706,-0.11544279044084367,0.1532895550594982,0.32109138210318544,0.3923810122398082,0.3978370664734531,0.3551713452148168,0.2864157470353854,0.22612363294633372,0.21423577014799836,0.26306087732366684,0.3505950642578685,0.4426889931726665,0.5232384112159093,0.5873367226253376,0.6260136056705989,0.6393415398197418,0.6335337922369491,0.5956695314284344,0.4966421886719857,0.30159231331515896,0.0257806139673174,-0.23265483235166626,-0.3981388284877041,-0.473722724577454,-0.4896493100875626,-0.4669098562230438,-0.4244444202649854,-0.3912714142727962,-0.3985594521181712,-0.445024164464791,-0.49490070852197965,-0.5242323362389697,-0.5487978088959494,-0.5934926697131921,-0.6517846808753617,-0.7069821530731059,-0.7470961422612363,-0.7702005952257232,-0.7740817324805912,-0.7525393616216567,-0.6896782836007335,-0.5642891337117091,-0.39437081161622617,-0.24569336094943686,-0.16193761212475202,-0.13477242849939808,-0.13936304634795227,-0.14681764911534792,-0.1438410201089187,-0.14685627643220694,-0.1545033450357796,-0.14867162117359134,-0.11399780239555776,-0.026280154336879323,0.09556993907632767,0.21106534051319228,0.28136683132214013,0.30082332210290125,0.288403396257135,0.261525203805471,0.2345401800291449,0.21672927174983794,0.2087613381300753,0.20976246871656704,0.21943936158915453,0.25084378364275833,0.30833158563792185,0.37747011066726793,0.44140802659477163,0.48910336403913557,0.5123684942159829
