0.6997276855500374,0.749416366519411,0.78697322559397,0.807976305022075,0.8047827473131806,0.7688670008079341,0.6926459574157449,0.5779111258499608,0.4389870328447524,0.2990284848835503,0.1777118078283573,0.08653695185683104,0.046970310466664396,0.09473305703219997,0.2244609007621075,0.34921490119503334,0.398551666158029,0.3869964714087459,0.35317846761924454,0.32740030992640495,0.34338222239371335,0.40364209679261503,0.42470626076015866,0.41702655387964965,0.42513126617842967,0.44622523243753015,0.47523072696032836,0.5006583430191638,0.5023217487624803,0.4511082324476185,0.3170550750488381,0.07773360948231414,-0.2530752002662375,-0.5747564519302043,-0.767279842017475,-0.8460610802011058,-0.8610359989471237,-0.8402341320241121,-0.7852793615969254,-0.6766097090673727,-0.45858149436387696,-0.08019388521748304,0.2809045893293312,0.4562234335803267,0.4965083119403372,0.45038649624960564,0.34993433265345764,0.25051720967017166,0.19346343172800373,0.17477452654450953,0.16819099362955559,0.1539741832727004,0.12231027769021335,0.07834090047012598,0.03331049354512783,0.018609598282291,0.04013269630460583,0.07291822096849629,0.09404932545966832,0.09308479646537049,0.07535441151904201,0.04678711334085279,0.030838318012758596,0.05067482816788505,0.11210733378494145,0.20028109906495306,0.2928441225872478,0.3660447517756549,0.4301635811319435,0.47553157206067587,0.47980646421291256,0.46337106543194806,0.46282849371143137,0.48599315526846787,0.5057600864505064,0.5131096439574501,0.5004294521744528,0.4637362433638425,0.4087811292738848,0.35394599810623856,0.31955189172364484,0.3062028608656454,0.29927611620144223,0.30322680016608783,0.3203053200360196,0.33337116301047287,0.3290781858900618,0.3072263699406649,0.2751613983433467,0.24757861216778276,0.2337782373002745,0.2371156403931235,0.2423244348578098,0.21861166102854487,0.11988041706666773,-0.11636250850283818,-0.48286686421165986,-0.7618340472061826,-0.867229298596401,-0.8976903745723165,-0.9081323266885926,-0.9062325557772326,-0.879168516754312,-0.8035777349976417,-0.6552981865204287,-0.47039276853900824,-0.3000730488626999,-0.15766409915685542,-0.040479789348177475,0.0456477998180494,0.08131253285052545,0.06178679146158915,-0.002502434437325564,-0.10210694893237111,-0.21599869408579916,-0.3240814503229316,-0.4115740760556941,-0.46646566085247965,-0.4937792961980336,-0.5057479670456505,-0.5049238447075138,-0.47601692278368984,-0.40482255402922473,-0.29647411128590523,-0.1934032649426418,-0.15468461415130433,-0.19323627181919448,-0.27374720582474343,-0.34529726707660535,-0.38437256393091546,-0.38467924587653124,-0.3500651223584641,-0.2862464851477537,-0.19047632932906433,-0.05589934680276848,0.10511002099850104,0.2569625777460373,0.37386045407983237,0.42769237148642414,0.3407796175562147,0.11828092170408812,-0.06698148787886975,-0.16395590950498207,-0.20040962615557473,-0.1821290126481073,-0.11003093180427011,-0.00964597338757809,0.0874597698247934,0.1690590994063945,0.24498605861018707,0.32319664034659457,0.39735277835445526,0.4489042011177567,0.46773179988884295,0.45548808414866976,0.4177763364645094,0.3606468619371531,0.29869585740718135,0.2544861798303159,0.23938943411990815,0.25391660397117966,0.2905974946214723,0.32062765778333346,0.3212729044186585,0.30006155022916603,0.2780873036859289,0.26550871731210884,0.25636045690359993,0.24281333503232322,0.24273151266640292,0.28215970975717697,0.36546700427792855,0.4676012934360344,0.5504405465450335,0.6059552004236864,0.6411871700259012,0.6626684642118116,0.6690382888565489,0.6551172751159883,0.5884525176673414,0.3672151537708264,-0.09926320053314663,-0.4882172001804841,-0.6558156378438941,-0.7295424876433086,-0.7760069612307612,-0.8042208738193822,-0.8038545724619582,-0.7729193975274715,-0.7183672192842625,-0.6489300119108443,-0.5864420517454462,-0.5419219424555096,-0.49076927564261946,-0.3962714706397453,-0.23639797177849534,-0.04612848474724692,0.08854849797728609,0.11881685839146448,0.047935441452905916,-0.07505013373143783,-0.1745304282532235,-0.20784903447274436,-0.1674998236159432,-0.06963585964856471,0.04209800089939174,0.10181700092825685,0.08137721992687941,0.019945589014690197,-0.015760355732366706,-0.0035519854946274893,0.03741968185895558,0.08516671408191791,0.1284811232586179,0.15877429239111315,0.18748181421657348,0.22163837262743014,0.2463700053674265,0.23649900087010534,0.18636512229886867,0.10938160999645094,0.043787736801682874,0.008794446265290084,0.01308563117144194,0.06341223370965236,0.16529854123393323,0.3110932244741526,0.4769353774265145,0.6095037890944381,0.648248871849705,0.5783049288272567,0.4043478938380989,0.21122184033183655,0.13540090721225992,0.2099000119390375,0.3762140399301475,0.5402462706188847,0.6535502810293266,0.7162619497313849,0.731728636897068,0.6862527880203594,0.4652451386701831,-0.23253059853663496,-0.7606224931493482,-0.8849940715642278,-0.9056747875306366,-0.8681961713286045,-0.6776383586745187,-0.1287263071458347,0.35731636235764125,0.5450316986126044,0.599130702443569,0.592508731434093,0.5563202878702096,0.5130684050847467,0.45344028081456444,0.3371615117779101,0.12897710094005346,-0.14497535612263118,-0.3917286022023683,-0.5458079534519819,-0.6187236422122245,-0.6383577398550262,-0.6217889712764185,-0.5834475811718174,-0.5365736465263927,-0.47370800464571894,-0.32811295725887535,-0.17470807190287882,-0.12326638070555815,-0.14018481514787753,-0.1914427101852936,-0.2587961891274098,-0.3178452699425531,-0.3183823234326841,-0.2397975753631056,-0.1216084238870813,-0.018753388616465774,0.03308447236876157,0.04661742000866757,0.055164396459036695,0.09925299938539706,0.2018957208005696,0.35059493923735435,0.5030410335137138,0.6131095941692343,0.6547196989810558,0.6432281697716886,0.602454396146826,0.5372008054199162,0.4391251908447057,0.3386973247888043,0.2740034429631261,0.23012501373726021,0.16206572136900993,0.03980323003127352,-0.11161027570729427,-0.23673886636731725,-0.29616552883167596,-0.2619744155957384,-0.07490304625722073,0.2757842784890318,0.5091125441337541,0.5376707946770316,0.4470722798652384,0.26348688882489857,-0.018684844008780916,-0.28957330488162225,-0.40399575014319844,-0.40373751161600574,-0.3577978538355908,-0.29156959262608223,-0.19060530478504284,-0.046335865645698755,0.10595120549695886,0.19034195377827112,0.1558451273263333,0.01565238437127585,-0.16531144028652675,-0.3189456937116328,-0.42377022719651725,-0.4884383321589875,-0.5236134711977214,-0.5333643101088001,-0.5266248917112017,-0.5152548377509084,-0.4938377634764079,-0.43924253636597793,-0.3363855708696457,-0.21076746279691314,-0.10869734011790318,-0.04601971232397597,0.0011040562490480354,0.060634316832028856,0.13485346703024872,0.22373294746741643,0.3223204656846019,0.4173169410792696,0.4904215548709017,0.525078017147432,0.5139945135666238,0.47646532409794273,0.4555999211799528,0.47325497682129725,0.5122061095377852,0.5395986254997138,0.5379068766028369,0.5011184682063531,0.4150838890364566,0.2590779190556207,0.06550610024788737,-0.08384997070152435,-0.14040874090696118,-0.11146245109450319,-0.050491264368431155,-0.05188192004350626,-0.2121846146412284,-0.4825115494107987,-0.679955018049767,-0.7636878995177173,-0.7841833191844417,-0.7688348100234236,-0.71088630977671,-0.5890446888029854,-0.3852155917551878,-0.15869859553542343,-0.011548717363203672,0.03280997364875412,0.018562378126283134,0.010415055020708818,0.049158036294484474,0.1435324357725004,0.2723385320220954,0.39480695250639286,0.4685301196084504,0.47884402581612495,0.4276580591523314,0.3187153109521828,0.19593504141049659,0.14799142486797606,0.2912705408803841,0.6111550978038631,0.8125702261178017,0.8773199658899914,0.8870458015357363,0.8658547936754813,0.8084796279195235,0.6781943182232393,0.41026831012752285,0.07352696252139128,-0.12471387374846513,-0.16665233429796397,-0.11629148427874256,-0.04387107185215464,0.011014677981562086,0.03968331742085574,0.039070388166187374,0.02490801076118562,0.024397993692038746,0.04094555799817749,0.05985468616128594,0.09235443913090817,0.16364239721259435,0.27736501040538286,0.40348256841638114,0.48934576651392353,0.4915903760676285,0.4092006065659899,0.30383865957309125,0.260307880312645,0.2887012422744893,0.3348669842337656,0.3487705425047407,0.29370158823921266,0.1513104017030876,-0.03449609125044567,-0.15504585711611357,-0.1382491071049561,-0.00749508129333606,0.12661298239606503,0.17195582626285225,0.14041361275484116,0.06708797665598508,-0.030949642806957056,-0.14990259913200035,-0.2942012448547432,-0.45225796576075383,-0.5900941958609746,-0.6816959178585229,-0.7315498321876335,-0.7356715936400581,-0.6901249286025014,-0.5974446235204862,-0.4451581525080208,-0.22230372488268285,0.03800412058492018,0.24543878299360536,0.32974826425922565,0.27965859004158145,0.13199912604233674,-0.05164165757240477,-0.21523998849079315,-0.335024071924949,-0.40594097115596517,-0.4194391067543164,-0.3475611646569744,-0.17257607541909203,0.07181210548950258,0.27449284270905683,0.3751031819587518,0.40096610882331624,0.3940824544377764,0.38446336151711497,0.3891490122816653,0.41159793397557265,0.44954560546059336,0.4916026012284893,0.5136528291295902,0.498610648369252,0.4260719038449305,0.27121012953135754,-0.012468361767743772,-0.3905305946910044,-0.6794761346270514,-0.8248169799973454,-0.8898219344022547,-0.9176855976354159,-0.9262130514802176,-0.9172370470173231,-0.8734011766201221,-0.706634441459448,-0.15806942131870805,0.407592015272944,0.568476074756922,0.5429020394563595,0.422208785343119,0.287343758659528,0.23617781252064973,0.30028370839184504,0.4164837755588653,0.509423660644823,0.5532265426200327,0.5492116430591687,0.4941868105516707,0.4026595238186419,0.32178979188957424,0.2916510360253511,0.3186356536058078,0.39016302168065753,0.48101224125266573,0.5432910800387143,0.560254660673524,0.5481339310225025,0.5233406200208495,0.4914575025995542,0.4525358884410051,0.41035155055591277,0.3679946665916676,0.31851099455704135,0.2475584525028133,0.1587733740211535,0.07378211787255713,0.02488567745591215,0.009907729245454949,0.016583006286041563,0.03426121651703088,0.05688195660669545,0.07841200578352088,0.09639601865462542,0.1140001528558095,0.1250149740769084,0.11872637507577645,0.091995028869516,0.050070300777941605,0.02656029924058104,0.03378759818959156,0.05566193859279509,0.0706808573566615,0.07214340791460137,0.06332442273339028,0.05884606364328093,0.06712312793184982,0.08307578217266624,0.08995531718574583,0.0797290886159624,0.046134901516787605,-0.011145656276313125,-0.08751653842609546,-0.18101930944107078,-0.27440683182457754,-0.33101780579363305,-0.3360646655826694,-0.3024707479586695,-0.24497463417021934,-0.1792686607783395,-0.11744673832175397,-0.05870171817129245,-0.009155077235914334,0.021088223846354778,0.027277095018060138,0.03184954538950257,0.07445877396164814,0.15955352990266114,0.2241731589383034,0.23155016222384317,0.18156297833021487,0.0931273726583773,0.002322596613672026,-0.04327213955257566,-0.014722253599083048,0.0904112758577174,0.2486884529218677,0.3936644019335783,0.4753048670451296,0.4867364252615409,0.4353662081906255,0.3263958770839851,0.19376754000023413,0.07803061487886961,0.0076358539308975385,0.0029497716398191863,0.05906110572789782,0.13033504542588675,0.17908173931570814,0.18707136042075825,0.15442423948639536,0.0802043518609644,-0.017402203706770664,-0.09287688931441701,-0.12224315800194928,-0.11450074171087528,-0.11361049364091903,-0.14401951630460552,-0.1735507760038204,-0.1476396078003066,-0.04760435183375463,0.07539349640074253,0.14115603631501653,0.12493637837041824,0.04796757482279413,-0.03949914363071598,-0.09121420974864437,-0.09224950489688719,-0.03964357940897994,0.051823099195209534,0.15766864836108027,0.24622155703385215,0.29262273561969077,0.28564719116425463,0.2377848056489039,0.18211324442425106,0.17305119300360683,0.2423763033295295,0.34520537034807997,0.41195127147501026,0.4031816880611769,0.30201054827403645,0.11873157688888591,-0.07404206210342307,-0.22364605765611045,-0.3215682690682154,-0.3693403841924619,-0.376653382828789,-0.357281652644591,-0.34347140073481797,-0.35547799168964733,-0.3822462871604252,-0.40401530392186724,-0.40676948745737734,-0.3869638659564137,-0.3501937096563241,-0.3007220638869014,-0.23830296830493,-0.14092881177948752,0.032961739633583495,0.24786529326878828,0.347187317174676,0.2308470530866984,-0.025080081806479602,-0.22703712461985956,-0.3095959701871659,-0.2895780063704061,-0.17291496487360716,0.02450357389229139,0.22948825804389716,0.3768167191485578,0.4527887204914793,0.4664751490750043,0.4247918447179855,0.3508756523299685,0.28542665582971694,0.2633673749550835,0.27541355999343514,0.2970845641541441,0.3010248086988516,0.25099850523956435,0.10334490672528834,-0.14724614054062266,-0.4134729201031588,-0.5943072714642748,-0.6730872906206569,-0.6530709828118957,-0.5367673627227952,-0.36928719132115445,-0.21004353172549034,-0.058590561079054145,0.10036715458282125,0.26074185452535964,0.3815892648245805,0.4388315982856259,0.4553030031562343,0.47028624975126543,0.49425381080622816,0.5136815918870903,0.5175696000640692,0.5035830895464427,0.4550226026717469,0.342963675530741,0.15072268866504687,-0.0898001345521321,-0.27230047727310114,-0.3097851814191831,-0.26045014659625615,-0.2216745324150082,-0.24057519884372378,-0.3001022417440413,-0.33812856951914055,-0.2895598527838417,-0.13633606911695614,0.07612945677180183,0.27038610468666024,0.4092619697537102,0.49494379442559144,0.5403442476875736,0.5603777154967807,0.5722068601410253,0.5756506544404143,0.5647381435925386,0.535415385874017,0.4869944344407184,0.42955136059948307,0.3720335434834345,0.35369641138834623,0.40081543697116057,0.5228999681960683,0.6666968182359772,0.7720637193794269,0.832326970640251,0.8610386975135237,0.8640848777948299,0.8363041611505257,0.728577003616301,0.21331914961274348,-0.6735118594615457,-0.8528149738609526,-0.859986173149019,-0.8149831305585337,-0.7204175368405286,-0.5914074455313862,-0.5285492296158497,-0.5984501785791878,-0.708376467353677,-0.7746419278169216,-0.7983371490415382,-0.7913307397034869,-0.750433921176999,-0.6457037505896757,-0.42305277041735895,-0.15568937612678277,-0.07990015585943065,-0.19573836731738464,-0.34740981515186664,-0.45536199925042276,-0.5172104485089208,-0.5454739284052645,-0.5494801578370023,-0.5325019084434546,-0.4913394825915681,-0.41351464761552836,-0.2628334076159429,-0.017795012823884588,0.22542288076116324,0.38414480704984894,0.46629058074825086,0.4940085616182368,0.4897993510243347,0.4780333962385573,0.4793853645138599,0.5039784415485422,0.5541003494845237,0.6233528733552833,0.6907382329245871,0.736770323246609,0.7559769388078028,0.7500500622030611,0.7164996939143112,0.653199154013533,0.5622130638782816,0.45761190578709454,0.36719847996076044,0.32512677450114946,0.3432464269247277,0.38830209703784163,0.43105072333533007,0.46338570375841703,0.4843016931700805,0.49163992642358245,0.4845681110189964,0.4615141753975705,0.4135624241579417,0.3318595588017341,0.22150363691634636,0.10647731707079847,0.045434943323824355,0.06940930997870429,0.1418414678552121,0.20650860209392402,0.22647602579931644,0.1685307115685543,0.0308688140408569,-0.1504566215750187,-0.3087964195099823,-0.39767870987992787,-0.41326141432097124,-0.37231774381387445,-0.30879023730723243,-0.24176041224822437,-0.17210885350943264,-0.08734064107310736,0.008604657832458491,0.0997512951556716,0.16282531178063883,0.19944607123795005,0.20769490522502404,0.17387480782938852,0.10074820593079888,0.01956961802519671,-0.05968289988592118,-0.15147523172798283,-0.2595498653210177,-0.3580650728634884,-0.42244047227190645,-0.4642679588318196,-0.5154929889249072,-0.5828269281674131,-0.6471672141792442,-0.6919919879331361,-0.713377476208644,-0.7114757801168307,-0.6876469811154683,-0.6421186311796755,-0.5773668064635915,-0.5048822605449436,-0.4349609439021671,-0.35415330047248733,-0.2566138342206608,-0.14934739754590817,-0.0376806224703139,0.0791208668773919,0.20090724874352317,0.3200227856309862,0.4307292569932796,0.5019750599450786,0.525138959448254,0.5051690290194827,0.4474974485724276,0.35279317287834894,0.21881921810893376,0.0761407874001679,-0.04725653257790811,-0.14030209257250048,-0.2054757598106222,-0.22938108427003606,-0.1791077062932483,-0.025583147742245734,0.19208768036152357,0.37604475918824976,0.47391527828694463,0.4970683410991595,0.4761049232339404,0.43170053102792,0.3766919897702374,0.3168205077444745,0.26100363227207507,0.21477442553573672,0.18282300395864276,0.16049148437122807,0.12197926096304569,0.045031376189083525,-0.054729949036324346,-0.13437235776591988,-0.17173467992587804,-0.17709953894990438,-0.15799916718874743,-0.10848764429434701,-0.03136634134186803,0.04701634027686758,0.11575503513813641,0.17055117935004813,0.20713630674270544,0.20716410540087585,0.12757092006135273,-0.03293686147968786,-0.19052575892549,-0.2875119733543806,-0.3383937625681543,-0.36439208394797223,-0.380978983324402,-0.38877312323216506,-0.38872167143202,-0.37711586705586775,-0.35382971811742203,-0.31116615846429563,-0.2351057980900121,-0.10422597687401142,0.07808060710143791,0.2819820890218928,0.4592523281235192,0.5863873250909825,0.6595411626666485,0.6822543408230516,0.6601890772655599,0.6229480428904086,0.6055043204615518,0.6231023530447796,0.6616488976754135,0.6858865138201808,0.6659465119575506,0.6042932406483126,0.5321327384492883,0.4918665518748897,0.5010818513147928,0.5364185632381955,0.5602253282179173,0.5417084210196357,0.4657011648398572,0.33694604474729306,0.20497483287618232,0.13250291344942783,0.08723538507499054,-0.01182525315177512,-0.19173666795908972,-0.3444892583104381,-0.380309027493681,-0.29309997637031027,-0.1189700937659553,0.03872847127442679,0.09158117188486596,-0.007333966507732138,-0.25489427702090456,-0.5416946509874152,-0.7330552892849619,-0.8217639947973979,-0.8568623337583696,-0.8603919722957235,-0.8449188842511615,-0.8380546798512019,-0.8561764731054365,-0.8916570745823227,-0.9251675716440316,-0.9245952304081647,-0.8072086808007155,-0.41379377537029777,0.023685169249070756,0.14113454722416144,-0.010761933128226386,-0.2587686086481833,-0.348178769203468,-0.25993031386550586,-0.0914760963622379,0.06856165607867132,0.18931543609405066,0.2995280559486054,0.4230165323799205,0.5590743255349869,0.6748238848686802,0.7447313538608101,0.7663319935290887,0.7562011772358455,0.7204670881242982,0.66394167968254,0.5984816060920432,0.5522646577688628,0.5615500399788474,0.6413946243797842,0.7499220595736764,0.8315344227609435,0.8790115329771838,0.9037362799853292,0.9104839481663538,0.8947811480046619,0.8457574582896127,0.7701892909622099,0.7059224427404964,0.6675587451073289,0.6120382022607672,0.44712590011782544,-0.04336769164489113,-0.6515435365003727,-0.8628063520235044,-0.9138741501737085,-0.9234045563820543,-0.912202662223515,-0.8728738360587277,-0.7736904761966886,-0.5818833816113503,-0.3696311935161285,-0.2516357985113234,-0.2146928269560358,-0.20741135623900006,-0.19210312364849152,-0.1396985099027117,-0.06814791940741559,0.008049142852850502,0.0872379196444589,0.16888612524669255,0.24228201641542096,0.2856117211682834,0.29030020902518455,0.27392030362995257,0.27001078207253953,0.28812923074645413,0.3251419289716567,0.3609321711987205,0.38640245791499617,0.39649778745840786,0.37814209857199194,0.32383122166889844,0.24146884618228745,0.172384767831419,0.14787968227571707,0.16336685732511286,0.1823110048076788,0.17804651126123724,0.14245682815581798,0.09175427051410963,0.034374401115532846,-0.03538436612231461,-0.1528257307109173,-0.3161933273501487,-0.4634028023600478,-0.5545702045228673,-0.6024823610417769,-0.6201657955764059,-0.6177147519803472,-0.6100893233690519,-0.6186473500683848,-0.6388890975385194,-0.6333237691932304,-0.5492480930419124,-0.3822969846431138,-0.18127938800870985,0.01878571444788812,0.20548831703284565,0.3752064023737197,0.5116502720044858,0.6025686264508815,0.6554275557324777,0.6785057362986229,0.6564220818831837,0.5940390231388064,0.5142256295326332,0.4387810112765285,0.37587259839112247,0.33731771694630475,0.317539962190463,0.30167023921511216,0.28449784002843964,0.28194722669504296,0.3021938369961093,0.3383993103751027,0.36204747824056693,0.3572117296055322,0.31168762534911815,0.22174613684789193,0.11692046442616248,0.031506206174949446,-0.018562594526464776,-0.04386192226363675,-0.0645392013144394,-0.10434050998311087,-0.16202499583241142,-0.21603117637215566,-0.2489899840309662,-0.2705132657989217,-0.2901390561770144,-0.30783622675751837,-0.2999491942459334,-0.23343064389133675,-0.05382390377898582,0.24863896714392564,0.5323693958135658,0.7016602396739138,0.7776207360320498,0.7881291265268201,0.7318537658415619,0.6068223001129865,0.4411817818613074,0.2970458713122693,0.19928849569792761,0.13543454579857456,0.10128716189695551,0.10019783820904979,0.11904149058505545,0.1307334559540618,0.10484667465755519,0.011017891076406607,-0.14701138778416167,-0.31148497247058593,-0.4179736226918395,-0.45240786802966854,-0.429698102899287,-0.36914426662073935,-0.2886812694291835,-0.22252262679073007,-0.24159389993386932,-0.39554822479188656,-0.6075986778399077,-0.7616854687046244,-0.8366829282760273,-0.8601060371341224,-0.8578586781169583,-0.8470533164083616,-0.8324147006874777,-0.8097550314633677,-0.7688782902807714,-0.7031069078122132,-0.6208460470112025,-0.5354962768735495,-0.4445472951892155,-0.3275364524978268,-0.18253504484718475,-0.015759504392747963,0.14379073101982184,0.26849380069785644,0.3633759117550956,0.44399664895583674,0.5093948799260446,0.5520425428698504,0.5671656079252838,0.5512716334873597,0.509226076342729,0.4510576407236631,0.3968961182516943,0.36561636960940846,0.3608026582894071,0.36509574581597415,0.35953245649114407,0.3338984025665492,0.2925009537534961,0.24038605372597172,0.19091212347018624,0.16272531338440308,0.16266794381923202,0.17777884990139534,0.19576441857933183,0.20819359229729142,0.18616780818270345,0.09410202635433489,-0.08147775605887052,-0.2689367404897728,-0.3845926478870579,-0.4322961321091653,-0.42212891391693697,-0.36111377813808815,-0.2685529270124544,-0.17217072613417228,-0.08936735647007342,-0.030145676269344168,-0.0019613363280434966,0.005960162766521128,0.032590496446284964,0.09807192059030936,0.1865229677985326,0.2493859026549002,0.2727781879757881,0.2959020201750275,0.33861625534984185,0.40048823124269967,0.4545133686099484,0.47980822038655874,0.4708541473186906,0.4413103947627475,0.41571241107671963,0.4000739133913054,0.3905133326162133,0.3762170515422659,0.35268759296585117,0.3196654770499944,0.2736572408506529,0.2291503053604217,0.20719270283629423,0.21604945101528836,0.23705786952597047,0.23940903378907097,0.205586435288941,0.13691623985989557,0.04086987033015988,-0.08492728426921252,-0.2285542343633988,-0.36909244455851836,-0.506690587133613,-0.6652858826278314,-0.80690892592967,-0.8760418379210493,-0.8820556403894776,-0.8532902732676007,-0.807235996511649,-0.747569444623617,-0.6552969564695161,-0.5163936232591385,-0.33034547049627755,-0.1074580547387802,0.10617564514332051,0.25391779622971344,0.3238112222635926,0.33936760179065945,0.33168127188957897,0.3643571111571422,0.5136224788490892,0.7345374218036341,0.8386671520907671,0.8582334187854896,0.85309284345199,0.8386071019042091,0.8110405767911316,0.7511891838623231,0.5995087564555129,0.2054364301822026,-0.34681427198587744,-0.6301330231859461,-0.7257251589233993,-0.746962791231915,-0.7306990672170899,-0.6845595222705725,-0.6136187530363909,-0.5400314417582315,-0.5046246267609915,-0.5238022880745441,-0.5587905768386879,-0.5653629088767745,-0.5271119013009288,-0.44350137622175073,-0.339903913987996,-0.23204737678199747,-0.10854185852012235,0.04581168579842393,0.21440892523133806,0.3337941801595821,0.38080788458244574,0.3840965506840962,0.3795121667766375,0.39268804802456486,0.4265825306775272,0.4658083887236728,0.4892873400039715,0.5096458255908517,0.5429773096964453,0.5916750899324752,0.643194482033258,0.6855977651168946,0.7157949976668431,0.7360685264349311,0.7527247892641059,0.7612604645251688,0.7537725376026092,0.7236766789050402,0.6659070761347,0.5815962230762606,0.4804373294635759,0.37282242721534115,0.2735259760450396,0.20025361521244822,0.1439909656691192,0.0317165187453127,-0.24113901574328664,-0.6350331688715326,-0.8728216067193715,-0.9569842338641662,-0.9864932311837699,-0.9946758807011327,-0.980118553735811,-0.910846471851443,-0.6967060981791507,-0.28733260910656727,0.06631097330115965,0.21807368781722858,0.20428120506610098,0.02058372391182074,-0.3237158433566621,-0.6213202014567051,-0.7627302183137997,-0.8005216160490399,-0.7752947158815414,-0.6895262719402684,-0.5310559283041363,-0.3156402304391382,-0.07871000958706952,0.15389819062293214,0.3408168864133929,0.4440256791937497,0.46647812897265295,0.4146022900862355,0.2787436471492258,0.08298233605313514,-0.08168033371759094,-0.17486627083875128,-0.21736866611785835,-0.22090876087843064,-0.19112075338694126,-0.14426770977401504,-0.10352478755717823,-0.08505186752911799,-0.08004317852260125,-0.0675966809621716,-0.03342433175341562,0.04456949139792267,0.1927665520586202,0.4030069887661712,0.5626845481802438,0.5799898615738986,0.5280032782544536,0.4937914221101243,0.514506914163181,0.5975670777045371,0.6869322930764157,0.7179378268395171,0.6781865066882298,0.590825155188305,0.5031242488829973,0.4547183811357715,0.45111270770155315,0.47403267001710503,0.4938258564006507,0.4828381207153507,0.4234320049974035,0.31618603329017714,0.1701225456308493,0.011856528144970829,-0.111523263531672,-0.15133179964381946,-0.08371193232666466,0.08371950068541621,0.2981328354863559,0.4921422080777069,0.6202901164011876,0.670531229469769,0.6376081549347848,0.4978005275217106,0.258551410270867,0.03767593948183578,-0.0840898213042214,-0.11867090012887191,-0.09043854516580194,-0.011052896995413728,0.1074486242110405,0.2254478300327336,0.29537875433635097,0.3046186449797227,0.2750851108097689,0.22544442183266736,0.17806497338490782,0.13817841975892164,0.08193194568710511,-0.0419874528415649,-0.259616020754161,-0.4861811234257131,-0.6285663356906454,-0.6936629360187647,-0.6960501537372217,-0.6213624317561784,-0.4728442554302062,-0.2973410246225132,-0.12838129236798712,0.019187489229520564,0.11276832676557896,0.10457631564181083,-0.026963451215109364,-0.22074609182901156,-0.3753545593021869,-0.4455893755073097,-0.4368634665183302,-0.3936209656927456,-0.3678573705486158,-0.39086535582262594,-0.4431452396948589,-0.4920093558340906,-0.5224180818508947,-0.5361316624221147,-0.5331782498618441,-0.5132452137164121,-0.47764765796817193,-0.42950489226776933,-0.3545450006639227,-0.23359332081106418,-0.07060656019238022,0.09597854579479388,0.22436790287680622,0.29786600948618697,0.3215975395599249,0.32330789503832535,0.3208069576424411,0.3001086737467446,0.22826985152946927,0.06862169352964437,-0.06872392577798676,-0.10703240659122923,-0.09951542148065701,-0.06079668023465231,0.023751382648134627,0.18637052648352873,0.4362448973586892,0.6792555017769463,0.7939286018458397,0.7931683095721492,0.750716578672402,0.7068140484501915,0.6767074760737966,0.6484844455699138,0.591384765970618,0.4529638847206521,0.12549420963332147,-0.3686994354865765,-0.6563103316268648,-0.7415897945251089,-0.7228177167380178,-0.5738480750523052,-0.19449905037180934,0.20192345181090898,0.3758243067922972,0.4123011857000637,0.385147366707828,0.3342990721762177,0.2748373825671,0.20788763617760056,0.12776001561215497,0.0384688237886013,-0.062064169686099215,-0.17317876891422707,-0.2739277960783166,-0.34155160563701786,-0.36374625201562844,-0.3452316090516626,-0.2910240144166074,-0.19965996626273982,-0.08381729385622332,0.024709886130667644,0.11116337301621673,0.16863361574470087,0.19157429076050855,0.19534127165085186,0.1996494053473378,0.2117076235401097,0.233554429667056,0.2438487641495365,0.2078128821818235,0.12546833833178997,0.038327159114392106,0.004330318249440016,0.04668425297232707,0.12731910624125375,0.19658937887447514,0.22380780154834373,0.1957781827949563,0.12177043101880594,0.015143266937563325,-0.13858706234141968,-0.3382575481039538,-0.5197408439523088,-0.6302034667807436,-0.6593458081884529,-0.5566758380899903,-0.06595458978459365,0.5853856339808026,0.7615549137550234,0.7588262721325445,0.6815886484841871,0.5673179015259797,0.4704219479074591,0.4366006203969221,0.47476640709445134,0.529455741690689,0.516307446157909,0.4182998850582957,0.27491281791972094,0.11411340657014969,-0.048585343902980006,-0.1894226401352165,-0.28565521326200194,-0.31696787366742896,-0.28140766347211227,-0.1834927139173901,-0.070467504972502,0.01610831799937432,0.06662566726738961,0.09002519782330894,0.1059804459638018,0.1394865325612644,0.19498825681452953,0.2538870207919106,0.2970484557850751,0.30401900430630835,0.2694827072408168,0.22278972408247513,0.20097216850202118,0.20784151884020075,0.2351250172505527,0.27060232023769054,0.3003462480025821,0.31125045640207777,0.309108849855031,0.3149665327999679,0.34041131450550866,0.3764574709250629,0.40632332475664007,0.4278319841417163,0.44073128182411453,0.4394018103563482,0.41797512453538704,0.37483762580376573,0.3165881142131751,0.2654780826012767,0.23935233875039688,0.242581343108159,0.2633434599042367,0.2761959358950089,0.2608165363730861,0.20871338400883913,0.12667207506974293,0.018316324996228203,-0.11485667808363652,-0.24270072997720862,-0.3295448741920805,-0.3846888561056788,-0.43694797247592204,-0.4849562579903161,-0.5137195173853252,-0.5093871474870204,-0.4651795562485019,-0.40686331524870256,-0.3851783816114324,-0.4352353609176732,-0.5185850622148832,-0.5768854051277694,-0.5972932783284362,-0.5862064708896719,-0.5386350765654491,-0.44687388990906046,-0.31084281786379714,-0.14513784064386848,0.006767507580688603,0.08893684238372188,0.034096992490604945,-0.19008950534078076,-0.4798153261941981,-0.6533164659939998,-0.691238686933527,-0.6404013386576703,-0.5271602266102025,-0.4011792807498704,-0.31999852591672207,-0.2888398667156871,-0.28289975133424733,-0.27843591538278223,-0.2569844756618945,-0.19470384570105523,-0.040322540008014454,0.24010628976038498,0.41434347723708126,0.47478956094482205,0.5005914797660073,0.49988239811347474,0.4435010963883008,0.2716846478064553,-0.06910172327991085,-0.41138019561484496,-0.5688392794282539,-0.5929375840217508,-0.5452393890065111,-0.46059304088199543,-0.35975207623330485,-0.2449333493749386,-0.12918044993368513,-0.03877911344822717,0.03325103015650581,0.11775587732578319,0.22041390773554756,0.32335207803937377,0.39913576056689903,0.4417503341190334,0.45946308448475603,0.4575559127555881,0.43599558732798066,0.40188659682129907,0.3738252820284827,0.3630897207328869,0.35931917260853924,0.3564643025957257,0.3617380034158883,0.3790348528672121,0.40007261772631236,0.4157377555968708,0.4164788842148113,0.3892468812638245,0.3216684797407742,0.21606192011354539,0.09940734985305744,0.01037842336356162,-0.03523636893817819,-0.05613335190468426,-0.06024279204702741,-0.05259050434915653,-0.03403122068223243,0.004823386410400715,0.06878843540092894,0.1524404485842622,0.23815652050481517,0.30328819389443,0.31803836804281693,0.26067809427915467,0.10986714914024145,-0.10016893329617178,-0.269316348768491,-0.34920411705095494,-0.34669684210524226,-0.27909508687757956,-0.1521763425935889,0.0205466703313579,0.2016638153512225,0.3403366546151363,0.4098126261772153,0.41044227461289073,0.35776961483720926,0.2761587841968196,0.19418835801510584,0.14331077959181196,0.15192127657967655,0.25477823768911434,0.43777870916656186,0.622133801971419,0.7526168502503878,0.823591037275081,0.844585984941584,0.8242545782396279,0.7622381608239622,0.6643530979646813,0.5550579985624905,0.46254205083954386,0.3998632231561915,0.34675247166385215,0.28092037228729605,0.20262416643967812,0.138107241705056,0.118064637546319,0.15860637502948338,0.2432415420887014,0.3254885439503903,0.36831657905191845,0.36638005737393975,0.3167136217196993,0.20839992696015783,0.03135476170475198,-0.19807284072495832,-0.4233136476531035,-0.6011498064731906,-0.7099193220302628,-0.752905343826152,-0.7515389002522668,-0.724720756008902,-0.6694289413968568,-0.5664871666325911,-0.4306620128758702,-0.35974418558420274,-0.4041372026847966,-0.4860259457820174,-0.5322566797649534,-0.5239433490106105,-0.4733797137269625,-0.39898465857074095,-0.3303403843281719,-0.29676569719697926,-0.3350003323716258,-0.4521032283413553,-0.6315115074256626,-0.7945275104331528,-0.8804612770834779,-0.909337221349774,-0.9090182868727796,-0.8864741717143042,-0.8278045364021366,-0.7048168931252047,-0.49878748028184394,-0.23468389397325257,0.04511937820105432,0.2854912419797678,0.4532661985538137,0.5653556377650546,0.6302562794451407,0.6583686845938781,0.6596776200340682,0.6377267758566406,0.5860130735010165,0.49696739086225683,0.4127750480579299,0.3864422422323429,0.43581647450737204,0.5141146463631227,0.5577103258566334,0.5133010547190935,0.29316144761453544,-0.1484774237225748,-0.5143573317628887,-0.6612663638309297,-0.6706202344661621,-0.568898265101741,-0.35138262307645657,-0.09771210130386673,0.0731118991703595,0.14488208283379353,0.16107790433206215,0.16185209085326183,0.17097694712664607,0.2094822155452733,0.27830175770684523,0.3623443180392923,0.44922835757969126,0.5260280311165354,0.5824803758394438,0.5970215884577641,0.5167235788383953,0.3372119500069156,0.2189037304560122,0.20518842243427754,0.24609634574299397,0.3144929823581851,0.400372071837554,0.5046513580086613,0.6132581814049854,0.7025071319583605,0.7539745569287187,0.7508594977863677,0.679825938395477,0.5623577981915147,0.4610987319657421,0.415169541386138,0.4269492579372247,0.46428289589567423,0.4831074640260729,0.4693656397613896,0.42550127113399555,0.35273491643285626,0.24606594728511502,0.11921094840943422,0.026706970929889398,0.015958249587678996,0.09480993626613254,0.22245249260430058,0.34282877497555414,0.41259656654336185,0.4300733253243407,0.42246197052923484,0.4119822249069204,0.4082003257358322,0.41014802386545,0.41677468572783666,0.4186306444929951,0.4032266469012513,0.37081218029725566,0.34063273543687433,0.3308758444027223,0.3429452907052452,0.37906478899628027,0.4210597701893826,0.4198648117040247,0.2981879360942021,0.06986501595125787,-0.16735591537733022,-0.36539824640826435,-0.5157396389571948,-0.6147291828308111,-0.6703481644925393,-0.6917892867996477,-0.6914612337120983,-0.6840300906934537,-0.6780564120948636,-0.6684067700583021,-0.6390033678646533,-0.5725370585986751,-0.48191654565742537,-0.387555848548749,-0.29146202934529436,-0.18956875289460653,-0.06826319585108309,0.08441434655024546,0.24606372642713545,0.3826242305009092,0.48067580559866796,0.5209252261458833,0.47876057008613887,0.3221805088209066,0.08109083571882716,-0.11813999461149913,-0.22516563877198661,-0.26563111940791445,-0.26978639838820906,-0.26748570278503137,-0.2720970821239904,-0.280190972786277,-0.2485636846147761,-0.10853787368921866,0.185486397501906,0.44537961308745405,0.5467098249660121,0.5549167793951659,0.5052154598431572,0.4111488981869295,0.3201516946662,0.31668190331476853,0.4112307638500751,0.5257209060244737,0.582332348938923,0.5728433383171075,0.4953814627336692,0.3450751577892536,0.16009237247838862,0.01532106074520132,-0.05360688523597698,-0.050167161531995144,-0.006384183921229469,0.04323665884955007,0.08522885394114152,0.12013455772165044,0.14786900040144157,0.15989983271780356,0.15241945708609453,0.13373813727066447,0.11654024094346685,0.11111441001375309,0.11638632918010833,0.12228092620923114,0.12285046983024789,0.11863112963901028,0.1307012352901695,0.17373417810447847,0.2395956925681542,0.3059222755149086,0.3549883616087418,0.3495738787221152,0.2530909365362073,0.09848753996307719,-0.046993063340570886,-0.1568851554573676,-0.22299072830861497,-0.21762841834011687,-0.12162472877584816,0.03269693668748438,0.17333415747437475,0.2537008981627793,0.26415936941700263,0.2447089206073074,0.24696194337025362,0.2858927869559082,0.34874709331695264,0.40117026035785786,0.39839851484387584,0.29839316695690893,0.08412824671191495,-0.17841521492043583,-0.3681190236549191,-0.4556577300407679,-0.47968929171583075,-0.46935930669885506,-0.43603427889750423,-0.38734766010936256,-0.3329781044015757,-0.28036341792549047,-0.2343184922469992,-0.19197547033427312,-0.13707311574784753,-0.05716979877268667,0.053225620149743705,0.1581769489622758,0.20145066369658612,0.17296439386236528,0.11473925317929652,0.05503782632369878,-0.016694235747620866,-0.14444369745815905,-0.3257455803449284,-0.5198684083444857,-0.6892924903183205,-0.80734526520116,-0.8714458726890263,-0.894962112459985,-0.8796496637085786,-0.7912285203977857,-0.5062293791944575,0.011337468921429245,0.353688628428215,0.46544822983741047,0.4654402267736073,0.4024117790879592,0.311923160018118,0.2667049725164189,0.28712548037606833,0.32698173827985755,0.3587032608567998,0.3850693177025447,0.4237806585612488,0.47289347005064564,0.5151536036645893,0.5391204454433648,0.5478487948268276,0.5448655845520831,0.5328504239291214,0.5169442800177486,0.5041884844205106,0.5036890596576272,0.518740776373352,0.5431544322257489,0.5639646417547393,0.5737185501462533,0.5738604842247749,0.5613898845693812,0.5266518903635719,0.43074108533197686,0.14230071914492154,-0.5068594756486825,-0.8925266479906676,-0.961464164337806,-0.964899481289886,-0.9479518669549201,-0.8934506190714286,-0.6617225561076,0.01550010991497324,0.4498071337440599,0.5508443144693496,0.5178075192507853,0.40485343371359733,0.26897900104229544,0.19174614218215028,0.20235182820973124,0.2609533073948636,0.3084253507797169,0.31694634424522583,0.28265754348102207,0.2042073728553164,0.0851401477776621,-0.05027275473767377,-0.15939186362559465,-0.24055961894216188,-0.3138157096372531,-0.3781669940294627,-0.4225490118891206,-0.4454583286631243,-0.4406842638877982,-0.3932585202297473,-0.29450557845332526,-0.15970755001952824,-0.036494059157686984,0.04764463826465766,0.1027005560883385,0.1632087054622282,0.2517695759506573,0.37626161180087164,0.4990700857328641,0.5695611912195537,0.5745498857305094,0.5403834152756571,0.48019447943716037,0.39235728324755553,0.28934509253512064,0.2077675487395457,0.17388123068298925,0.15973777557956673,0.12721241784364257,0.06080100244435033,-0.014612805455978066,-0.05875371457920894,-0.03190217258572557,0.08524865169730281,0.2547355662640716,0.38368332114189135,0.44728973070334377,0.45983031347057557,0.43652821813679493,0.383577064866789,0.3035582427386367,0.21762964052417938,0.15443357196790658,0.12899246366347547,0.13244685771737233,0.14915500193723344,0.16249467691914293,0.15989425148942912,0.1431672872633502,0.12104120534578722,0.10198554182145442,0.09863936202409147,0.11740272717021918,0.14135527415070084,0.14548955787449047,0.11856725363458191,0.06665962619499415,-0.0036801976500437667,-0.07051584260287234,-0.13575737205144023,-0.21002939636917742,-0.28055093565658956,-0.33217254272596847,-0.3733864006156794,-0.41359221585519473,-0.4254191974841121,-0.3994822788209283,-0.35434932839244726,-0.30403152090104196,-0.23552957338161154,-0.13713046301728885,-0.022840138277151843,0.05169200046484372,0.05397674865380868,-0.0006590752556914865,-0.05922898558423922,-0.06192572457717894,0.00501405762808745,0.11125338188448325,0.21122776290544423,0.27624839903331405,0.2954554742500212,0.2689692321696044,0.1890254562675003,0.053464398276584495,-0.11738529210279593,-0.257759788436489,-0.31377822748890094,-0.2763592791882214,-0.14203905582547124,0.05313809695833018,0.23986246335203115,0.36406317989227954,0.42305966029590664,0.44645247274889527,0.4506102670532984,0.4503929304262424,0.45422493732674507,0.44437684357030033,0.3895556424736811,0.263592509352031,0.07489842348359585,-0.09152887392627168,-0.17209741365831013,-0.17920865006041498,-0.1468341563530208,-0.10214158376200042,-0.06795976268141501,-0.058770624609187104,-0.054095909082870985,-0.03895231424798606,-0.01719045160765189,0.0033909119579888904,0.02679057146768371,0.06085940025355407,0.11979775312187775,0.19380649421182886,0.250380993000301,0.2524889715052301,0.17569530977763645,0.03838980495791817,-0.09391325954124927,-0.17313131574760104,-0.2042849631397801,-0.23915263039897988,-0.3364432140218479,-0.5032413598736539,-0.6578997742003788,-0.7390933058286131,-0.7640269403402513,-0.7571744336044088,-0.7228868351971354,-0.66104222635758,-0.5890662535169465,-0.5237567814299595,-0.4594189943289876,-0.37221457495601024,-0.23429375124588667,-0.017788926076370472,0.2520042605945714,0.4814085112834102,0.6347674298625159,0.7243049723597262,0.7596881353091043,0.7337449849617191,0.6157677361242416,0.38112669340626737,0.062461179864448026,-0.28728282424733653,-0.5893130043877177,-0.7598415675738113,-0.8253192483257523,-0.8330046069135634,-0.8029954239925898,-0.7386101237991508,-0.6419001777491133,-0.5220372019169534,-0.38792852481165474,-0.23481051727975566,-0.07976482096893092,0.03892153244731087,0.09620340961076582,0.08358616888464249,0.02763332135106353,-0.03725031053018197,-0.08703891835027205,-0.11036711523575214,-0.09090565658007412,0.0062672740818932,0.23171881101799482,0.5348138010407951,0.7494787760883354,0.8469737174562797,0.8831980196783367,0.8905606087835729,0.8881709739196979,0.8842727384624063,0.8804065971395432,0.8743620884383873,0.8663495864001843,0.8633159663408907,0.8665578414292533,0.8691747520230846,0.8588190443529244,0.8328598841483352,0.7980175721902683,0.7600413980562472,0.709417127546241,0.6364860369817955,0.5361232644163807,0.43150495370089015,0.3582450863928766,0.32850377121474805,0.33829855707188944,0.3661278665270111,0.38184459113733143,0.3796103214021193,0.35847000634764437,0.3187830438332362,0.2528638583729364,0.1478908730299956,-0.0060740532796862215,-0.18419071072277865,-0.3360049355972678,-0.4308595449840304,-0.46891824099259716,-0.45626813691042145,-0.40877633575505085,-0.345716380335868,-0.284483565191128,-0.2263654857063637,-0.16121152403694103,-0.0833889696422855,-0.0013828428098330635,0.0762914439578913,0.13548973868845993,0.17228295705153296,0.17684543366699865,0.13607516285998922,0.04703891745821237,-0.06118248924757601,-0.13910502511579792,-0.175913498683394,-0.1755868457519886,-0.1453407390472847,-0.10371558948930985,-0.0732524202335606,-0.06792864548837124,-0.06734389974630094,-0.04970224429072829,-0.012096003808410496,0.027669701064874073,0.03419357480091326,0.0017009236718219815,-0.05857832334932263,-0.11825567515981697,-0.15144234988220348,-0.15342831421071174,-0.1269023253433801,-0.09413707570337561,-0.08063824136886462,-0.09021661418378955,-0.11172392549823094,-0.1340546352329469,-0.14582943804258927,-0.12143904086096448,-0.04494811251647628,0.09131977440911791,0.26819192523844687,0.43341829482829314,0.539659823477537,0.5481760621205928,0.3966471967005741,0.01594036686242742,-0.38756428767248546,-0.5965215586313979,-0.6735242014487394,-0.6827871876148758,-0.6418708733138779,-0.533267237980182,-0.3232716670011358,-0.023339389408204375,0.23351254906665378,0.346436886897493,0.35721984036813953,0.33063817239497256,0.3015341168432912,0.28838721402200945,0.2941949032423066,0.3266333715581123,0.386261223270361,0.4561487332102713,0.5163869847361653,0.534925767105871,0.4990587184864529,0.4148684210865599,0.28948368620529047,0.135876479628908,-0.0020319203859654592,-0.09065330457470136,-0.1249217417170857,-0.12370744388943392,-0.10839758662700667,-0.08994646407003394,-0.07094707375972252,-0.04600827139542248,-0.015766939738279237,0.006622559233733777,0.010349694258310456,-0.010276032279800531,-0.06158316007560661,-0.15698667674390857,-0.30151721658215763,-0.48230348728239814,-0.6420366586456022,-0.7174193227042257,-0.6794735989136285,-0.4537962898254978,0.047030504838396124,0.4740045355881029,0.642552964655072,0.6781320123730198,0.6400679729154022,0.5471331684845385,0.42110915454628656,0.276190646777707,0.11391294756099567,-0.04727604585882977,-0.15859318861939942,-0.19819981914565463,-0.17189059924659592,-0.08855133110801115,0.039454769436864746,0.20160620440665372,0.37051771785017856,0.5118988316636376,0.6053873184171755,0.6427730345852646,0.5886344378744418,0.40131290725329555,0.14652306133435036,-0.04662021485375844,-0.14046393708994231,-0.16403636468457208,-0.15009113904271865,-0.1357328243278191,-0.16972665957428423,-0.2652874069042569,-0.37250722362977134,-0.43518636363265645,-0.43558301323494447,-0.3642415837453427,-0.19668446103260326,0.0669334159807864,0.31005889651268254,0.4303578803964819,0.461182514694092,0.4573251168583718,0.45234536071979187,0.46652280594399936,0.49628026915865636,0.5374925386850932,0.607382375117977,0.7056387834086257,0.7950117099438894,0.8211725000415583,0.7507965841896321,0.6037156016675379,0.47980773728949283,0.4773086340970979,0.5415188048297572,0.5501267071471099,0.5209317518357239,0.48407341095694706,0.45315412505165814,0.445948693289783,0.4714594470663501,0.5163341010290635,0.5597368023063033,0.5684402543494986,0.5008279132136504,0.32138198732790124,0.0033124490059505567,-0.37605408750234626,-0.6462370578175237,-0.7724751416676875,-0.8117734104343521,-0.8050335651056761,-0.7713099584985593,-0.7281740697877218,-0.7007585941045347,-0.7085550074453915,-0.7429135904990107,-0.7712550076384543,-0.7656436849028008,-0.7115435372448934,-0.606951587229918,-0.4612783248185633,-0.2873974723913117,-0.1012430886325287,0.07352333921089257,0.21734494824278008,0.32145275607549223,0.39532763158938106,0.4514411805378206,0.47927311142681633,0.4780681510926934,0.4572355552550752,0.4383401330805331,0.42711481396100276,0.416909446392399,0.3981548932715659,0.3759130524665165,0.3635851069216647,0.36152862516222356,0.3576747220912374,0.35242298484191387,0.3437575758584902,0.3272242352930955,0.30291716372506317,0.26299434439940217,0.21964698882304168,0.18907168812254574,0.17679977816687742,0.16158930709370686,0.12376842504212272,0.05577615449206197,-0.028577734376674224,-0.11719251352846329,-0.19627607541111713,-0.26970143000698876,-0.34673817220544323,-0.4178816383546641,-0.46395854201529124,-0.470877690597721,-0.43329019890716447,-0.34856200689600225,-0.2290000966873766,-0.09139557840501555,0.042413380581186065,0.1600371207030599,0.2565582222607316,0.3398937360932772,0.40027412932173984,0.42178749931406945,0.4260432965399905,0.4476211779094914,0.5015132161609723,0.5666936681618591,0.6025251277206809,0.5861595153179502,0.4941443048995212,0.2695417587824165,-0.10346041726593347,-0.4241758074984429,-0.5765426389348218,-0.6246896043871617,-0.5863310411523579,-0.47451358275914635,-0.33740406380514404,-0.199423795011635,-0.06571469347791842,0.06665505721187001,0.1960967093814982,0.3035556931415633,0.3858977520826641,0.44983201042379545,0.49024849184335784,0.4829664814706539,0.42935258645117186,0.36317469851994705,0.3058273516160746,0.2573398808877876,0.22880808111172063,0.23740727014328647,0.28334514678060096,0.3404676555657941,0.38593427469605235,0.4069421991116756,0.40448541133942173,0.375013365306774,0.31947515219755623,0.2542732271899316,0.20361507637623658,0.16894423485379445,0.11794214812049336,-0.018171912473437236,-0.3298533221152921,-0.6841258137705614,-0.8514986332172297,-0.9004746541619878,-0.8927146501866408,-0.8082402201474603,-0.4511530909216942,0.32527719664677196,0.7346323148184056,0.8560914965463,0.8732645269328473,0.820661700588063,0.7360231142431827,0.6717547899844007,0.639220606439584,0.6094862062448791,0.5571270463368744,0.46844619215428956,0.3266464837606633,0.11465300944724005,-0.11840046015161376,-0.2874394799426953,-0.36808452809557457,-0.38045310817830125,-0.346574563810464,-0.2742826020148919,-0.17622314751470516,-0.09572727284946587,-0.09762214174435861,-0.21582757283061502,-0.4058033151100503,-0.5678356214799921,-0.6645997695537796,-0.7118151862441594,-0.7220256667127121,-0.7002393809043954,-0.6535389833895582,-0.5899029559888356,-0.5188598161843266,-0.45077910281679845,-0.39810032564647435,-0.36694260224832537,-0.35985960091022473,-0.38614599116244763,-0.44754297314342695,-0.5201928807617505,-0.5763940149056582,-0.6045015261609924,-0.6043320728349465,-0.5671521432176723,-0.4546746879985943,-0.17772518116500918,0.23540711653217433,0.5138174944285432,0.6303177247682553,0.6697088157871729,0.6650468260317604,0.6275656719177057,0.5710027180994819,0.516773085837929,0.48217284367539015,0.4694627785514784,0.4679960684590375,0.4666312648035891,0.45480502094641356,0.42551382672057786,0.38862539070884333,0.3721435177780031,0.3987034017975023,0.46073034234238197,0.5246685555808449,0.5626714061198731,0.5633872589885053,0.5258701869903268,0.4476084147523029,0.3277929783577212,0.1968423959713924,0.11783259872235717,0.12580870490550836,0.21642562015514819,0.33970462978651317,0.4296464347807153,0.4536331284785182,0.4084878026948308,0.297974214622314,0.1346650141063604,-0.049897250784426396,-0.21257686342246107,-0.33814000868049443,-0.43314727898450944,-0.4903273964650792,-0.5070958538175573,-0.48958081547643223,-0.4551922651268107,-0.4136155372651666,-0.3700570341778755,-0.3122988835531033,-0.21895664928397474,-0.08280408439716418,0.05337398390797933,0.14352019482371078,0.1813078936242404,0.19630343670910103,0.22457922273911704,0.27297264297871626,0.3195507762813435,0.31401380309150856,0.24077826338966665,0.150653560623035,0.09395669708596463,0.09874096037360283,0.16161428863399072,0.26503906135287,0.3883725975818256,0.5101584560727184,0.6024804292366425,0.6090681067777718,0.4597516652100731,0.06782471000528192,-0.4375102532060513,-0.7270407914186118,-0.8417414867907849,-0.883899595357817,-0.8908240323806508,-0.8714915349426462,-0.824471361758125,-0.7441264719125017,-0.62549151904355,-0.48795932633116457,-0.39595360800694523,-0.4044870601608522,-0.4544355359539135,-0.43301228653985824,-0.27463241510581865,-0.02661957403452621,0.19118797495420076,0.32712851100513085,0.3967428065150475,0.4228217819406844,0.43176389924861963,0.43808550769554,0.4386089168032223,0.42106575425098186,0.39078786306084995,0.380595807493249,0.4198109355721218,0.4946250521347997,0.5582332920731319,0.589272194474407,0.5911880895172557,0.5713671007941107,0.5385373115346502,0.49633072780524384,0.43797077808387846,0.3580195686268651,0.2530847341870381,0.12598280171821546,-0.01444800039584113,-0.1478125437123748,-0.2789833465947234,-0.4370610904507727,-0.5883195960141694,-0.6810221578839284,-0.7332233870638221,-0.7587419573705575,-0.7675479336470432,-0.7606513167976744,-0.7293341555483935,-0.6603988680502515,-0.5535847627912849,-0.4301839519307904,-0.32025095786734564,-0.24047535069432807,-0.1882247785652693,-0.15685268018437232,-0.14588605941265284,-0.13799900371145324,-0.10535793708944982,-0.025350436993501996,0.10078856941030884,0.22825821656542394,0.28844982151980025,0.2656714891104379,0.17902595833254614,0.05278266956122847,-0.08463866294997541,-0.18944929800636648,-0.23449076274062822,-0.2142926231264146,-0.14718709883667358,-0.05424520189619657,0.04646674517004991,0.14428770639376368,0.22605559765070043,0.2835182588908567,0.320857781924168,0.34484502966726427,0.36983019415526647,0.41139663000474186,0.4590843506472922,0.48581510372623987,0.4843485816789003,0.4710276543328598,0.471239897295333,0.4969548881207768,0.5363911098483886,0.5682305108345342,0.5814530020661333,0.5697236496270532,0.533629940033271,0.49079096771908803,0.4348084459328395,0.34253312988966395,0.20830594647156406,0.05549382039188659,-0.06117725060328606,-0.09034192201851857,0.010149794899783422,0.24588825198256392,0.46483883932998027,0.5528013728300363,0.5728516503244331,0.5691360567950121,0.5537954769155463,0.5267585897004413,0.47621011565619337,0.37681192569906213,0.2048789994984517,-0.03140469901074402,-0.2573220635469449,-0.3597743790266782,-0.2634901552241725,0.06870487218989474,0.45912335145909755,0.6687537633272291,0.7417461523070208,0.7559362508811608,0.7454182912604795,0.7191720829246243,0.6767692324512485,0.613009773521207,0.49815234149882853,0.24790633834356007,-0.12082983374715704,-0.3576450049414997,-0.46151728846082746,-0.5242748958683613,-0.5918648278050566,-0.6720743151870244,-0.7518298090472116,-0.812524914967395,-0.8468571408375846,-0.8603581939172948,-0.8567148349676036,-0.8389928834490312,-0.8094219656485552,-0.7716988540443928,-0.7281180347810721,-0.6743610835293984,-0.5939721843069524,-0.4701002059483938,-0.30469395722142995,-0.12764549421975405,0.05102792627106986,0.25098798244457216,0.4764013930573743,0.6709221872750906,0.7921210040528365,0.8480694380412425,0.8679612515268399,0.871999764631522,0.8670667383351672,0.8440533074261908,0.7624911407629608,0.6208224062520238,0.5411899901064423,0.5561536446901084,0.6062614266702483,0.653327501592388,0.6770800272317715,0.6526834507884243,0.5212514728287093,0.13056770801339201,-0.42718518143424633,-0.6919825174234558,-0.7679449997286901,-0.7748630772476001,-0.7429428136214289,-0.6700037202931064,-0.5281676305482601,-0.29483226510150484,-0.037911396710561374,0.1465173219787074,0.27272361855042454,0.3807269519626168,0.4753362699506901,0.5340616966254842,0.5535576117142869,0.5374822460423727,0.48831204499419967,0.417928349198622,0.3502192761649785,0.29603773983384063,0.25700356887317466,0.230700523915259,0.22303820391734733,0.23746754898176958,0.2675066400656402,0.30546552291729473,0.342665815235779,0.37624458257853444,0.397698505733014,0.3851942781402545,0.3230801063913524,0.2194962928349744,0.06456421629397774,-0.14550800368464736,-0.35850290922956346,-0.4824346503649817,-0.5196022190044771,-0.5100444221493983,-0.46346089712045285,-0.37440900848809827,-0.24503101376830133,-0.09961827427169462,0.03243007296277962,0.12196527941168121,0.153309365194724,0.1368968023068898,0.10541645442899285,0.10487508785021543,0.1525817906518887,0.22550319728423773,0.27296834520270685,0.24786739932649018,0.1531591793616952,0.052300625687485745,0.03177221055221118,0.12946932300017125,0.30595975679116605,0.47041698893394124,0.5715771338390702,0.6128773591704121,0.6079379371045001,0.5671389875174385,0.5042381353007857,0.4488958703295759,0.4148686524127665,0.396882099266096,0.37812168070903807,0.3575389763340476,0.3441731191042123,0.3553465800355771,0.35659714702514506,0.28643454433962173,0.13393415098898692,-0.047863178087719165,-0.22767662351647588,-0.39422092281665944,-0.5289304234722783,-0.612861498874126,-0.6434680793386389,-0.6243248118780088,-0.5724711717025792,-0.504771319836561,-0.4067021591748783,-0.2683392868330377,-0.1305903310362934,-0.03402523524618659,0.025641289197142127,0.060447730194682525,0.07657027149621135,0.08104637084931647,0.08729085783606644,0.0972404831673636,0.10225013982378979,0.09511637807892183,0.07933953776450157,0.06746926715927684,0.07570590663640932,0.10740489094545755,0.14457584452797384,0.17010802106953424,0.18097378412839454,0.18730731846424192,0.18427533943101584,0.15792076677682917,0.10005298649344553,0.018514782454551165,-0.07935169632916102,-0.19949352811012952,-0.3425069832996333,-0.48137533979652436,-0.582833207265067,-0.6356618926688249,-0.6480714940619539,-0.6253736287889208,-0.5634372185168356,-0.45677917479726543,-0.33939014622172414,-0.2697566229212746,-0.2808469690706792,-0.3589412744776476,-0.43605025376211687,-0.46407090118614186,-0.4391246107657446,-0.3694392724790863,-0.26824197934674654,-0.12505976490183907,0.08255776135181798,0.31999638115743545,0.5004233580436726,0.5934389645750445,0.622169687276183,0.6024407451963963,0.5333817346824736,0.3946143981939654,0.19923732408799386,0.030700240883952186,-0.05810550728738742,-0.08729961438097122,-0.10916742509455285,-0.16949163691505953,-0.2815260375521054,-0.4183588749041265,-0.5210857335359871,-0.563541979748374,-0.5557142591308292,-0.5169606386509027,-0.4740896655762097,-0.42817935177148797,-0.3740646315886417,-0.32797533565305353,-0.3030778388004887,-0.299900001854621,-0.28812437189632517,-0.2430928538465813,-0.1534606449115667,-0.0026651004743421347,0.21311810861064276,0.4296051307796154,0.5572913523076857,0.5842333228045996,0.5506296640085206,0.488553078036215,0.4173111939945861,0.3318858009989178,0.214585576435154,0.05432577589676709,-0.12584594181079228,-0.27751408514176423,-0.37347746833970297,-0.41600916734550347,-0.4117474388249647,-0.364424517955413,-0.28227843916281653,-0.17428226261532004,-0.0440319601525135,0.10329016422306307,0.24332768875897012,0.33628526683699256,0.37469326521142055,0.363732832863923,0.3064595229457073,0.19722593042683706,0.05936422152689752,-0.07023524791900575,-0.1571682502677233,-0.1804896606345989,-0.1377634994998614,-0.02698188457700848,0.16036395091396263,0.40960321328637456,0.6394609263331776,0.7800671902550831,0.8484994537934497,0.88031779015656,0.8899931612571922,0.879178241211067,0.8441196459948215,0.7724378028869844,0.6419864067492387,0.443455943071293,0.2318220606821069,0.07621509208195967,0.002141130741970104,-0.030364542899181047,-0.06872375278794822,-0.13375858788676753,-0.2342685916812663,-0.36970390154931715,-0.5009343824670434,-0.5879760000360699,-0.6230850248153268,-0.6169748657660962,-0.5819866597111166,-0.5257235389755426,-0.46361813261429086,-0.4021704084172295,-0.3523348935701102,-0.3324700870884172,-0.3372886819976249,-0.3472958284672348,-0.33778185857468523,-0.29573301243527744,-0.21207334393512908,-0.07898971688352811,0.08530092790058656,0.23380042060201342,0.3599376273984505,0.4994615402110332,0.6487628015591036,0.7588858269922537,0.8192492400320469,0.8435073665602655,0.843444327442371,0.8207077147355925,0.777507143872309,0.7161553197888282,0.6381357088484984,0.5200298575497568,0.24707428211578383,-0.3079928110587889,-0.7193563620223595,-0.8442102350766315,-0.8669611259106468,-0.8372734162793672,-0.7396946693376262,-0.5368154121708201,-0.24471759182985073,0.0319938488931354,0.22941577029729546,0.3635830761940453,0.46327831275097336,0.5410313417409964,0.5894080575906725,0.6000405540006686,0.5848621787392034,0.548775615039783,0.4823893150386005,0.3882960404931819,0.30370299992302513,0.25464547722969766,0.23695889315033777,0.2464943596822346,0.2861072576531039,0.33938307444673094,0.3926304986028151,0.43989927657979827,0.48027886898126726,0.5150665356715961,0.5500596576565189,0.5918550474386342,0.6515783040553853,0.71898941959301,0.7809834553845372,0.8294204009970314,0.8548378097791602,0.8283444697880149,0.6356340312137936,-0.03535972427635753,-0.6379740034375659,-0.8280225044763929,-0.8877473792804074,-0.9052749122856124,-0.9036176245600137,-0.8902588800285963,-0.8628583260114139,-0.815166854658452,-0.7372216794145927,-0.6220608502996824,-0.4889798871426886,-0.380508513764988,-0.32589999611669945,-0.33181367034026593,-0.3780739067992132,-0.43012667389259984,-0.46195264651868095,-0.47404787461316494,-0.4736613615153742,-0.459735394107163,-0.42474122615505083,-0.3585303647586865,-0.2424058072032021,-0.06725937552649121,0.14879945399846306,0.33582495180461774,0.44897303320716575,0.509675572049699,0.5560665113057837,0.5997802649354571,0.6313985846236332,0.6463586833975146,0.6461917251019452,0.6357202171407802,0.6312068382613093,0.6415926886089843,0.6648278827059692,0.6956297557026503,0.7295706954942753,0.7607024566123893,0.7866549684097662,0.8047004731152013,0.8071352456522868,0.7636779791594553,0.5770547021021855,0.14994820762432493,-0.17848444035259622,-0.26268682585422093,-0.2202128207489293,-0.16931247232244392,-0.20058763363411836,-0.32194494204451435,-0.4578425990522581,-0.542174957516394,-0.5589325862419856,-0.5153796251906658,-0.4073683295054083,-0.23547011718556887,-0.04240868741003898,0.09898998214892339,0.1618009545928911,0.174757837736713,0.15964201466630212,0.1444765762896336,0.1662868709575535,0.247547690248194,0.3627834719102444,0.46713273080699436,0.5428986888124737,0.5921610328410656,0.6166517571081152,0.6171873100247528,0.5886557334628998,0.522314846794159,0.4262173144394996,0.324733469388094,0.24897936736887552,0.2190667748239081,0.22685625782264543,0.2575490409955228,0.27393510539924043,0.26093789316315863,0.23494890921595724,0.21672777449354133,0.21458669088406207,0.226578696850888,0.24076456131078447,0.2318973743719085,0.17901556641103697,0.07637715929358427,-0.07559085718403634,-0.24665716106059504,-0.3877584397802997,-0.46742363119555785,-0.4889120482520261,-0.4633997849276409,-0.39787892358120847,-0.28627904881249844,-0.10916728435111558,0.11482819038184376,0.28012649385384236,0.34453793464600024,0.3561369377039412,0.3619622870257803,0.39300611891401055,0.47191613107371805,0.5816233816908924,0.6647530016986487,0.6844694471535456,0.6598726513715566,0.6060861817924987,0.5096728808992029,0.3329020814859324,0.03673231361662842,-0.2981107045633075,-0.5321032017271351,-0.6505838944551601,-0.702998841307488,-0.7210160031122961,-0.7199893519957098,-0.7016358950664562,-0.6696198845116079,-0.6400176078702865,-0.6257508434607263,-0.6129297012311394,-0.5767661968036457,-0.4987638389968012,-0.38308635359954774,-0.2524086649017651,-0.15158512633366047,-0.10713070556553377,-0.10504767481082357,-0.11264563698169083,-0.10089141215249232,-0.06113572703683577,-0.004002465431839071,0.05218752410214646,0.11129028451403536,0.169830535272814,0.21556868146570904,0.23216766793263496,0.21326995381022185,0.15778269210834273,0.055584799877133086,-0.10375197312055567,-0.3167596202397761,-0.5335199484344666,-0.6939191099027754,-0.7855871637145123,-0.8279385550903541,-0.83700463849077,-0.8198312519460307,-0.7733654348792112,-0.6888283364262001,-0.5368195401630583,-0.28033426589019994,0.08590166318894536,0.4684449719675633,0.7364241069069061,0.8705322297315526,0.9302770368712308,0.9547693587381604,0.9564561854148398,0.9293092577187922,0.8673791458702376,0.7797293110579734,0.6794257455049123,0.5650382782276194,0.40718738325724174,0.11743438808897372,-0.3672058944021666,-0.7278788305573857,-0.8569650963024723,-0.8993559416763651,-0.9092907119132737,-0.8959878347089255,-0.8482690219679988,-0.7335256134574683,-0.5404971919204987,-0.3878970867546089,-0.3605090734621561,-0.4048471561098815,-0.4548174069331588,-0.4845934576920409,-0.4887570309356927,-0.4637645851680063,-0.3873416739951773,-0.2270186637922473,0.04676635102756658,0.39977355896191274,0.6939700074138272,0.8507116928184119,0.901438264839971,0.896711974076896,0.8739747717357307,0.8516377117317026,0.8325116002491315,0.8152312338807486,0.7939101151243363,0.7555009267624099,0.6918351794667041,0.6049081116905268,0.5074996902056335,0.4169583623988411,0.3461268133267777,0.2938639457035416,0.2749877968567852,0.3017150181435683,0.363081582982115,0.43453439658182524,0.4810464710984813,0.492259803148175,0.488694762345737,0.4860906562169872,0.49304639473982004,0.5044165661836214,0.5034814735327923,0.4676703856940688,0.36381051132221137,0.15695030054922549,-0.11752285391335503,-0.3284141480196105,-0.4274402175490826,-0.4445931060856006,-0.40727569449829076,-0.32834164975448804,-0.21135478633387286,-0.06250701392018214,0.07742503502437152,0.19002664849551795,0.28551142211623093,0.3706172276023063,0.4424134740993113,0.49915668386488743,0.5454420624122346,0.586944211788922,0.6234177062276777,0.6540051158428672,0.6702248751867631,0.5930301100425512,0.04652093533196098,-0.5373158968327474,-0.7362484554639077,-0.8090323892424333,-0.8338726981005659,-0.8307128115263978,-0.7973947146235598,-0.6947242872662189,-0.37278929902014285,0.23582678149055633,0.5636365075575464,0.6202527213982745,0.5709014418374305,0.4790361198485978,0.3725476782533769,0.2664322083135285,0.16478397658890936,0.07816389997449523,0.014725029198805284,-0.03625206077591934,-0.10312009180042539,-0.2145081030274964,-0.3481614764319702,-0.4676063308720719,-0.5537081619261233,-0.6005859730271937,-0.6167834500691722,-0.611758841977552,-0.5930285913617549,-0.5603647470174523,-0.5076694671324975,-0.42944210052123344,-0.32113989101220847,-0.17448524030418902,0.0134564820148672,0.2389931113069941,0.4494945001458367,0.5873648776512135,0.6480417756221338,0.6504430384792369,0.6126802799032683,0.5525736469109075,0.4889799698935638,0.42698653323674235,0.37067942164213796,0.317339019371434,0.2614167836026065,0.20244168550294867,0.13818481264565438,0.06636359905680578,0.0008183600254917228,-0.031916722817485275,-0.02332722112754285,0.003884155732002023,0.03667494367203912,0.07631115789505202,0.1206093451161896,0.15705412787840328,0.18351134042065229,0.19942831224910446,0.2114843251313035,0.22682885883037482,0.246676493152786,0.26817932083865975,0.280368026101138,0.27267651711405116,0.24749917213313763,0.19942135778193384,0.12495662259622595,0.027919855647781554,-0.05989955880806501,-0.10413719196042268,-0.09310505493827517,-0.02820821835989227,0.07691567678149484,0.18126391545435683,0.24185100401958473,0.22390616186171608,0.10072350337560271,-0.07081128831152658,-0.19656218111063709,-0.23537762297076595,-0.19146396553788586,-0.08002824884336895,0.08857633625254846,0.2724578954834708,0.42392046869684946,0.5252107520057816,0.5797083839278053,0.5941237293466588,0.5707211786715949,0.5040072523387101,0.3528343901457214,0.08545260910627167,-0.19248102592374486,-0.3709217049734735,-0.46536643621120466,-0.5142127081345423,-0.5388445452444333,-0.5429840943104576,-0.5066477844546033,-0.4095734804173499,-0.251115566468949,-0.048103653138596734,0.18357835357085636,0.42462197892081865,0.6041725026241178,0.6695696896522952,0.60006454858884,0.3295557095194248,-0.1292493343676443,-0.4844314882283549,-0.6410667448612389,-0.6803042975334275,-0.6447663488683774,-0.5483077812746154,-0.3918440218051484,-0.20359578402771217,-0.06986214949583548,-0.04762603838990746,-0.10650738003151233,-0.1814406190477494,-0.22958888051145152,-0.23544765752478886,-0.19193025821649454,-0.08755908653714096,0.08447961050108899,0.23023568092904154,0.24779269383967406,0.20023820545346763,0.13497256879933361,0.05870322921281361,-0.02355222874830282,-0.09916481609611967,-0.1621089824799748,-0.18983180082267984,-0.16142650431784275,-0.07601305103735148,0.027794461397955758,0.11987299042848293,0.20479141225605635,0.30120734451980974,0.4142959261607123,0.5316242558652686,0.6297014054547024,0.6827961164980261,0.672438932459374,0.6027931758966864,0.49575658233991204,0.3859922787529102,0.29436687527374,0.22828189699973034,0.19579846088754618,0.21005734861133885,0.2807891991430586,0.38330475759961136,0.4659131966700481,0.4886455958025162,0.4230876523485696,0.21112265669437813,-0.1581718319437668,-0.47617654693488004,-0.6033191605380918,-0.5281228263636983,-0.0957994977695094,0.4603831459285254,0.7131254145174717,0.8140858654310968,0.8644295154453935,0.8919824084558574,0.9039737438968809,0.8997784036139767,0.8653845332489669,0.7890336920229565,0.6896560496061348,0.6102616622961383,0.6018275524618154,0.6657991875928014,0.6178863669617557,-0.056910968793817365,-0.687972301664433,-0.8538422504143,-0.9040912438485242,-0.9225650574818228,-0.9271156061384511,-0.9195520259567037,-0.8921486110082809,-0.8269724207173702,-0.6996156723472257,-0.5249894239125305,-0.38142049076033013,-0.3199776086180985,-0.31924445852594835,-0.33487241853952504,-0.3193829626541839,-0.21726940361121252,0.03178608864936572,0.35004200060811497,0.6017692025163922,0.7548415338221458,0.8400607292025982,0.8906359676391032,0.9214301813510287,0.940010434293004,0.946164778777335,0.9371715668761873,0.9043454465108635,0.829845492842726,0.6943748589677251,0.5174285597837162,0.36254967096829493,0.27782865669800766,0.26444992045144844,0.2971376100363924,0.3528631638535466,0.4113466849242584,0.4465195477574911,0.4364372776599361,0.360723157371135,0.18446338497612702,-0.13617510602012917,-0.5316999772487769,-0.7960613972687416,-0.8987767221248306,-0.9244695374778188,-0.912015752440241,-0.8330935453202577,-0.49606304106599797,0.0813045763904002,0.32996845504420846,0.38809523929066087,0.4219465947160966,0.5040647617088135,0.6050045384558255,0.6829849088691203,0.7296860955111074,0.7498836143793904,0.7482488339746548,0.7315522667277545,0.7030610270728409,0.6591473491622051,0.5964236050956802,0.5296607655726057,0.4839649694391276,0.4516217745798272,0.3990480699054438,0.3183203373598214,0.22122233354089302,0.11654810760009505,0.019237142629289283,-0.07348261345197162,-0.17479018060008703,-0.2754556512840084,-0.35643024369526016,-0.4197266741787624,-0.4669037119314871,-0.49594008857381244,-0.4953857644809376,-0.45497765304634624,-0.36346775125005093,-0.2091894786698197,0.009092175792985395,0.24423042419466548,0.4208146079404109,0.5220930836414854,0.5841365231635458,0.6334797531688071,0.6789276927757204,0.7197750477602736,0.7565256235336786,0.7700129812598355,0.7554101633651528,0.7165551024863799,0.6376044574228374,0.4862490358159949,0.2504578549708891,0.008875330380903624,-0.17766447079449288,-0.3095784533960914,-0.41170391864850026,-0.4962069861771655,-0.5720423804787006,-0.6466965625262712,-0.7083948701902539,-0.7466384815584013,-0.7596989572197043,-0.7507634378129743,-0.7201554666894158,-0.6599722099727736,-0.5383661698790763,-0.29088742580023114,0.08574043889504193,0.37800489876127014,0.5012064331866782,0.5316125154998147,0.5238365965736358,0.4998243435555387,0.46937593962802215,0.432667263377793,0.3856519848178493,0.32396990668526493,0.25011482088198284,0.1759034621574877,0.11530381491212059,0.0797058952661527,0.03827564848330401,-0.043058371386213365,-0.16408039073129893,-0.2866785754265673,-0.3757083166602045,-0.41169483342808705,-0.3974038236728756,-0.36085531073279714,-0.3371049649804183,-0.3379615401554838,-0.34855456284269554,-0.3467956245993397,-0.30973456123529625,-0.21163255482716387,-0.031176918562354942,0.23321291596871335,0.4835752161031087,0.6085830638438935,0.6351613068746573,0.6166400327753364,0.5755868314873026,0.5126929504327048,0.40727643563156884,0.24408000530309082,0.061659783896394885,-0.07132132978822811,-0.1372283783529255,-0.16153631826810666,-0.17266966397662184,-0.20063907060417852,-0.26391223811116743,-0.35077782817053027,-0.414753136186254,-0.4228988610102734,-0.38075109905489934,-0.32485731574191945,-0.2807807821025498,-0.25857608187505,-0.2579110149759653,-0.26846798702239233,-0.26799210748573987,-0.22915242147664142,-0.10519035419567446,0.12998336989233178,0.3217751823161102,0.3291168252621472,0.2449987371784186,0.14734590742135797,0.06682927166331204,0.013029976881426134,-0.011933267348870739,-0.03033178907797671,-0.0782476755330476,-0.164621043357123,-0.26583434358088726,-0.3371954635573656,-0.3586928872076912,-0.30482379977798385,-0.14184233936772886,0.1054623713293127,0.3309536941272093,0.4766236951403147,0.5591223572217437,0.6043473193470892,0.629280972782747,0.6456002442036026,0.6552825252882836,0.6575652323483182,0.6497838589890406,0.631040575219112,0.6066115933253602,0.5739144034796437,0.5335570984291209,0.4865853747274097,0.43173976086732213,0.37120864870084225,0.3138584688042687,0.264121139519326,0.21361627213434367,0.1458081538082423,0.04702525047188439,-0.08270312594865961,-0.225984414922499,-0.348344571031486,-0.4150068863097623,-0.416812843113527,-0.3522482008339354,-0.23444114056388984,-0.08915656716694019,0.05677057599606781,0.19158759181415633,0.31023269704439765,0.4027748953057793,0.4665943731469551,0.5024133062575684,0.5073684696702204,0.47598149760507635,0.40835203170024353,0.285808149852861,0.037330989858539,-0.2645978335146966,-0.45461179437280513,-0.5371944778533483,-0.5582345826661408,-0.5510221133915388,-0.5337819592623436,-0.5123486717060458,-0.48498769501051175,-0.45337786828064813,-0.42430318151777285,-0.4029800263600936,-0.39340476392239354,-0.4051936120964905,-0.43892367402151666,-0.47177925929202524,-0.4809891786729975,-0.4522735305597044,-0.3674186403201949,-0.20147958413461872,0.04329193781148203,0.3145210903392154,0.5214349924882097,0.6327070889855616,0.6898869149723384,0.7316109842213849,0.7736442355781037,0.8183461350273438,0.860059073140849,0.885343947134178,0.8855871049542904,0.8599653445847925,0.8192279187468192,0.7644014122984768,0.6590856608574679,0.4450766754031869,0.07814902147105798,-0.3828621640312179,-0.725259468164121,-0.8663551324830684,-0.9027949329482731,-0.8889814560542615,-0.810527465839233,-0.5705313123562274,-0.1301220716145113,0.19654889745498091,0.3094295598699498,0.31364078079131474,0.2806931185531695,0.2465104702979466,0.22659058500008084,0.2273203924554622,0.25093136164732766,0.2932405072548241,0.3401752616449417,0.3826115094296666,0.4068856090580039,0.3978012939031516,0.34726506450073186,0.24856755979290432,0.09443427544258161,-0.06930563506510429,-0.16668461934316336,-0.19847765124892194,-0.21498439136591457,-0.24773733525061123,-0.2845443359285452,-0.30105049324690564,-0.28871700767749386,-0.2548255945138217,-0.21428367777408366,-0.15590807787576277,-0.05703386390253242,0.09988371005703348,0.29888793584122036,0.4941296593713756,0.651452926730603,0.7555614278416428,0.8057282958703166,0.8105095073940255,0.7835855587688547,0.7316288828120467,0.6623828031722689,0.5836117795285986,0.4944595383985118,0.3929764427458318,0.2855763737077712,0.17582962250031617,0.04657096133805441,-0.14250755784142566,-0.4168325300373458,-0.6713567834979253,-0.8113727854142578,-0.8703390316850963,-0.8906254397433283,-0.8854466566493433,-0.8451724623896344,-0.7302004257374555,-0.4766804745106297,-0.16497236516482924,0.028413288183508308,0.10981507090628458,0.13768625445780835,0.13373077320155702,0.0906846989679399,0.023734472240770892,-0.022959269157075815,-0.0016366199555630583,0.10025036682632359,0.24579838964030926,0.38564128648802776,0.4730572369905102,0.47215654833718884,0.39049840116618384,0.2702238113941954,0.15579869580157396,0.06578444747542436,0.0163250900716986,0.03293282806269291,0.14353342923099702,0.2973688857692076,0.41261814854411066,0.468839273244386,0.46803450993297163,0.4156649931756001,0.3163104243525433,0.18417794941819524,0.02184605791333993,-0.1476650565328404,-0.28503961540466405,-0.35423102244764043,-0.3678628322607091,-0.34545106702332923,-0.30605919377476487,-0.27415332156055694,-0.28184225573115895,-0.33523603025207027,-0.4041536370659735,-0.4376093095299098,-0.40473321179730704,-0.28576406540383537,-0.10860314795628732,0.06427281849081368,0.19361320773471238,0.2809826750183712,0.32729333090592755,0.3247989767654138,0.268493276092722,0.18243104057440865,0.11003396591215903,0.08002949548597979,0.09389153008287808,0.15595405615517155,0.2805747970798062,0.4421607877613289,0.5714131105619514,0.639442179165591,0.653096487762677,0.6192416761019045,0.528362016237251,0.3662324523887319,0.15125826848169344,-0.06139638856850688,-0.2297119288499188,-0.351156478584965,-0.43207152336431237,-0.48114235616656953,-0.491341314193686,-0.457387051006159,-0.3698216093779571,-0.23971387982832307,-0.11227506523429814,-0.032101912884317955,-0.0162169032144699,-0.05838183390396936,-0.14180326607322602,-0.23797526581250547,-0.3121286603762865,-0.34636600521109395,-0.34890219053888255,-0.3364384500359448,-0.31574675968036775,-0.28610823846900807,-0.24718577950111476,-0.19264054204851572,-0.106846478866749,0.01523263547205967,0.14907166829188992,0.24649217441144897,0.2742709366427159,0.22734503935293068,0.12772301203499326,0.017855923676162497,-0.043849696556064695,-0.00021032393845576484,0.15410703446236182,0.35301637271657293,0.5155443594801076,0.611321145575953,0.6639989302163496,0.6837095835987789,0.6722027799116901,0.6370428890093406,0.5994184796178198,0.5736253826017982,0.5717196586194363,0.5955882377929493,0.6387246234030414,0.6830168693585464,0.7150738507341644,0.722576877654682,0.6943480247700993,0.6245762121972445,0.5164926739757149,0.38633937615665653,0.2519417796692323,0.11401275035435621,-0.043399446167946464,-0.2143218714046389,-0.36820073344955967,-0.46793791226936843,-0.49300052061850125,-0.4446286704583407,-0.36317575666854984,-0.3222711138022357,-0.35515789683273286,-0.41867141257254603,-0.44414017173879233,-0.3979277880255634,-0.28571359653833955,-0.16566009466987616,-0.10279582683508404,-0.13994668363671436,-0.2716951131970538,-0.4271547560050261,-0.5306838972696424,-0.5676222094297714,-0.5696209977640527,-0.568542741504668,-0.5646966700019422,-0.5492794147817779,-0.5098330037094023,-0.44643743999754315,-0.39775054744592403,-0.4044367449245282,-0.45334318092440756,-0.5043677654362686,-0.53440450244981,-0.5390502862430595,-0.5249199223475757,-0.498721450791957,-0.4656609873186675,-0.42822426959625653,-0.3775216604339526,-0.3005721559030986,-0.16953485788961425,0.05370622932937245,0.3503218175404852,0.5832990847327985,0.7020131697155757,0.7463464032544491,0.7461153802786341,0.7030132119793588,0.6246807943678845,0.5629182873224302,0.5595281982737972,0.6106795055190368,0.6861759196864355,0.7519352156570595,0.7853170048441555,0.7872803781148897,0.7588225525712238,0.6837718804286498,0.530336817925816,0.3006869502386442,0.0955432038909149,0.03834923702515969,0.147468075358579,0.33109622077119405,0.48638475825745564,0.582285952997572,0.6396637203465737,0.673679741972971,0.6916718190815538,0.69935628392017,0.6939618988289404,0.6669614137521469,0.6171657336195089,0.5488661699629517,0.47071132719799597,0.38273308003754675,0.2618665942576371,0.06661190022848988,-0.23699037141391546,-0.5672689214530459,-0.7699841203155501,-0.8574386631675934,-0.8881440465682502,-0.8878904828673982,-0.8497111839171055,-0.7342897323849366,-0.5078692378754649,-0.2558069941951327,-0.0881110209649688,-0.011636574377532143,0.02652969222812989,0.07671379480472318,0.1670888188445128,0.281880842729842,0.37797000119683605,0.4287409218691163,0.43596914734413567,0.441634328819064,0.498034495948493,0.6169152007065154,0.7267485763570521,0.7772629185020402,0.7952398971507758,0.8036098299221056,0.8056234627274783,0.7952023866480156,0.6787398108475621,-0.32424313879726613,-0.7840061477537024,-0.8303796356382503,-0.8299744065460434,-0.8076256877952389,-0.7580634408516145,-0.6576633561646645,-0.46959996868930504,-0.1720893149904453,0.17257379307845933,0.46262654624051963,0.6551820314058956,0.7699119249841295,0.8312677308715825,0.8542649646587691,0.8484043371415646,0.811276853369983,0.7282718580580732,0.5694975046956532,0.30165456644963934,-0.013828829380919207,-0.249888903825473,-0.3792285261094025,-0.42659107805606206,-0.402493501757817,-0.3138317123143053,-0.18390735228096622,-0.07883159317555158,-0.058953550618692445,-0.12815905603447328,-0.25914392336997943,-0.3955268865820321,-0.4844898904723408,-0.5244477408225269,-0.5311542421190394,-0.5132955083517381,-0.47638548339969183,-0.42999050097077657,-0.40322911897309327,-0.43400044146798344,-0.5159228971363639,-0.6105867950585467,-0.6779212926001931,-0.7055795056430813,-0.6796265744851262,-0.5600590083414283,-0.2862832202960297,0.08788274631038698,0.35965063615106674,0.48665576511394654,0.5317943821509188,0.5395837659262687,0.5311796253638901,0.5158881611567332,0.49221594939941565,0.45925414859121677,0.4156357418695133,0.35740503190984185,0.2814683344909107,0.1944070447999872,0.12324287307387809,0.0859990728455483,0.0865943034980523,0.12674958051354754,0.20012896476177955,0.28997770207109486,0.36923659843528256,0.4216110405058409,0.4433939289802851,0.41463178045262417,0.2714044877309082,0.004528452336232257,-0.2488569079974225,-0.39786656349907534,-0.4411288347943774,-0.3724312259059068,-0.18393479924662215,0.07297125653648445,0.2727422847997532,0.3589387205358701,0.3449665683803786,0.2428791073029719,0.07320606303067495,-0.11900805645177183,-0.29301285656542086,-0.4207001530886879,-0.4890202798366825,-0.4962368580040953,-0.43789745882284775,-0.3158530548462335,-0.16096234022256467,-0.005200054483707094,0.13815511614444176,0.26303629672931456,0.38076071644500203,0.4982197633458212,0.596780765085773,0.6542970318847657,0.6607988164625206,0.6233961859190253,0.5485964139775859,0.4325066590269659,0.23795077001091947,-0.07076371330854117,-0.4092002523658896,-0.6503896083678085,-0.7788439226240389,-0.8237232608940549,-0.8083469254277703,-0.718081068115189,-0.5241209236488946,-0.2755510957774764,-0.1042562461502515,-0.03513618787086419,-0.0270216440964518,-0.04052187203982922,-0.05249345874509815,-0.051472104476233675,-0.028136428400013413
