0.5648071459806686,0.4942586979651159,0.4351422728572893,0.4340278429145445,0.49502119329211236,0.5777414834749253,0.6331213824409381,0.6310754247500384,0.5380887644189455,0.3039283350937202,-0.09115836125288149,-0.484371859839212,-0.6306779944965601,-0.5998491124892241,-0.5026094194509546,-0.37834014288836837,-0.23786921128407032,-0.07772964675392606,0.10883620762632697,0.29010558528176156,0.40505299146113705,0.44379547666184516,0.41802201063529015,0.3160153296987386,0.13609074281089642,-0.04809152536770854,-0.17489125635698635,-0.22833983755996237,-0.21266221106599734,-0.12347489983628412,0.0022430454069364567,0.09621913430439263,0.13451487926508562,0.15992232567129233,0.20892924910882593,0.281105953120673,0.3565014195787834,0.41429150809022863,0.44657886889427434,0.45110269636487355,0.4150105877481528,0.32251949204909497,0.18618337561772685,0.04648054855966125,-0.06260593665203071,-0.12916279344556503,-0.15164109341000317,-0.14019470111469862,-0.1041073421787196,-0.0555797034687019,-0.0046649338906316565,0.03863947846477477,0.06629408334165078,0.06821486619965969,0.03733826667303617,-0.007436400165696117,-0.04039846155091299,-0.023645518301613364,0.08258061686475161,0.20254751503241278,0.2553506467407056,0.2871133175740844,0.3312647683447215,0.39606777697989426,0.45316942420403344,0.4530823177448651,0.3737064216422412,0.20964918510072192,-0.015056140380350198,-0.21832373618658418,-0.3416554983567859,-0.38448088879814885,-0.3722345980034071,-0.32901956010905437,-0.28228538963851113,-0.25763046861328776,-0.2872245616801522,-0.4050237172057907,-0.5730115724312498,-0.7112096907992684,-0.7390258537182036,-0.6695704145218239,-0.5843329147559975,-0.5122313101318586,-0.4400853268672589,-0.3307729721458638,-0.1524869675297976,0.04332589383249769,0.16519733395285968,0.21656976666533667,0.2286540726455365,0.2122684607915447,0.1639080076066415,0.09193532558728595,0.009386742269552661,-0.07072286224495217,-0.13116236469246656,-0.1519030676904156,-0.13660889060023476,-0.10635455880849355,-0.0850297376662515,-0.10182086413874275,-0.17836749386112347,-0.2931745219185317,-0.3942688832037418,-0.44649497351728074,-0.45368197595991616,-0.4293526189828639,-0.38022931748606537,-0.3069206541926778,-0.22262139122822713,-0.15780625712044005,-0.13214541665370905,-0.1495622858074818,-0.21218751237942735,-0.31458602349411713,-0.4244018112902309,-0.4735115388713252,-0.40121409807003333,-0.22211221969129835,-0.030322380195547304,0.11424899661488,0.20650730781585114,0.26986103715539783,0.31572946711199007,0.34078973344803104,0.34053557801870415,0.32423941405152945,0.32296619014635597,0.33047847208346925,0.32926933198485675,0.30922523552461073,0.2706810340834234,0.2303665412573689,0.21408227544267328,0.23094413105040543,0.27443766495254945,0.31676381309680657,0.34538584823627944,0.36532927004368426,0.38599096326444415,0.4177738418806984,0.4703930152816582,0.5513400595203595,0.6436821658438769,0.7268293061795511,0.7944140635883058,0.8473402985271336,0.8872760760408803,0.9132283732161944,0.9241971613080625,0.9175793102877777,0.8982618034148081,0.8765560664613304,0.8595823715396603,0.842600074120616,0.8109097360202356,0.7162914062218575,0.38576329408064275,-0.35010514688693645,-0.744092449864807,-0.8417241204608552,-0.8614140059490203,-0.8515529964065566,-0.8220741535748435,-0.777725078665619,-0.7187809144352408,-0.6288647486237432,-0.46331443787130183,-0.20129296221693338,-0.006224765945696695,-0.00807273859639922,-0.18464322514006914,-0.4406537098691962,-0.6426671868802901,-0.7555351093915802,-0.8149301033890722,-0.84434543165068,-0.8462756821174561,-0.7737534737588486,-0.582843592631925,-0.397046416126222,-0.2935143914162052,-0.24306038921430198,-0.21386610426303465,-0.18876338911005555,-0.16258774771563994,-0.14819873456853877,-0.1720866868244386,-0.24730550751206495,-0.34478017413616185,-0.42476056722298816,-0.4711440394871513,-0.4917422401054369,-0.5054720298425618,-0.5266719430455032,-0.5530608676086545,-0.5700498413103964,-0.5552380368150852,-0.460125807392046,-0.1483067505394107,0.3950195598042318,0.6935798250524835,0.7688927117870885,0.726978297909637,0.5769551816207953,0.40695792328331654,0.32558404354900844,0.39074661089954826,0.5101146753913365,0.5139608166418813,0.49311194786803003,0.47505975430902686,0.4543284828019883,0.4221462573387543,0.36658437389631554,0.28945833780142916,0.2106089931672728,0.16137511741510668,0.16687072857846194,0.22681318214663707,0.3119814248454678,0.3922116081890496,0.45364685842035485,0.5021530074077158,0.5445684092314712,0.5767654248106131,0.5837555430448882,0.5544194713987141,0.4976787034499029,0.4407871713888458,0.40277926676274756,0.38625021635368184,0.38348846000507825,0.39262776747980305,0.4130317059206643,0.4304411746444496,0.4205733452834742,0.34090150996961327,0.1548952009492719,-0.02895315845442414,-0.10281044367376338,-0.11469329546729194,-0.11146915892681669,-0.12025326418631599,-0.15786272688951594,-0.22869969725451914,-0.3149450685597716,-0.3976835840083536,-0.46123926655031905,-0.4914809475520895,-0.45614950980818003,-0.31887298825500343,-0.08302686985630535,0.18158664821367035,0.41773224805982184,0.5904273632711059,0.7042288622773305,0.7633139172176318,0.7629209929714373,0.7256943114546509,0.6761519332322895,0.6239112898490591,0.5593951748056825,0.47759438777408153,0.3779458442820927,0.28774532756845544,0.23113289541580653,0.2231616458746497,0.25024027064075144,0.28769831977602733,0.31388872753053215,0.30515949956520244,0.25524595861181654,0.19041421585474524,0.1429566323847054,0.1345251517384405,0.15802154550667255,0.1937441502012151,0.2345413370011017,0.2681615832716884,0.28408663003591417,0.2814525441231595,0.27208185751188135,0.25694199923809674,0.23828293970998532,0.21579335149238157,0.17920697388558865,0.11546974795672646,0.04031127782357983,0.007011212854389049,0.015029658112297242,0.01857295087630364,0.0016818453677316266,-0.037772682925358854,-0.08527853005930404,-0.11119246894357707,-0.09181278653719589,-0.03359074103108595,0.035669963374549224,0.0799490754178025,0.059118343081594846,-0.050204499206568644,-0.20782542236461526,-0.3508836959512704,-0.47013038911694105,-0.5664561989372908,-0.6085184687413007,-0.5698959758901576,-0.524222244934386,-0.5245733798913854,-0.580180358282945,-0.666938620112281,-0.7323466745924626,-0.7315865143993373,-0.6322612628708547,-0.40820148523715216,-0.11908792457676144,0.077411458923713,0.1418791793940443,0.09063088953232681,-0.11701630870060707,-0.3997969718584649,-0.5624360623782272,-0.6440014675751976,-0.6936424732882754,-0.7240645447142058,-0.7307005530202396,-0.7019621186212222,-0.629103039494962,-0.535205163000168,-0.470464675986639,-0.45011791527559764,-0.4507936088006186,-0.4417059559376901,-0.4001990304839553,-0.31644963944449983,-0.19642421951252137,-0.05448869413246285,0.0822458848011311,0.1939119295452694,0.2803036316168871,0.36029055824120887,0.45701607494182,0.5721135345644517,0.6763966783660145,0.7318430017883686,0.7256198239379544,0.644896358575637,0.49739954179677803,0.32601356482962146,0.17919141373625597,0.08087321014587597,0.028485192750317363,0.028169924720806015,0.08320282379929683,0.14163093223782272,0.13116651828382017,0.0769472218867219,0.02122572670446738,-0.03389092422931319,-0.08620598243584994,-0.13986696370571555,-0.2038348123565005,-0.27715646428248925,-0.3463754893437994,-0.3674213224225059,-0.31389256670703414,-0.1727835902827094,-0.0176427443525619,0.08687263879101409,0.15103043128103671,0.20285938470525555,0.26044686972459313,0.3263254518121532,0.38793732688028026,0.426912497013254,0.4377494053764816,0.4292179328912647,0.4165799767632825,0.41350813039225814,0.42034427594217316,0.42727002189300495,0.4098289073792889,0.33142615912308937,0.20774913543702583,0.07701500866107704,-0.03692322540557076,-0.10693800570313841,-0.12899983805828474,-0.1363618142064484,-0.16127080993375437,-0.21550817855404922,-0.2604277049983124,-0.27991117890768996,-0.273013718971934,-0.2321913131339579,-0.1301310666655952,-0.07811094023267494,-0.08549648982643847,-0.10648034943884872,-0.12600791161532332,-0.13365834521734876,-0.11924781530960975,-0.08254911989295866,-0.02998882475971816,0.04294263236444424,0.14338794951482853,0.18548340704687777,0.162107496550774,0.13792411187702372,0.11773112802271081,0.0960174876441968,0.06221100648405609,0.00598434350133832,-0.05009584806286744,-0.051510459687858993,0.00854020070157835,0.09457211085700927,0.17502914946593004,0.22446455838404636,0.22460869166305417,0.16279496222025275,0.00814230192916604,-0.21504633157092573,-0.37454927500743646,-0.4585046431733061,-0.5085355870217265,-0.5332265629701232,-0.5370165399686495,-0.5268161606726921,-0.5205275400423663,-0.5209854402313318,-0.5076810296375321,-0.47100324246762,-0.4060691769832285,-0.28981280438199225,-0.11074457253020834,0.09864555609124476,0.29234566562045544,0.42622422820648087,0.43223861147247483,0.3567177231354172,0.288072277923759,0.2558392561324778,0.2579710453863319,0.2805100486924015,0.31232775813309055,0.33069209102119024,0.31955293337268414,0.2732626919473501,0.18452743111561945,0.044579496431593195,-0.13418437227682484,-0.2777194173976437,-0.33811289430981306,-0.30652736502605954,-0.18171335294726942,0.03947216604147656,0.2982896904411399,0.4668795514495286,0.5058696315649239,0.47838482613533145,0.41854352066300465,0.34251682788348253,0.29345645604951154,0.3113493806367289,0.3830233068338196,0.46506573531216594,0.5202097863055483,0.5105190641396534,0.4107025688874677,0.1778548497884855,-0.18825055934121598,-0.5358453395803755,-0.726102598900561,-0.8004889231400576,-0.8152986245571004,-0.7990314653636875,-0.7777968929150576,-0.7544942324090603,-0.718487576810745,-0.6619691813307726,-0.5540046657017758,-0.3188694039497743,0.11224127875256854,0.5109651904051371,0.6799039919516896,0.7071135099584611,0.6742022342965279,0.6268998565376677,0.5878751645829523,0.5697080157345772,0.5799522866187957,0.5964235910607911,0.5827276963615373,0.5188210394874716,0.4297701744397603,0.36158154999124337,0.3417400736313036,0.3608342318585997,0.390510950687668,0.4052846661870076,0.38289972901826447,0.2908803698196548,0.09920717594487612,-0.2012885190252435,-0.5400232810836534,-0.760502268989654,-0.8405435901095325,-0.8597494234577667,-0.8595521958279954,-0.8503743609409834,-0.8261836368794969,-0.7634692275841588,-0.6394085067712338,-0.4879067568561957,-0.3884962454167905,-0.3621415930786466,-0.3823947720747502,-0.4193360940101977,-0.4425417357693087,-0.4162533083461162,-0.2643986844023065,0.08672844130502326,0.4165563250657783,0.5654607712104777,0.6222495058893406,0.6507839175797734,0.6728201633684984,0.6826134050205879,0.6717028497452163,0.6671627176543938,0.7059719371095499,0.7535831999358492,0.7534085934906605,0.7291210026273557,0.7085012700643137,0.6918074023100252,0.6683121467833852,0.617499687280868,0.5117438918052463,0.30958441032513323,0.04818487566775819,-0.11899030922894673,-0.1807845392641353,-0.20907309197592958,-0.26433319865400545,-0.3319253212053538,-0.36651118925571574,-0.3676750286386341,-0.32880643494636586,-0.25973955523267883,-0.18562240413387723,-0.11055394765667036,-0.025032731317664828,0.07728343632487475,0.21059587937419774,0.34048825932569277,0.3812845983693832,0.3150481029650845,0.18499580784335884,0.019290551628233264,-0.15104018251969423,-0.30215303612198435,-0.41757812135991546,-0.4870017715151885,-0.46927630599079273,-0.24629447640512067,0.05248231240055224,0.203506371963138,0.273245959146951,0.3235535564625911,0.38455085031970754,0.442747878225668,0.4833509115231562,0.48604554596793137,0.46041317322906117,0.4217312085817923,0.38237984181584633,0.34652189683579704,0.3018424873823517,0.2286386118857476,0.11658455862056073,-0.004451670131995281,-0.06687655909920177,-0.05567297079530212,0.024775403538068216,0.16204032792124004,0.31730157274987586,0.45469665668724685,0.5560073380103919,0.6239499081578119,0.65827811784451,0.6484100249932054,0.5871754868205307,0.48481662141266935,0.38100042109108184,0.29376048768377805,0.23389782704235393,0.21616123515522018,0.24401302710425468,0.29774142064102876,0.33738993851483573,0.3281930835139159,0.26362612743496144,0.14397703378992197,-0.00567765607205524,-0.13820516554496098,-0.21519977182172695,-0.23959755529668697,-0.24095118497817072,-0.24298266808945052,-0.2586735948540884,-0.297517705821589,-0.36904456744739467,-0.49474203160379854,-0.6675172964343578,-0.8125261283873134,-0.8840212545595906,-0.9081710377954506,-0.9039568865058738,-0.8474106930169848,-0.6492713220267129,-0.25990826999245525,0.1347669607457847,0.4149841434685621,0.5977702087154413,0.6980978727078019,0.7384573183937507,0.7348622687620167,0.6938483367598899,0.6155731769759207,0.5154350303291017,0.4347438803349229,0.4098269483981118,0.43717840903982225,0.45521195947487575,0.40132402462749434,0.30822628596716667,0.22365156071977052,0.1599408897643515,0.11681666580706235,0.09152863069791915,0.08597547367456553,0.09214626515794003,0.10512616619307927,0.12300027864889326,0.1322424305070962,0.12930861488618955,0.10700270323727129,0.06733669209010215,0.022015285438154935,-0.020279578162582374,-0.05910049876592564,-0.09469137479507787,-0.11946865828720919,-0.13594295301782114,-0.1511876922769345,-0.17530148726727127,-0.22386443494324162,-0.3061052579876183,-0.40940291902775233,-0.4905994363601141,-0.5033481708460544,-0.4204200039747633,-0.22412010762906498,0.05812902369975029,0.32542165851835686,0.501492424106203,0.569809583864462,0.5366848988251951,0.4515218098189448,0.37371279569500604,0.31426561313228724,0.22030319798011283,-0.05175830434300554,-0.43469930718394983,-0.6158982742973036,-0.684957433575122,-0.7057576447608438,-0.677153111689416,-0.5671813619822789,-0.38432202799601095,-0.22757356408652904,-0.1581546168673782,-0.17059136340529701,-0.2305556620779545,-0.29413750627440394,-0.3246031497474279,-0.3024812302942957,-0.21347986359437046,-0.08142742177158095,0.03398581741902408,0.09471648354269306,0.08783863306908016,0.0331385587893655,-0.03822564450247044,-0.09783512665286179,-0.11868938066118291,-0.08443999467639728,-0.0015420307351168166,0.09503591994984237,0.16594087476098476,0.18220054055838267,0.15186201206680008,0.0921273788107446,0.01532072225793864,-0.05948299154957816,-0.12376207650305739,-0.1657967604595735,-0.18498593678369435,-0.19425500146497,-0.20667735619355465,-0.20898883653858225,-0.1689696525540062,-0.06297298041917634,0.09186240661615666,0.23477084450675315,0.3170610065373917,0.3710827495339058,0.4402160397649235,0.5424148371663268,0.6456419462267906,0.7198111646462978,0.7615810990418476,0.7781051896590557,0.78048310078098,0.7824659544472417,0.7942353536018815,0.812239937361459,0.8282995535431098,0.8366863351231423,0.8289566383019137,0.7866661607962044,0.6737196360537759,0.45038048125509195,0.168579149635543,-0.04449701749601655,-0.16815465174540495,-0.23173218100390724,-0.256129186767801,-0.25042362733211004,-0.2124206206263129,-0.14624883411129186,-0.06405972745278156,0.010178426274369238,0.04202906171747812,0.017694057002295708,-0.05912087557619842,-0.16039016890191285,-0.23466615834073623,-0.2653617469894416,-0.2591609543153178,-0.20845767251527428,-0.11635058008071555,-0.0018628146153841087,0.10993424790886337,0.19415940367924983,0.2527980752530444,0.2962927365191232,0.32846557211719946,0.35022542028311215,0.3572008012504657,0.358995621153401,0.3736582276425066,0.4016638149394513,0.41773214873504416,0.40441896603726596,0.3582446855994278,0.29710674191129044,0.24403345480908475,0.2051123512348534,0.16843739482526102,0.12456058549616181,0.061877859539300265,-0.03137252039487479,-0.16461461756871096,-0.2969066695605224,-0.3827297696239508,-0.4240084090511189,-0.42977645349262794,-0.3972160874106957,-0.3267188256650405,-0.24277815215523918,-0.17795256622865938,-0.13946068425014155,-0.11564977901127312,-0.09349873267357836,-0.06276667079249042,-0.022649439610418553,0.01572889077012338,0.04220741071569452,0.054608394378343486,0.06612297798531139,0.11418672214439302,0.26985375490776936,0.6049399473177623,0.6711078355317448,0.58776115157162,0.5480405975401,0.5331018606676968,0.5254831016843342,0.507775536849188,0.4594987086335489,0.3564547395429552,0.1778087276568254,-0.032801161173111965,-0.20250089084997083,-0.3097702837258878,-0.3708819637062264,-0.3952689596388254,-0.39966820957924426,-0.4038338710473551,-0.42562586188774026,-0.4653002716111223,-0.5173613972520827,-0.5654776263163811,-0.5957029712657234,-0.6010126724288163,-0.5856655205968261,-0.5597474285844803,-0.5360504462045341,-0.5190989383575505,-0.48211948669642907,-0.3891052759462786,-0.240538565902376,-0.08703648785972949,0.02755973888098967,0.08560365818055916,0.09358249706256842,0.0656957236372459,0.027272854007616785,-0.00031644394115217444,-0.010582483072397647,-0.012345513412600427,-0.024214673782180864,-0.048564989919506175,-0.07554020503436698,-0.08454172870858909,-0.045557015362446655,0.08019030071811158,0.3024258243665519,0.4926195480429114,0.5631101117977068,0.5573086407555555,0.5083457196366491,0.41544141401787565,0.25872608610284253,-0.007354321197414289,-0.33649879020969775,-0.47437781352883823,-0.41132482227863526,-0.22170523827469735,0.12720247213387909,0.48427415558989967,0.6133963104877502,0.6232925299379665,0.5923200250612107,0.5304820136681088,0.4333988038255526,0.3156689058379605,0.2070965551618946,0.12366901745427554,0.0582998572760969,-0.0019527989254556524,-0.0725509723566669,-0.1582746628424692,-0.24249293386481874,-0.3016498860545891,-0.32312497628518494,-0.30346870834514644,-0.246621735264582,-0.16600436340303396,-0.07313044953611955,0.03666030921649735,0.1761113333590768,0.3523063442327006,0.5419794299087929,0.6962184561774724,0.7876832304114254,0.8283984320086334,0.8372895996970837,0.8146210118962193,0.7367574830028187,0.5608976365428637,0.27456076479932795,-0.032411656290419914,-0.2632272695440769,-0.4162027154653342,-0.5240792749185001,-0.6059909007966329,-0.6642083215887464,-0.7001816742866731,-0.7167916772480577,-0.7179619199891758,-0.7024559700998068,-0.6546060624758795,-0.5365832259210643,-0.3009291566909584,0.03478276258652739,0.2785375890934074,0.3679715675618057,0.3688489808235769,0.34048592722954435,0.30712102995623747,0.2813608816231355,0.26337424862703857,0.2614142830990932,0.2779993693923337,0.2967826633366241,0.31627323442161986,0.3379760318487396,0.36165128573141436,0.3760266673530359,0.38506112128734826,0.3976721300123507,0.4226802370259043,0.4592662827565565,0.5035019881637507,0.5410111296035423,0.5508419788246723,0.536220925932692,0.5007572529476404,0.4456360687907964,0.36968262179770855,0.2701161399729377,0.15249979233942765,0.03333813241168854,-0.06284062629532933,-0.11344796156432049,-0.11008025261311036,-0.06295187208266788,-0.014308379828960913,0.005708986939765596,-0.0033455413311123906,-0.04751756804735842,-0.16207129614736754,-0.37066116659268394,-0.6149207131773182,-0.777735212238006,-0.8440658620242398,-0.8558198554659688,-0.8281586653863221,-0.7615173368586565,-0.6594955712223487,-0.5135427232263121,-0.20853678995418884,0.38157380393183127,0.6516339935679417,0.724648603800642,0.7693485364073543,0.8116027520753765,0.8536368199132204,0.8926933734352891,0.9007346732493167,0.7304097414846723,0.3167283269278612,-0.00403773050397839,-0.18679773396006022,-0.30312211911109815,-0.40287216612293747,-0.5376523626331164,-0.7638735917076095,-0.80167578140318,-0.5010727359049761,-0.3413327786897289,-0.28268970083753586,-0.27579374397326517,-0.3025044403584033,-0.3523966132877527,-0.40805635834188986,-0.43269980938975483,-0.3561044448012906,-0.11812352398350824,0.13859057021722418,0.29433047575872173,0.3783178826066747,0.4249685815490678,0.45492525369843206,0.4721760829273967,0.4688498013058455,0.43058698810553064,0.34673424316839135,0.2084327011757667,0.03265252215301227,-0.13929161727156816,-0.264374759484,-0.33282189810327834,-0.36107371171563984,-0.36901928232469006,-0.3709756281015295,-0.36824466094192715,-0.35371477693287834,-0.3032281318339875,-0.13825859491551545,0.3109425479479806,0.31478094576307347,0.23143429916297711,0.16740475659160142,0.14344186018308128,0.18139961480014405,0.2819142352711584,0.38571284056376953,0.4246767662018356,0.39718714610382116,0.3406870352694364,0.2833997609266101,0.24169642124500126,0.22296715688551547,0.22844201627158578,0.25691747671241794,0.3045749640152469,0.36367354150377584,0.4052625510913893,0.3833801937534474,0.24073682325269194,-0.05309829990357672,-0.37235949571846355,-0.5637738370134029,-0.6427739117526097,-0.6640043463643056,-0.6592273224547209,-0.6467278525740768,-0.6304997732425073,-0.6071372603834534,-0.5777170215206126,-0.5526647851900475,-0.5340063284269414,-0.5017978530551689,-0.3668310189741271,-0.03751809073477346,0.22620702901047238,0.36605261390143534,0.4561918865240762,0.5287699461314738,0.5884202067782314,0.6341147414627333,0.6593242516815744,0.6549413076008525,0.6141112588253905,0.5348764733448779,0.41955776468881884,0.27886249694617704,0.14014447401534316,0.028573353477809718,-0.04907133318098616,-0.10036889204421741,-0.12564296635098998,-0.1220466959918045,-0.09649022412647265,-0.06394773661433437,-0.03141849241869117,0.010600132982795277,0.08607413843637247,0.20355853077308914,0.3472391437073866,0.499008657706792,0.6477322403990967,0.7526360034739844,0.7456840901946258,0.6721478024045257,0.6105766660339073,0.5757458055439083,0.5565986299129212,0.5372587557405941,0.49913848172318825,0.41432480796337007,0.25745526174012856,0.0615245249099252,-0.08884510343417887,-0.16694023182007472,-0.20166298026644702,-0.21830507444714,-0.24054150827266121,-0.2817269158423267,-0.3285753285700531,-0.3703460274615202,-0.4191942109733074,-0.4834177565746643,-0.539188276067269,-0.4925753702345508,-0.4255790795147469,-0.4132746378042636,-0.42008965006610477,-0.42491664728214085,-0.4261576077136092,-0.42891968686619486,-0.427463902547553,-0.42262542390027513,-0.417744563238228,-0.42609169097942823,-0.452028538349927,-0.49211660044669403,-0.5190083088106502,-0.509694535208126,-0.48443876286143134,-0.4508681885015707,-0.41015332454065173,-0.39312690400668054,-0.40349452893793747,-0.3988196882882874,-0.35256057540113916,-0.251275132231967,-0.11406353308828866,0.019545441113781068,0.12172141640891901,0.18179014751631833,0.20229989980636334,0.18855452631405653,0.13199247091070573,0.019914674380683894,-0.13795970289206835,-0.2839844146432248,-0.3718691441234813,-0.40616137378666994,-0.41213998953768943,-0.4028368649388243,-0.37177599745028506,-0.3103204230057829,-0.22087756891086494,-0.15056890453679544,-0.1281136332940052,-0.16157758661127608,-0.2366581359743012,-0.31792539482363014,-0.3371448642158582,-0.2877710435122519,-0.20687900373790707,-0.14529227856919721,-0.1208748385021211,-0.13087015998270396,-0.148702643559071,-0.13852549822602805,-0.07486100128651564,0.010646005751893424,0.06081566007692506,0.06273879156133494,0.040653313689610296,0.025698206364027434,0.04237120110677793,0.08801542784814312,0.1544787860371634,0.2357515117298048,0.3396987393454679,0.45314392082383326,0.4797759250990095,0.42134112180974054,0.3538339186924526,0.2922680261631355,0.20284698169856372,0.008187241473327125,-0.21546127816008934,-0.31561190709400405,-0.3625946735224169,-0.3920242225945291,-0.408771487508136,-0.3873899305544214,-0.3005093721419072,-0.1778114173107964,-0.09094700510448192,-0.05116798680116932,-0.04047702217686045,-0.04824515125778734,-0.0653460015795333,-0.07872987291448559,-0.0775139617211255,-0.05080919990694002,0.0069124706343426,0.10447550840267486,0.2617787320480666,0.49117830307556315,0.6447648240007192,0.6537349958570446,0.6050756394740341,0.5437231746013031,0.4923929918634851,0.4572356661740683,0.43377875533161786,0.4123387797149219,0.38726282772943577,0.3567303160739954,0.3153901686652834,0.2666535922133478,0.22946712705658356,0.22245606810546742,0.24188171150606896,0.2760181061289676,0.3112047087478738,0.34178662520800424,0.37281160918170636,0.40786334118860224,0.410759698539596,0.375967574290124,0.3685014705800166,0.38934516734061814,0.4086512571509105,0.40740026751155795,0.37548360681824305,0.31044477351125505,0.20872393070237863,0.05831922292630334,-0.15721304348927617,-0.403623751395967,-0.5717583874506728,-0.639697079156196,-0.6564577026667967,-0.6436496335912222,-0.6022690080874283,-0.5342708532881623,-0.45383259695208306,-0.3835269567680012,-0.3328192316654407,-0.3078563977890616,-0.3211923257757484,-0.37016817203304225,-0.40018310180096506,-0.3500724061685583,-0.23290241885483576,-0.07975603063426094,0.08387060245293924,0.22713029650360667,0.29241475684066653,0.2884942608063159,0.2529846904948514,0.19870143661441134,0.12048673443408717,-0.00011775444753456917,-0.17324080735047978,-0.36093587772549923,-0.4849111346588429,-0.549038653258468,-0.5948748914973452,-0.6325259711973771,-0.6339488138540397,-0.5750809419611554,-0.4874279988586529,-0.40591685169693,-0.3350079579975938,-0.2651236338765503,-0.20966790745433259,-0.18240117413805892,-0.17470823071486358,-0.1633970983384828,-0.1409597958557755,-0.09595589850452649,-0.01294342145812489,0.09986861964445261,0.20751285912456832,0.28986294568732396,0.3496600560812605,0.384524799994668,0.3910332112332013,0.37105502417031333,0.33205916246825806,0.2946530516074339,0.28817938276629806,0.3229766327546662,0.374728406179055,0.4056142473000341,0.3864660361307934,0.29887769940029213,0.13301673319932925,-0.08695167089801427,-0.29620632501747785,-0.44797916986965064,-0.5326776264624927,-0.54922309898457,-0.5012211119363827,-0.392034867947864,-0.21228592909827818,0.017003797647908932,0.24140046057377465,0.4190194690146462,0.5131179153589924,0.5011920774188036,0.40013190492849177,0.21997606805303566,0.024596056589354005,-0.09669126899207578,-0.12177756350992688,-0.07932906461502882,0.0013390891322144682,0.08008645616158024,0.1300547106828348,0.10409756192948842,0.018256219727118682,-0.07027422556138667,-0.15292771770202074,-0.2326169587725754,-0.2949046525121144,-0.31631886394099246,-0.28748271047931473,-0.2064333723640105,-0.07627213079757687,0.10001434126671734,0.3086189033386734,0.49849331979623496,0.59483530293332,0.604620435082035,0.5681430844288498,0.4928345174452385,0.38884904740670795,0.2869918950737941,0.2235374500501259,0.20767362429906505,0.23258549461163194,0.2877770620355042,0.3693763756903842,0.4836825394149024,0.5551033434227649,0.39365049480547065,0.19476160845840348,0.058086907710536505,-0.034402636182928166,-0.10059991002590014,-0.15416855171835958,-0.2124276574909621,-0.2477597856640439,-0.27159856136342203,-0.291032338324991,-0.29527583310004746,-0.2681525184475384,-0.1943348669588987,-0.05971531405552784,0.13521306118229623,0.34386444282783946,0.4974719074435197,0.5847067297987382,0.6255929287044186,0.635715419774677,0.6213758324489208,0.586090171728067,0.5274490379226208,0.3982766084248892,0.0472340616051717,-0.4567954194861211,-0.7270289111576947,-0.8202212371201334,-0.8479438236469341,-0.8491328510197761,-0.8296424418469588,-0.7912695392659606,-0.7636134931951926,-0.7626909727352656,-0.763737364433137,-0.740617682806074,-0.665720292435081,-0.46101351523932227,0.01333366588174498,0.3348552544013996,0.3936839907335676,0.36144869413329017,0.2702556498977131,0.09737581195710447,-0.1781869650391924,-0.43202721318645093,-0.5364898015025054,-0.53312067515028,-0.46904114579595896,-0.36300585208123415,-0.23270690786853218,-0.08542344779054917,0.08241632815005344,0.2893420874925469,0.5073780164374376,0.6467913481521771,0.6919810187036404,0.6741725118960226,0.6062543790772122,0.5038495844190463,0.3992390320423633,0.3243714450818421,0.2866598051193702,0.27903123616833153,0.2766353509888094,0.23230350825523874,0.05773947458627961,-0.2179953794978933,-0.3960521593049835,-0.471453828579882,-0.5010367763241189,-0.5063014864335306,-0.4944394174863572,-0.461625351996904,-0.4105769687559357,-0.3514045698635401,-0.3097028835025832,-0.32483711679233085,-0.4047792006501151,-0.4742448907151325,-0.47976334817515237,-0.4662412178290687,-0.4562713825703283,-0.4353029497841783,-0.36122114417733747,-0.17292369952824216,0.189778479512785,0.5149220658139725,0.6042312556251292,0.6237814859184121,0.6606156708913836,0.7312838254249802,0.8098755248831799,0.8578365759957006,0.8686877500945903,0.8485486285064332,0.8024798519927955,0.7295650798112958,0.6361206833281227,0.5419797255819825,0.4661355961974499,0.4084065717164183,0.3610392154458873,0.31425594889350583,0.2669602792394722,0.22464063285954297,0.18681054593677096,0.13460696282432674,0.0231849733287517,-0.19660843277403212,-0.46219294973415925,-0.6416062124391404,-0.7099250398948767,-0.6905812773681752,-0.5794428864997323,-0.33505865959902525,0.051221150308552885,0.4033114434268815,0.5729402934054442,0.5910213906939468,0.5170695724214703,0.39564567168446113,0.23457680088674307,0.028281097583290955,-0.21998692115517518,-0.45885866728051705,-0.6165024886744728,-0.7191968016182534,-0.8053613940030458,-0.8554493582841839,-0.8502582735900128,-0.8093750344541697,-0.7561886244405794,-0.7075486651003,-0.6660610129446118,-0.6203164854750005,-0.5506019573755443,-0.43858152292415187,-0.2906329262570494,-0.1414828031314963,-0.02332663359911125,0.0628538331861295,0.12830187699663675,0.18026052960121514,0.22535484825824276,0.27598875071659856,0.3408823280831538,0.42002352326625214,0.48924122333498316,0.5181448027852307,0.5172649842021697,0.49704550144685355,0.46590441835021695,0.43276763493312115,0.415146008003789,0.4058729292602158,0.32234337765196086,0.19560368054689517,0.13488394031756246,0.1338199344188577,0.17831185650800532,0.2468409224985636,0.3132379520128682,0.3727727485597268,0.4273825152365898,0.48044565103690107,0.5326927799352,0.5864958010032694,0.6313620162341662,0.644095132380254,0.6007982658739657,0.4967252020162821,0.3668621298986199,0.2525924464144762,0.16568271363085882,0.10164917600498588,0.05795023157606105,0.030572777962020414,0.011333834309505755,-0.010654416994879385,-0.04670444887891334,-0.10066463678290515,-0.1577941236922937,-0.21992397102811967,-0.2944855157640665,-0.3838454566686309,-0.4769598858916992,-0.5571412966065535,-0.6096430065990979,-0.6075315941204811,-0.5095878594001927,-0.29845504031309794,-0.05517549668373969,0.13492766956082602,0.2760181780924391,0.3984431587913778,0.5090926596949081,0.5885137406795173,0.6230236948923602,0.6130023058692079,0.5584615357333332,0.4467432383542446,0.26676257542490117,0.031516113731102344,-0.15740471485632193,-0.23090852166460824,-0.2416455123983418,-0.23649839031309597,-0.23864556018083824,-0.25804884104598225,-0.29904708643644645,-0.3792664850919817,-0.5640691342040836,-0.5892773601682051,-0.2535729017404922,-0.13901387775139806,-0.10609098394747443,-0.11493681675873771,-0.1600386003602451,-0.25335119676272827,-0.3996932609402708,-0.5416288491990892,-0.6005982662582681,-0.5948939921313352,-0.5645548955933828,-0.5228786432550081,-0.47050790358883854,-0.39265910761276884,-0.2649172718717857,-0.11759420190228544,-0.016636276047071782,0.017457976924338068,-0.0030735781967433907,-0.05580551616260625,-0.10061254196695436,-0.11527736974916533,-0.09847299646352188,-0.028763843150521138,0.12011483790246656,0.3152422266382051,0.4089324470114975,0.3579999335345703,0.24317917791633195,0.11103700223008404,0.0001895259423163246,-0.07420712621866118,-0.10907967565649027,-0.10894611509348527,-0.0647013353323497,0.04468422052641291,0.2298542443674673,0.4357167309375944,0.5434699970948512,0.5765509489938351,0.606550148755454,0.6528056914545479,0.7101715434721821,0.7610599123520128,0.7940357121827728,0.8035603186725326,0.7767747980302666,0.6537276860594332,0.2947132492667689,-0.1675932906056439,-0.4271354395798823,-0.5376313912995275,-0.5762633341539584,-0.5690061056354498,-0.5104181073038958,-0.38870776785285227,-0.17876038453948867,0.06908835829588232,0.2580670902006526,0.3381160174922239,0.28776110514611347,0.06165771097046398,-0.3048288768561016,-0.5356640279222626,-0.5543930975754722,-0.44524094364950834,-0.291872457316918,-0.17237907899327756,-0.12396288680277034,-0.12091799440531796,-0.0996328391305287,-0.031036826998145587,0.04266453486031667,0.08340889883112869,0.08380945904244676,0.05882280681400318,0.02874231865758308,0.01647824664548027,0.05412857353775386,0.1561121744457325,0.29210430899492096,0.4159768828770031,0.5050409123544891,0.57421990050219,0.6315341956255789,0.6762996696049104,0.7057144146388584,0.7207359006608283,0.7181430445002986,0.7007422130316533,0.669887128735093,0.6310664884745074,0.5967415214550998,0.5780927782718999,0.5794202739582757,0.5991012840019156,0.6256595279833056,0.6538888732537601,0.6572646724826793,0.6188254564837335,0.5502784164985827,0.47694659245652055,0.4211712350340641,0.3833523566238989,0.3429201174828253,0.23049566483725528,-0.06448933655858154,-0.4685416589461364,-0.6912311300899288,-0.765702234694954,-0.7799379709490921,-0.7687241380582828,-0.7474974817098125,-0.7169307596650818,-0.6666513705591912,-0.5811337940348478,-0.45099555922037726,-0.3002849745154759,-0.1681920200694508,-0.072034276783529,-0.005343965178845236,0.03965393277100919,0.0629382443572237,0.06020943176941594,0.030977808957499013,-0.022663665879212754,-0.10734544376726335,-0.2261200806776198,-0.3604113406805933,-0.49516339948954063,-0.6216470234766021,-0.7315785979564248,-0.808541599028764,-0.855642442459743,-0.891246220542129,-0.9171583046975662,-0.9257936052621405,-0.9043495849602403,-0.8040298934496469,-0.5581109473350502,-0.24397994857481964,-0.008809070063812341,0.13494703254069113,0.19889856634063371,0.19198599342275033,0.14168752603613746,0.08017254398169305,0.03331606965784437,0.029226913831960178,0.09652883881870866,0.2666800271271663,0.5295307389904307,0.7375118895080066,0.8079344239301194,0.8145427455676516,0.7917805145498676,0.7156957258035974,0.5413531941672467,0.277236191398294,0.008565981994213517,-0.1779492746136111,-0.26724986328687594,-0.2814268508793697,-0.23094124046168424,-0.1153793505025307,0.0674955560069795,0.27712723422021857,0.45226364531331453,0.5593698450670636,0.6019900887219252,0.5732702665294446,0.38215246756927607,0.005459156529082831,-0.1969124909471807,-0.24204282428450788,-0.21098161357663894,-0.14191454573409382,-0.04996324863432773,0.0533545357968617,0.1511849154933143,0.2199109637940866,0.26270598817228286,0.29418682869009355,0.31616432361362534,0.3244718564742204,0.3267561270126469,0.351131902039234,0.4474568913350178,0.5650297073114242,0.6116798648180168,0.5672609277085656,0.45698913463226887,0.3253062084560301,0.20869964004166563,0.13508347559676154,0.1336445849839489,0.23227110732329312,0.40215389062677687,0.5815970207162395,0.6692499543258302,0.34856128898452543,-0.045175027011346784,-0.2128443219314728,-0.276156293117462,-0.2887674395905808,-0.28435029410268614,-0.2985736230244312,-0.33345103702993095,-0.36819854220039655,-0.37330776873767657,-0.34157564390780926,-0.2904102786068859,-0.23544766451057983,-0.16744695574372787,-0.07300051263183098,0.036498798376146814,0.1434622917591917,0.253014908251535,0.3731313553920879,0.502775750165096,0.6203059841017136,0.7062116862721936,0.7492895583110888,0.7466479548930711,0.6841223048466437,0.5421286166115387,0.3078657508796016,0.029776996126581908,-0.18046218519875512,-0.2941597027850828,-0.34448621045640787,-0.36892378936933157,-0.40622513155776113,-0.48297061381537176,-0.5918407213643189,-0.6893315882274011,-0.7264900079532057,-0.6765732187023248,-0.5528816873853215,-0.3805883457519547,-0.1831209831519071,0.011929841947637583,0.17785701562877448,0.29120252233871324,0.32921248116694946,0.2750074170760496,0.13782216310507706,-0.04851632808103424,-0.22224158747896666,-0.3241829861321239,-0.3296006156613287,-0.2337727138873655,-0.06274709918270625,0.11483432343502278,0.24339618667611607,0.31392853203347465,0.3461306127889971,0.3680927553072943,0.4093231154809853,0.39277663128211926,0.2516885995892207,0.1736377687648087,0.11897474498341436,0.0385475922242621,-0.10197840326512214,-0.30747089808180544,-0.5164676863613853,-0.6484113503154,-0.6828137003235768,-0.624483551777362,-0.4608401688934627,-0.1943827220840282,0.07813258811643296,0.25358901309418364,0.3378887737844762,0.37832384480742665,0.4152085763215355,0.4659395290186407,0.5214340819547661,0.5597175197308906,0.5622023491441432,0.5151820395284827,0.40154001838771836,0.2293184932198816,0.07700245810659914,-0.0033544143360270695,-0.015506815500733708,0.011532085173746208,0.052730163020761986,0.07809745416803954,0.07166769959370692,0.02517016685171432,-0.06475453212156261,-0.1869636577440517,-0.22610320294225839,-0.07411492792096848,0.08798801939416737,0.2054665387438494,0.28522809138283584,0.3328708316913602,0.3446835391552238,0.30520670688829615,0.2137814805000763,0.13072944300131945,0.1246960523518662,0.21628310782002616,0.3567813663093484,0.46959588409389846,0.5360908456864416,0.5532146187397798,0.5175498374392543,0.43115039528633425,0.3361544059651274,0.26406059174736596,0.2170928881508605,0.17670911022187616,0.13020495000606264,0.07519703905146657,0.0068563013475109675,-0.07779341726305591,-0.1728802185842351,-0.2638808792792818,-0.32813000391553754,-0.34880122071960434,-0.3214200098572912,-0.2561452506413299,-0.16960705039934285,-0.08126149300370011,-0.002753444962072085,0.037500122985492344,-0.011259377470333455,-0.05307044270436388,-0.07655113057685914,-0.08944148793826434,-0.09706710495609264,-0.10189910306183986,-0.10530264681856448,-0.09359784546204593,-0.09324663178050814,-0.10287619557617818,-0.12552000937991797,-0.18877528959895695,-0.320238965658887,-0.48942460654931536,-0.5879672134944125,-0.5978605090219492,-0.5879399091935407,-0.5867500501238105,-0.5798941150618883,-0.5360410961979872,-0.4707232841503094,-0.43575598105746094,-0.42724089410067845,-0.39646979651063496,-0.24672464608341635,0.03164213147624169,0.34890411113451025,0.570338366112904,0.6776103284976914,0.7290489265135047,0.7575012158899916,0.7688637972483108,0.7634737790134867,0.7223266071446521,0.6005653466024597,0.43326698281465603,0.34493502964166134,0.35901238503561234,0.4350532789480422,0.5110428673511684,0.541339907281767,0.5081472589688737,0.41008627080994436,0.24073199799542852,0.017856245090923945,-0.18292267876710294,-0.31104415056859136,-0.3738628761514597,-0.38218130849601606,-0.3166327482749049,-0.12629901222370357,0.19851217341894276,0.44110280730975604,0.5065348591249111,0.4483707440147655,0.24802912841825617,-0.13232451652458566,-0.4464684019501463,-0.5127813179015569,-0.4687693823302156,-0.4078695139566626,-0.35831505747853404,-0.31452946330920456,-0.2668949928454564,-0.19746290761421606,-0.09101400963360376,0.0099578086402655,0.05696076504141269,0.038277871569361424,-0.047449843886605156,-0.17735010106661497,-0.29908599641335454,-0.37346865163991283,-0.3999556900624975,-0.3882502226590302,-0.34427068773665287,-0.2637704386375237,-0.13605093334308974,0.028861315942635808,0.17440118242898253,0.26416754785979923,0.3329046304365966,0.4333337778067767,0.5719365883514428,0.6950678494931082,0.7643765058312646,0.784428942609675,0.7726223664020749,0.7189266707070526,0.4164070372437532,-0.3296751141054123,-0.5498346825115545,-0.5942630536472658,-0.5935052593161967,-0.5651043161177848,-0.503837688202,-0.36980016744455196,0.09260960154945626,0.8598753979324956,0.8434086066132411,0.7944897213016614,0.7551788938438778,0.7107953253028663,0.6516252942144872,0.5693851230702058,0.44530580913711443,0.25756280121508035,0.006420791693296804,-0.24336994791836208,-0.42950856772829965,-0.5507633956640375,-0.637868407119387,-0.6987942460456472,-0.7351728339984795,-0.7521672103922286,-0.7604187279192356,-0.7677418853297524,-0.775138637613444,-0.7613814474802877,-0.6404352736178917,-0.32461415486793654,-0.00017206795920790338,0.2159590924937606,0.34794409160426865,0.42764861179279284,0.47968544521340734,0.5171410326995706,0.54586637829049,0.5648928830088469,0.5578423071894347,0.4670005544905387,0.22027990035581915,-0.023865963236392118,-0.15792990193726053,-0.22063728934556556,-0.2396616278260026,-0.22517570094116815,-0.17577453637287746,-0.08832755617506012,0.03507179095566263,0.17279472541659266,0.2935129057494352,0.37915403952580234,0.4216371269128905,0.4208293822718924,0.3684462655171374,0.2462744719563527,0.08814561512390608,-0.009085444335442446,-0.018289312794749563,0.028388892222857245,0.10846310299200099,0.2060546450241105,0.30790032549251484,0.39774100176871086,0.4410857906933118,0.4096128817767002,0.31163156160106725,0.183950507233809,0.03732906666160746,-0.15790331963587975,-0.40065400399414897,-0.6101895507687268,-0.7242787661557668,-0.7683416786706032,-0.7773181704523885,-0.7680927083190892,-0.742426438966304,-0.6647163136559343,-0.2556174137648515,0.7198063203871552,0.9156750760762613,0.9485007242509532,0.9368243496519372,0.9021399661162474,0.8826259645790472,0.8896013260879868,0.9026775934269774,0.9018263437697905,0.8824068251694668,0.8514059132950279,0.8181984810947017,0.7882926799323299,0.7465269359163879,0.4713642200621798,-0.2843437780564792,-0.5309078180039635,-0.5987474270750591,-0.619595811822459,-0.6148930536005572,-0.5728270641214853,-0.40452145642184445,0.03185506019924627,0.3715953885546296,0.41568734257045653,0.3427294750559878,0.2508587727480363,0.1694604027305266,0.10462753769044207,0.06021232391426831,0.05084817194174302,0.10721501062216075,0.10732618308262476,0.10109885923662851,0.09228570681008809,0.07244966370416002,0.038264847588874426,-0.01687955519971149,-0.09799652619428612,-0.19791446111345581,-0.2932045328077296,-0.3790937146684371,-0.4659748346961403,-0.5641399413879581,-0.6754161993999928,-0.7854258625922996,-0.8584817796101061,-0.8853088020898949,-0.8792102068732961,-0.8535955754442646,-0.8176705725410445,-0.7808928323252525,-0.7444751117744166,-0.6972665772156144,-0.6290225605295136,-0.5642650295145165,-0.5317289493914557,-0.5332801653495897,-0.5610867036409262,-0.6025842590081691,-0.6381465672354744,-0.556834305000309,-0.1957996308130004,0.06613937615997348,0.1422232417600773,0.10875348130887309,0.041606027922771065,0.011984515127005255,0.03721011834017223,0.08522452354955588,0.11898815421518123,0.1132182567492625,0.07411705561473303,0.013529864313371475,-0.04393319703382971,-0.08107368097487802,-0.08771646163183465,-0.05764043482038294,0.0142649661927329,0.11061604556535735,0.1997669066833737,0.2507932861657983,0.24502747996986093,0.1753189276220165,0.01264222920184959,-0.13843990696634953,-0.20319795697631562,-0.2341147344310996,-0.2508594928921418,-0.25561910259540005,-0.24468803736737438,-0.19828723081937627,-0.06774100752531356,0.21265839344207463,0.561880328378231,0.7372414945398199,0.7498446754033814,0.6708927455874396,0.5530765196236453,0.4386215388812321,0.34429409208471246,0.26776034992933945,0.20226633446812922,0.14004202784857855,0.08304382629440393,0.03739491510249973,0.008636281371733577,0.0039379573099779155,0.023958825293721526,0.05500332752805834,0.08113632940770861,0.09550453741238271,0.10254973551559125,0.10669862879820882,0.10119073435108414,0.06031511734035232,-0.04963863731601838,-0.2530009439083902,-0.44750141239896774,-0.48285099549589694,-0.31120249518946996,-0.005395117871022287,0.2713511538861363,0.44240518341552915,0.5432837972621112,0.6108510565347391,0.6639217619062104,0.6981684481909066,0.7001719603725092,0.6761421197540455,0.6473617441258716,0.6221515750215926,0.6090797503753349,0.6067955687513663,0.6114480859039229,0.6124166190224223,0.5812211148247245,0.4646518687853622,0.20924664292901643,-0.1146573527473784,-0.3464615448962192,-0.487883646415778,-0.594308803315148,-0.6727032028154649,-0.7141549167286764,-0.7231704753166494,-0.7074709547473245,-0.6710446662797743,-0.609023980890992,-0.5055351034617466,-0.3532716267703879,-0.1968184363183011,-0.0867471272863266,-0.02329670159122532,0.01724637474089096,0.058242346792754925,0.1191153646060078,0.2013435411024686,0.23180602049880464,0.11929466001061054,-0.058851147663838664,-0.18775584626907862,-0.2557408728330871,-0.28212441593160764,-0.2702810565632031,-0.17410844469332998,0.10410400955030141,0.4306042963093066,0.6077929295935734,0.7067080896636607,0.7730291238816989,0.8147355973080579,0.8343978117573665,0.8301833722325461,0.7910171447154112,0.6848599614981602,0.4552062339754722,0.0353296042123142,-0.4778618192313863,-0.8009754508814297,-0.9193235360030437,-0.9438318625595571,-0.9309224457221887,-0.8977232300070711,-0.8415167685773115,-0.7520726764844599,-0.6270454344249494,-0.491369875992791,-0.37294410269544453,-0.2704672116068644,-0.16339233688212068,-0.038043182140178634,0.08753083567813673,0.1940790377169065,0.272614022452359,0.3179966219660666,0.33701307404451053,0.338999527047485,0.3232052811609934,0.30124704880426767,0.29412707066921023,0.31367113028723254,0.3831674822577917,0.4753468349233239,0.5405738061198017,0.5631809373009313,0.547297286890017,0.4854522380406685,0.37582545682703,0.23451707927630483,0.07316782078691542,-0.11289550808595349,-0.3352205983100278,-0.583872825822662,-0.7932556126513332,-0.6891131717539949,-0.479396961612204,-0.3499661857123485,-0.27540528172338824,-0.21222276483006525,-0.13182458991342555,-0.06475663170456508,-0.04236194257160414,-0.061454646669148766,-0.10592262059961631,-0.15018918846921014,-0.16184790336096377,-0.12549844080278544,-0.049124282819821535,0.03565849244970403,0.09141268895861372,0.10244021278224795,0.0940764680337993,0.09163885870306743,0.09762581622817493,0.10497566678631155,0.10710664212138953,0.1008911411231177,0.08943259966321362,0.08795931912538027,0.12381250727594172,0.20029565489249865,0.27791512253142087,0.3221844178945116,0.3312719747461254,0.31537818000363266,0.28012801555518707,0.22702892955267762,0.15359963545002853,0.06470932877595396,-0.03078202942228498,-0.13442714740013742,-0.2493201877213902,-0.35099610968956796,-0.3799863550588638,-0.3464601429448777,-0.284230831978883,-0.20998551651728165,-0.12963945134127497,-0.07375588422441459,-0.10042055682808601,-0.21309190282694773,-0.3230201857972125,-0.3795458677734639,-0.3962963458234265,-0.3836376622348003,-0.3352533634870133,-0.23141481054840032,-0.07346140520956639,0.09447586783905779,0.2112104528589644,0.2614654566537078,0.27857473145343886,0.31069304341814963,0.40541603756829403,0.5570027619108814,0.5716002663324551,0.4772401038210208,0.40397810999139694,0.3590113014643718,0.3316095583554723,0.3126389763312959,0.2929542865806963,0.27399873760852334,0.2624137155294647,0.2644217364307544,0.2788321208606186,0.2887009798184557,0.2553409610671287,0.10212749948716075,-0.22181980110911237,-0.563259280614716,-0.7614016395126172,-0.798802008767854,-0.7235253100052147,-0.6249331201324485,-0.5395632413950731,-0.44251077518391724,-0.315464174494114,-0.15169384447324658,0.03634350801733604,0.1878003920673062,0.25577595956299454,0.22993132971740823,0.11066019026925424,-0.07209563375997227,-0.246965436896703,-0.3690947582940324,-0.4376086216252706,-0.468793019904574,-0.47213820915121146,-0.44436754848186283,-0.3777274654846868,-0.26692679467425023,-0.1384005612460609,-0.04620117885199843,-0.004984358489766702,0.007986680508782375,0.008570748751279547,-0.00020541434724683218,-0.0016963009585921945,0.043201445426534694,0.15874473967195418,0.2996844783403647,0.35460924067581073,0.2731886130192531,0.20927292591037397,0.18123770815206747,0.1840096730803457,0.2204682932643949,0.2927545638084245,0.3910534333924715,0.49528351484254723,0.5744518187313836,0.6086017726258294,0.6061713953095319,0.5850722373354881,0.5449467183169281,0.4674108333417128,0.32898493256704464,0.16109854496686396,0.01886528724753487,-0.11271586316835483,-0.29314613238054893,-0.516471027720147,-0.6767830577581379,-0.7323622708051324,-0.7317497188295637,-0.7012022541907433,-0.6356073035742669,-0.5383259438102813,-0.43876964686175074,-0.3606338886734788,-0.30170127506568145,-0.2710377534803117,-0.27671317934421646,-0.31427344895465437,-0.38684888152463776,-0.48378280538486657,-0.5836870112759711,-0.669378224264965,-0.738596300171085,-0.7793060578745669,-0.5751616043627594,0.08401531361512904,0.3917331548310221,0.496892835265606,0.5306131559544384,0.522775438309056,0.4741203288078027,0.3698535074029901,0.19991383273754498,-0.0013570061534884548,-0.15435322485262815,-0.24384438558936178,-0.29894038749101465,-0.33483076661801087,-0.3529788933652664,-0.34610979285567467,-0.32930072456641124,-0.3141836708356379,-0.3084440199744622,-0.3095843087948589,-0.31536447943244333,-0.3166893528974005,-0.30093820413100075,-0.19755928862905098,0.0070316853458781085,0.17874029878008943,0.2928786923945846,0.350401162943431,0.34668191637616125,0.3119712252718211,0.2890361141395989,0.30251974770089124,0.35488474876751414,0.44707440010419525,0.5662417608097213,0.6577536889566593,0.6930419332780546,0.6859801308981643,0.6608049068719533,0.6248950621783175,0.5694106331993878,0.47184135305969904,0.3075475888849257,0.13704180256778192,0.043572484387547857,0.015907870462619406,0.025706891766451297,0.055859500089915574,0.10631141914656199,0.19786689371390992,0.3743617777121632,0.39986118647455704,0.2603058664287476,0.1965701071103423,0.18335175511237523,0.21070903072071995,0.2804133519716892,0.3908226017960071,0.49597469941355876,0.5215442520762279,0.47834761417697114,0.41543895919762946,0.32421867336596827,0.17340791335728245,-0.02894015827038158,-0.2542075182861656,-0.46600823452750495,-0.6424981360864602,-0.7586387822528353,-0.7919514296003559,-0.7742597596075304,-0.7427919133403594,-0.7025337621093579,-0.6410802427623873,-0.5107186135123144,-0.09336694230072846,0.6484874571046058,0.8458493442429709,0.8654117307047564,0.8509189040381736,0.819675373157733,0.7842588627858639,0.7491508674414276,0.7029761487299588,0.6272903079879235,0.504443981593638,0.3291007270297783,0.11166897043898316,-0.11568201541334977,-0.31479432993242845,-0.47089747466544374,-0.587952219468859,-0.6700167137767155,-0.7226513213454081,-0.7519026378062994,-0.7503147263902561,-0.7064466701376779,-0.6136628360772617,-0.48932797336189265,-0.3958077709490667,-0.38974323820635337,-0.4716022929501659,-0.6050555349712916,-0.7323525250871994,-0.7999404147507875,-0.8060716473820972,-0.782270734038735,-0.7503342144464711,-0.7182988382804716,-0.6810224316858814,-0.630332679435167,-0.5334613248563402,-0.2860381572692704,0.1286969479403749,0.4681776648158176,0.648199405727446,0.735005372773855,0.769878073775469,0.7720216980602286,0.7559651087988994,0.730463586499692,0.6841024280152506,0.6007067391171056,0.4795446761247042,0.3298895270890107,0.20457934295928248,0.19534770049783332,0.28093876076568813,0.3753890600983888,0.4464160605619516,0.4936160829377272,0.5153218724915443,0.5019164724863916,0.45966700822297535,0.4059548880587598,0.34938145146514266,0.28263789286044594,0.17569035202853386,0.0053528778382811925,-0.1292058593940661,-0.1328326987648863,-0.04633849767076125,0.08033506572544738,0.19918701445163592,0.26165728221502027,0.23915250968488405,0.11829903351398402,-0.14173385004310207,-0.4652159402861921,-0.5270380527060495,-0.4476801817345711,-0.3384423268725097,-0.20868657850048533,-0.06448838674985491,0.07665463574022947,0.14983963544688655,0.1279772583659485,0.06500455810454597,0.0042818329487985035,-0.028709470700490757,-0.02652257707944481,0.017332704494988985,0.09696286080877589,0.20017811948226927,0.30488756947743356,0.3920817040274191,0.4415429344712211,0.4275075938284623,0.3644184037689193,0.3069737360869826,0.26680376749914675,0.21530487962162634,0.09494884753649835,-0.17858083143352263,-0.4669380781506694,-0.5557579195182552,-0.5374682623323029,-0.4490370308746176,-0.27531989391629247,-0.05035678655978818,0.07082964683424128,-0.026190987066540314,-0.24241983960173008,-0.40878793959857146,-0.4979670623098569,-0.5329026573704754,-0.5218787048116179,-0.4473017225579546,-0.25615274417307576,0.08644550614274855,0.4265907361411202,0.6175196652075429,0.7032827360917782,0.735720807356457,0.7352511454900833,0.69812193183796,0.6121074206986918,0.4736386218622586,0.303433864400123,0.13348125335560632,-0.024390505735695154,-0.16901793384927183,-0.29200956626800106,-0.40047000670293825,-0.5017202781168616,-0.5980085111251416,-0.6811026145998237,-0.7354721619178952,-0.753006657736962,-0.7364252080505409,-0.6846167908521185,-0.5896631760452264,-0.4582220069864529,-0.31521940167581813,-0.18729027662205658,-0.0754659931799967,0.038110239752007044,0.15857189036160393,0.26704552585409386,0.3440392292375889,0.38535689583279203,0.4036944324868424,0.40697023941809335,0.3981170271820458,0.373455492644971,0.3264343624891343,0.2525654174207853,0.15527654393260767,0.04719356435474965,-0.06341333715993028,-0.18968523421503367,-0.36330108008034917,-0.5566452526945145,-0.6641996002466252,-0.6734467833492257,-0.6055046740036396,-0.44778138519014593,-0.19037996516978084,0.11304385076136918,0.35216747279282495,0.482938476416595,0.5251908297089144,0.5073272807483761,0.45365717533828187,0.3704221617299903,0.2646100236348193,0.16646182746824445,0.10750421518524048,0.08236424806003047,0.07190346904455348,0.06546010702369881,0.057127401397852294,0.04313344867596706,0.026090764607704417,0.00805077396665949,-0.0005537925270745855,0.006380679729077109,0.034977295335588646,0.09235387855398242,0.1631197722730872,0.22260151789015317,0.25073639621288246,0.24930470089679072,0.2341591017469974,0.22022580079556794,0.23284183497422645,0.30859199390732556,0.43936118167985705,0.5610799963672128,0.62207414398,0.5724170053468647,0.2656516291590175,-0.10312843622429925,-0.28704811381340245,-0.3755530991427502,-0.4267417712439517,-0.45683821586385387,-0.47234027762855274,-0.4773713430106342,-0.47469413482506956,-0.46812210961632855,-0.46494306572606736,-0.4660174466301142,-0.4604807282425898,-0.40709945982988194,-0.21096825830024812,0.24697876994776224,0.5746053183339132,0.6267927984782704,0.5635134990979743,0.478380116446607,0.4453903650448717,0.4729829579144684,0.5464988458942195,0.627836906869235,0.6802108490065901,0.6785831523635938,0.6274437349787633,0.5488721612649184,0.47279832818723905,0.4195350075341993,0.39959756863760215,0.3968240415275221,0.39436866613293237,0.38168189555633114,0.35606839130915174,0.3158947048276745,0.26462802263746993,0.2111101920390604,0.1470829569996311,0.0531416979851936,-0.09045576395656257,-0.2566299205634534,-0.39831752780031826,-0.5004924138908705,-0.5874079905970199,-0.6813689506767676,-0.782794257309066,-0.8529263378272645,-0.8579700622314405,-0.813013281601612,-0.7366617427191968,-0.6291373525739618,-0.48410497293585086,-0.3205778985675577,-0.2000084560307465,-0.17201483316734748,-0.23242491248750705,-0.32598281113426775,-0.3820272826037562,-0.38032540149042954,-0.3141033513291995,-0.1646699662359905,0.07180999055223754,0.287869001281814,0.39922301144913613,0.4303473289282144,0.4268796288653704,0.4178572905415324,0.4197158325140095,0.44851555413867567,0.47208424245246083,0.40138786555668604,0.21411490084325274,-0.02725886436378582,-0.21960124741498116,-0.33801572386332496,-0.4073772686386242,-0.44903275238389345,-0.4677647218423921,-0.4678977474947511,-0.4525569819968071,-0.41225827634979,-0.3050555434764806,-0.0907967942550812,0.1883745223196351,0.42058994960422375,0.5597756332140921,0.6366357760291455,0.7033126685463411,0.7500525312911271,0.5979657490521875,0.3701284106130233,0.2527053688199772,0.19351446187368126,0.14819266867011707,0.11083661739461172,0.09354107266908386,0.11339465051304255,0.17814149844281665,0.26155254095331976,0.2667339409536812,0.1655206296961152,0.03755446107976284,-0.07037526079752635,-0.14901639214486012,-0.1770010691933799,-0.13444330150510375,-0.02817110343646597,0.08862786226674613,0.14334529080484712,0.12171265257343314,0.05579265515398234,-0.0027202179231360685,-0.02088866104767541,0.007829458638509394,0.09155491915815657,0.20505781711849586,0.27934258980927335,0.30525813391016604,0.32326444094669704,0.3572196787290448,0.40780525520045124,0.4712346688696929,0.5345407107306467,0.5774958352722899,0.5692060892710984,0.4883951114307756,0.3475134860380803,0.20810926965952248,0.09675715708775864,-0.005223083469556658,-0.10972993065916505,-0.19291595209544174,-0.2335095243644998,-0.25962306742252267,-0.30573515851906,-0.38742870842937266,-0.49067376135436563,-0.5930262367785808,-0.6675250900163553,-0.6830401659620586,-0.5350446555238453,0.04213105905614501,0.5729675807495884,0.748476729666704,0.8073192986998481,0.8262566288271074,0.8172344233165492,0.7171603199422554,0.2662168032887902,-0.20406434469356508,-0.3707999407235769,-0.4199334530252726,-0.41764426184108355,-0.37247518201164587,-0.2693556528905952,-0.09791005733515315,0.08030547471920636,0.1774953054139628,0.18868502401521578,0.13298715444808362,0.028776610259734537,-0.0677137728633935,-0.10637458712306094,-0.08428456069328799,-0.023568171907133277,0.03813290722567548,0.06044540520638304,0.0050928710995372,-0.12747879192637993,-0.27361106800109364,-0.3598982308502838,-0.37038430875972916,-0.29676643782069295,-0.15729220320025236,-0.04063948691124219,0.013401644603102973,0.028206763407246985,0.043400679426356746,0.09406966583248207,0.16806092770447392,0.21774677990304578,0.1892185892318115,0.06310437512577974,-0.09987412692136445,-0.2150548361617834,-0.2661669793849261,-0.25163001663549933,-0.1718382705766681,-0.05455161035089898,0.05488062774801374,0.12848358990235031,0.14585897559398914,0.10824924146545577,0.03812928583997601,-0.029289261208291437,-0.07480785824825538,-0.0937520569156976,-0.09973983447751644,-0.1052888507765023,-0.10899797445796,-0.0878532892490324,-0.004296336946531989,0.13994088656129633,0.28605173977694903,0.4023350894015218,0.5009799319549614,0.5978830758406315,0.6876972365154733,0.7493584311581332,0.7722362494229238,0.776386333621261,0.769981771202613,0.7417890124785439,0.6446656718658524,0.2961049268257916,-0.35725766195851094,-0.6248872973153844,-0.6780291946486717,-0.6811865162167556,-0.6766824988110763,-0.6732775215521928,-0.660996456317747,-0.6208800642910451,-0.5177484142468501,-0.31755526396853573,-0.08168866388160238,0.06353054824270649,0.11367937758312995,0.10292004720262128,0.046547047184513794,-0.04112400839605077,-0.1460432269021045,-0.24840993846502704,-0.33310215711507546,-0.40266046640941,-0.4536211902894626,-0.4805645161842403,-0.4823820334183579,-0.46563212772210105,-0.4449528970690338,-0.43235803719465565,-0.4346531167749083,-0.44637949535710697,-0.42635102357255905,-0.3151090304248838,-0.06499878958563454,0.281730078492671,0.5472667813179728,0.6615896433819043,0.6715774290094352,0.6056280737813257,0.4126739627738017,0.09978732159536682,-0.11900168202210801,-0.18300119100466183,-0.1680394837546862,-0.10867422645003022,-0.028556116044834663,0.05663333032606349,0.12950972615429182,0.18555865150200052,0.2401365052286397,0.3203489389616889,0.45243724727527174,0.6444356442713285,0.8351006390113604,0.8737947094294559,0.7151300216737196,0.5158278048602358,0.37032214901552296,0.27811334639835117,0.21692574981501161,0.1662374429898875,0.10899146470837878,0.03165916162097502,-0.07829013451679624,-0.2156186844383902,-0.31266632450883397,-0.32330918270091447,-0.3150704756233697,-0.33556013540116114,-0.3786305063484344,-0.43418749196611967,-0.4727125480970473,-0.46309904706881977,-0.4308400307360198,-0.3972322337810377,-0.3643481103497268,-0.3329042187987783,-0.29489345727766436,-0.24647885961868082,-0.17426989551059224,-0.0648941281846705,0.06793504776553934,0.15604943863458393,0.16730691433269154,0.1405742434070522,0.10353501344615738,0.06751186507621716,0.014060648932578548,-0.07760911845239522,-0.2091535000237608,-0.344115771411197,-0.37645734901242417,-0.31518948050725626,-0.25704733704054084,-0.2521705356490609,-0.2914542803192377,-0.3445196822960152,-0.3876078633760087,-0.41503728854272626,-0.4309965611246445,-0.434868845635956,-0.42741459106459584,-0.4056299933596748,-0.35604131267359423,-0.26271139652338543,-0.12438038318880165,-0.0014576326800405652,0.05298649145690145,0.044368671459710164,0.0001714618375224844,-0.05832561403901667,-0.12276616509635725,-0.15812850845744023,-0.0893526960536569,0.05767987961101744,0.18826561984769194,0.29313008234063875,0.37787842473013356,0.43953995280520736,0.4780419001379463,0.4963888643041171,0.5047407190298513,0.5134949777412154,0.5381029820588052,0.5672973139816947,0.5731705809975289,0.5599193654519291,0.5506254579024206,0.5505982510408669,0.5601240477927649,0.5677542886908221,0.575194916033891,0.5965554892110949,0.6353995819582039,0.6876031101334706,0.7443384591593813,0.7744006250511182,0.7689351567008974,0.7570204523410666,0.7435194646256421,0.7000983560395654,0.6093642113230147,0.4858423168398008,0.3656366078133605,0.2699948583562065,0.1955138306489158,0.1269833322964122,0.042027224316453914,-0.07047264277873908,-0.23009949821554476,-0.4474338202975282,-0.6589374532490108,-0.7683578997432754,-0.8051934162132244,-0.7979836971807587,-0.7561274633673856,-0.675922200687171,-0.5620000719885331,-0.46379770436588347,-0.4387950134626194,-0.475501336084772,-0.5254469409733266,-0.5538373498715198,-0.5501205615769682,-0.5030956047252324,-0.4079542534054344,-0.29234684998140736,-0.17759944354891496,-0.0628299421965088,0.05030249200720721,0.14271539076463785,0.19564521306700622,0.2143397298822224,0.20717018300081533,0.18067154012377798,0.1553557895541238,0.16615043543578378,0.21869328736050866,0.2967729385751774,0.36110530789168527,0.37463418787588837,0.3101105223114279,0.1796761305032722,0.049561855999750784,-0.013204784159227708,-0.0018274950487535834,0.04937406345340686,0.12105735892913871,0.18422965827148652,0.23020358369900676,0.26733455561982034,0.3190452303873553,0.3735566508804691,0.39825976828388265,0.37123164826168065,0.26774875783305613,0.06189463991168317,-0.18398238190806418,-0.35534156557946434,-0.4257123466285692,-0.4021272971148562,-0.29864581783065536,-0.1245454286188377,0.08276487146811408,0.252748008430549,0.36289263291287677,0.4203704499624488,0.43369226912630066,0.40706130581363087,0.35052519482795874,0.2971581682259874,0.2663801511511088,0.2767576115989026,0.3444743646957918,0.46302820498170627,0.5948885474230335,0.6952094054467521,0.7426426840231276,0.7465445547761599,0.7108309118252205,0.6501045429651957,0.5813653866926107,0.5132868476127798,0.45364243843077934,0.40514921481507504,0.3634611191825986,0.32754068364620914,0.29101917835497765,0.24710094167314636,0.1835750484589821,0.09402328020137223,-0.011778970653155217,-0.09686567181269064,-0.14912166079671807,-0.1889572342185394,-0.24086897688151485,-0.3141379143728458,-0.40775525245182187,-0.5170827815935576,-0.6356175542775653,-0.7458261473403456,-0.8248103371937626,-0.8561141216514926,-0.8511497505678166,-0.8369440860428196,-0.821621635926986,-0.8092071951193928,-0.7911904384476149,-0.7436540851300202,-0.6182991881248328,-0.3820930092355018,-0.13889878709831574,0.0066089917453298445,0.09074955192374683,0.1358115035880342,0.1371605977055767,0.08769730634336532,-0.004095548255459235,-0.14585052085989073,-0.3191992040452337,-0.4292492593140208,-0.4215803160440745,-0.3647855864906463,-0.31944036648197277,-0.3017519189689557,-0.3090284082988628,-0.3091292317269314,-0.25575419680059835,-0.14599660640269355,0.00757443710089522,0.1880992156088461,0.3790128357631298,0.5642425287793108,0.7148509793111757,0.7955897987331564,0.7970590561589036,0.7474698495176383,0.6741589948412527,0.590227515306566,0.4933126323932448,0.37812484491805454,0.24318588491473572,0.11705600648532978,0.05131505317139092,0.042182910332778295,0.05278284866225443,0.057555605514362444,0.0667842738421129,0.09923219546719268,0.17560722274210044,0.2691049069369433,0.3805128260724523,0.49368042077410984,0.5819891389449965,0.6260220003562855,0.6349252050938426,0.6207430711710636,0.6001562748189566,0.5818447702332833,0.5646682739890891,0.5530666135483335,0.5501119246062004,0.5497561795117302,0.5174474481467052,0.4250813700774808,0.29473113519911787,0.18888095800377994,0.130243086006756,0.09846369505082489,0.08567392019302739,0.0793379886828029,0.05003277357144898,-0.022699102315915102,-0.12102756274514555,-0.2228452561531261,-0.28239871144660195,-0.2487548811234319,-0.13511303102360764,-0.011197343009862507,0.08802278361885063,0.15791279264396607,0.2043328062761389,0.23869417924785843,0.238414480331939,0.17991490757003167,0.05357899712163682,-0.08754361712945222,-0.1893742845932027,-0.24733839508272132,-0.28572951263106583,-0.29870252426917515,-0.23870450639113766,-0.10318355668593238,0.054115714022076,0.1988480090563265,0.3211021842337372,0.4041734034196653,0.3562495090519821,0.11956712368871106,-0.061922078426642664,-0.11630016553806856,-0.10613392870643615,-0.09038752695438176,-0.12226357028524658,-0.21634159976332298,-0.3256603630147842,-0.3977097135993225,-0.422531230067325,-0.39927004920449743,-0.340915895011325,-0.26339913476189997,-0.17885454684314875,-0.0874267661038597,0.02472707110196242,0.17132455303120542,0.3196754586475197,0.3727168526663425,0.26469485187581504,0.05924613728234035,-0.15551157553622827,-0.3502962172153546,-0.5149700957227633,-0.6329176448221328,-0.6897117015140194,-0.6982333836245024,-0.6837371186139052,-0.6616391722006008,-0.6385666653090902,-0.6119765263706882,-0.579807582599669,-0.5354158505353478,-0.45311362016721835,-0.2655865913442601,0.07929536838669184,0.44836562203249386,0.6572812132221579,0.7275541381879173,0.7063149684012455,0.6089632967033171,0.45216662860490364,0.25017297782677145,0.0018763197682510687,-0.17998630982174307,-0.16909898896911735,-0.06516975496375411,0.05201617224834347,0.14805936584527699,0.1940258393614485,0.17254027302633101,0.09336234823815108,-0.024303054639382142,-0.17240304595082462,-0.33125399702195657,-0.433037434268844,-0.4176875297551581,-0.3197503258509216,-0.1820594935539151,-0.02454129686674505,0.13409704165154135,0.2871485382247744,0.42433835858884394,0.5322203226940871,0.5851130589051151,0.572510024152824,0.5113170701675933,0.4536253643898831,0.42767169253900145,0.4109698934420298,0.35971812820445204,0.2618120640016303,0.15161314593637348,0.0632054289367867,0.0014203201029543504,-0.028918830072099243,-0.027202337891434853,0.01167689569772572,0.0891474933698138,0.11167505827753184,0.0006258332547982013,-0.079067096047157,-0.1129436710283202,-0.10581877319959251,-0.0536273341725178,0.023988578532810285,0.10289608787128364,0.164845079813887,0.2068399252069032,0.22796877020931555,0.23187259493045667,0.23521526983134855,0.23465970802789318,0.21925829754475948,0.18619727182931983,0.12001587100800536,0.017468977775759155,-0.10368053310322004,-0.19245159001374595,-0.22302501020580442,-0.21400809158248835,-0.17160302107310185,-0.09334557009096166,0.006603844913789781,0.08957233305364325,0.13691465667444835,0.16825103564235674,0.2228052927920272,0.295925985807383,0.3571427404944889,0.39606078599805916,0.4166190707691678,0.4119993722904538,0.37143430659285664,0.2868316079642858,0.17836495232727825,0.07805121668275765,-0.007422611559876657,-0.09642392387739589,-0.21948031144173027,-0.35165952558378594,-0.38593683153737496,-0.3531771650943808,-0.3121783995036015,-0.2741389848031426,-0.24174448934981582,-0.23717756363027268,-0.2527135220490542,-0.2693318213858424,-0.2662245871541264,-0.23156019587785515,-0.1622636572751163,-0.08044646111365357,-0.007147536664616658,0.058068689987834925,0.09615671264425987,0.10623515839036138,0.0870284389202654,0.07821460602275199,0.1413539776317384,0.2858609433995111,0.4622361568415117,0.600414293538728,0.6813343907821052,0.7183605694409586,0.7409871022863246,0.7708144233461144,0.8037097480009525,0.8282872821637195,0.8446823238783303,0.8385613836255028,0.5766315864480376,-0.020027980658498486,-0.35979128921766784,-0.5241546225648841,-0.5998992737258836,-0.6194320330657335,-0.601343014276144,-0.5590900508846689,-0.49592970482844717,-0.4195220123702965,-0.35449458564538455,-0.31198511686866603,-0.2709096740697153,-0.22202418052096062,-0.1774898733658142,-0.1271265235420915,-0.07582437868780498,-0.03243988286865266,-0.002783882521624457,0.022725069860457008,0.0372792479823897,0.01386497136971921,-0.07390381081248507,-0.22406760097996464,-0.376984910668164,-0.49125106494418747,-0.572802391617486,-0.6351524026071603,-0.6837513552737405,-0.7184332570574782,-0.7029754270438406,-0.4305463912585196,0.12794075094314256,0.33962903067914485,0.32657931496097137,0.22483546271796162,0.12430854412354106,0.06955889356054636,0.029669851093252684,-0.060645128361358325,-0.22059039415426004,-0.3351178260026052,-0.3710175430765943,-0.35232316264026353,-0.2933762073189951,-0.21461560451411715,-0.06285904932125626,0.0318303027319816,0.0068355986189030426,-0.01666649156507406,-0.03273326266145168,-0.04961236297536353,-0.08043337482697958,-0.14937505346245397,-0.3050749160885497,-0.42758301013942474,-0.26508958273054617,-0.13820731677650241,-0.051236888023098594,0.015004041584417893,0.07546300600435984,0.1480486441807575,0.24890597320607027,0.367455120200441,0.43230914853076724,0.45335452332647497,0.4946400070503924,0.5513532389734265,0.6048096557356867,0.643724032633285,0.650739802610725,0.6145108565099563,0.5431685287121729,0.4581446840238435,0.38741533195493927,0.32093638335796565,0.2402955636780771,0.1465282847037565,0.06150128265293554,0.03110725148514124,0.12385108395199261,0.3332554145675564,0.5114905358666093,0.6004518838779219,0.6389770527575447,0.6592986819876897,0.6658926410782494,0.6555639918064203,0.627612996550843,0.5856691069117381,0.5426317400576579,0.5151947236836318,0.503172160021388,0.49524986660715514,0.4747299841717747,0.4286924209705227,0.3506470868309989,0.24693541855980156,0.15103462074296248,0.0960191291707383,0.08516505424232841,0.09762278348185231,0.10848535922014989,0.08914972444926379,0.0351958257020329,0.005005333825850249,0.012223656866866293,0.04729145766337085,0.10182145243526892,0.1761296649090106,0.2786983944193905,0.41644651137479866,0.5663207110661334,0.6631541855609546,0.6431410199089976,0.4236272726859233,0.09143982371096937,-0.13426722633420968,-0.2561293852012973,-0.3320204042099767,-0.3947572759162016,-0.4585500072307669,-0.5254603112311901,-0.5811651264095186,-0.6104045028060315,-0.6222596026818558,-0.6371789361708738,-0.6643777929805313,-0.6844361227851221,-0.6723875463312132,-0.6129780987943031,-0.5281826358628199,-0.4590286338690017,-0.43392708195195745,-0.47265335655967083,-0.5813043140771958,-0.7294766791039929,-0.8036060995254747,-0.7114375156943762,-0.5053078060299735,-0.31796722877552613,-0.18583212587359585,-0.09135250752545968,-0.015969301821536146,0.049634695981470515,0.10235456323192274,0.1236297844227573,0.10563827124484372,0.07028193562197448,0.042729713486765304,0.02378685619846533,0.014118063294117961,0.04402001436981764,0.15161751738148202,0.31782937758140023,0.4245930144484322,0.4963624073134479,0.5655655644732455,0.6351675789510444,0.6645814160289066,0.6134625433815288,0.507048795551631,0.3950462426020305,0.30482195257442796,0.23844363836361318,0.18001664921247376,0.11940963050234596,0.06064893889388844,0.026370836750093517,0.05833802396277982,0.19873006353400405,0.3864686715802613,0.4875328354900355,0.4501844296926335,0.24143418935297556,-0.07032071999912311,-0.3009319091413008,-0.41708540991834436,-0.47706628445202953,-0.49878460152411874,-0.4595303658012279,-0.36370037674495875,-0.25421376210538443,-0.17177431196382126,-0.12720907189877143,-0.12876880099000396,-0.1636217120020775,-0.20382508103870228,-0.2077965221877158,-0.1635072649256567,-0.07403268608500756,0.04195176456992845,0.12288235988615599,0.17480400793405296,0.23094667278566408,0.32557605872436723,0.4455249582851514,0.5485886642883652,0.6112496151541411,0.6331181423845668,0.6212393304959497,0.5945872970436935,0.5668775830807958,0.5298259145678249,0.48453595706565605,0.44011698230682406,0.3725537882842543,0.2287621392569949,0.020736862670908046,-0.16128693582905973,-0.28424940333458987,-0.36056961212887106,-0.4080553114167617,-0.4351384990599205,-0.4479405872202613,-0.45303178249037784,-0.460350238601616,-0.476779888614439,-0.5097591980440269,-0.5506040030169714,-0.32049539506785685,0.06702305233027965,0.2042137155334431,0.27239208692220673,0.33597962917506397,0.41241405941027115,0.4824206114645806,0.4984209328226751,0.461259800376882,0.4080912683152002,0.3537162649682323,0.2921304843496964,0.20677332501737883,0.08510778267895049,-0.0810083463349378,-0.2866706218558556,-0.46918232214045885,-0.5494913747480829,-0.532385157322309,-0.44229565914506763,-0.28950426861212747,-0.08857446852255103,0.11440705266749937,0.23322048449457355,0.24220196967527144,0.19687349726012518,0.15339806884412652,0.14336070040646573,0.1761631451889376,0.24791909720693162,0.35335462385703925,0.4878935036981934,0.6319162230099102,0.7229735755262601,0.7265944697287108,0.6671033763257085,0.5773424294955667,0.4811961738252082,0.3826659951132474,0.27486487035320756,0.14694256255694035,-0.004074514651475976,-0.1657236295393196,-0.30222995384443935,-0.38890853641106626,-0.4270199386551308,-0.42198330230345665,-0.37583007843353383,-0.28788124276544025,-0.16625129289606488,-0.030110334679576557,0.11289341815003291,0.2559335634022075,0.38774116541415254,0.4915516927185903,0.5575905149178719,0.5835190974679684,0.5817214257495327,0.5633720692549467,0.5328797804956147,0.4840588833256961,0.39612991405232084,0.2636559556586594,0.1264138563721907,0.048102881559414654,0.032098509599138174,0.045608787156703,0.0647897612151215,0.05960071303882599,-0.014059536878685145,-0.13087634461552647,-0.14959299984891672,0.010263286397011667,0.24831975747911517,0.37446589873059644,0.40096734588438016,0.36486663133731745,0.2694229557840501,0.09013348954620014,-0.18868738958562598,-0.48944338520817576,-0.6898178380913881,-0.7800686252720855,-0.8013673472724924,-0.7678861975577836,-0.6829038071805221,-0.5763474561897161,-0.49008532308787545,-0.44495184169711327,-0.4368182763303381,-0.4548912159785723,-0.48813758181770356,-0.5263917180097586,-0.5590975024826546,-0.5757092184748803,-0.5047640015314852,-0.08108037112997231,0.3405845836570202,0.5005354868438756,0.5713501192587239,0.6060704854414206,0.6174400847808288,0.6229079804255917,0.6398293612342755,0.6826093872396592,0.7425840455873286,0.7626106738289049,0.6455355276925899,0.38375854527055175,0.10997418174326193,-0.10611486486988246,-0.2773877784889303,-0.41272514616064915,-0.5004048290590551,-0.5364028951281995,-0.5338578782372836,-0.5067795535662349,-0.4611065075236949,-0.3936770263000728,-0.29761969411096995,-0.15977857479224286,0.03577509999036742,0.31744244237246155,0.6632468240015333,0.8477727118170839,0.8506333778818678,0.8214847946290488,0.8036033519954814,0.7919520082878864,0.7597076952352223,0.6621262624181877,0.5226091443378916,0.43282525838098135,0.39265136176645815,0.3460488113903595,0.25989505615608993,0.15080222905019375,0.04459424347644362,-0.050682495656902304,-0.139078995241218,-0.22165601416697137,-0.3155900426045831,-0.43005972693788097,-0.5552207688063752,-0.6586965771647871,-0.7286350689677422,-0.7676959548875343,-0.772932785425615,-0.7371422849984381,-0.6296962952132262,-0.41800745777368653,-0.08169403518442186,0.30631476957569287,0.5878492150169309,0.7314358564474773,0.7934349084687458,0.8196559362876923,0.8309211239827087,0.8351708291675146,0.8320988795562627,0.8219763961220343,0.8071070718312893,0.7850324639742687,0.7418001028909158,0.6109349115607087,0.12415028229770171,-0.5542480640360207,-0.764514328314855,-0.8266474110720187,-0.8523278439030303,-0.8631671196728524,-0.85668554126311,-0.7942067945892712,-0.584842602051988,-0.2556306865418816,-0.002814871182504005,0.13316621703435724,0.19138637399773664,0.1994940562390445,0.15811803249872358,0.04466138253323434,-0.16889245450098378,-0.40978438833767783,-0.5335833852600237,-0.5415862718595119,-0.4768954507541749,-0.37692969484025696,-0.27987501222065264,-0.19939937340802205,-0.13619768698699572,-0.08799112785656121,-0.04712167147106476,-0.006082316378408307,0.037613632070679484,0.08766336494834866,0.14726183601083156,0.2286191561887753,0.382321706000992,0.6791920444227445,0.4506255707628392,0.2611957848534859,0.19403697774822498,0.16372090907834633,0.13809011102355312,0.10292831373595113,0.06079875103181644,0.03392909336094831,0.03814296324970121,0.060827320823492605,0.08285661285241973,0.09248461377645745,0.0871511026373897,0.07164791699548657,0.05880106171202609,0.06278399881308727,0.094809638499116,0.16074374273485012,0.25243517147967437,0.35092943353355577,0.4481199113900398,0.5455957388320146,0.6445550870835189,0.7101482046032106,0.6517194807523816,0.3630979514021894,-0.051875703325733866,-0.28393608074761806,-0.37094818437486005,-0.3862558753020799,-0.3432207058607183,-0.20883379968117238,0.09145407686735549,0.2744177265347889,0.23223090234685875,0.12419093433385055,-0.01756903190777106,-0.17417454529706541,-0.3190868712691825,-0.4008257822056814,-0.3671234535899418,-0.21145937600086262,0.008722760519245032,0.19471965693841392,0.29172335220859597,0.3002558482747186,0.22995820857905735,0.08151395228382591,-0.130747952108609,-0.33921582236291714,-0.46836967637536453,-0.507118464311048,-0.47511391239222395,-0.3948056137032919,-0.2974569588072788,-0.23267665201749183,-0.2220034198984644,-0.2617660772570867,-0.31108657520073457,-0.32316680590277497,-0.2989896875396693,-0.25588524292649706,-0.2052710086144655,-0.16077775018050577,-0.1338017840994511,-0.11777148076399495,-0.10365320774345126,-0.09802382040149239,-0.1209192784429551,-0.20292307961498995,-0.3102821540317438,-0.3803081559144802,-0.4248718350167283,-0.44320599969327945,-0.40274787035032694,-0.29128575209006347,-0.143809413946023,0.012138022927612927,0.1826040762243083,0.3777843404856476,0.5664261361117023,0.6770803060934164,0.7008569006092218,0.6820016461819989,0.6681760481352064,0.6713186559552468,0.6594816705011439,0.6122759698976454,0.5108290174104374,0.29969307389827965,-0.06553989889021332,-0.44175954522081495,-0.6572951937469154,-0.7101098006864376,-0.583986674159353,-0.30363244135489753,0.003721726532433188,0.241712218317561,0.39264837188278146,0.4750961745763905,0.5108770397533516,0.5163060893210111,0.5034387258878291,0.47458895918216065,0.42740476859462895,0.35757518928085813,0.26081012318516866,0.14630114120633253,0.04026061482077967,-0.04558268605849421,-0.11911952542079104,-0.18620390881919374,-0.22450627706557022,-0.21000500890564683,-0.15146944517571306,-0.03533773422298406,0.16191148368277458,0.3988240193935193,0.5636018361350723,0.6130024337685536,0.5563217817570553,0.4146698108114576,0.20111760754000133,-0.0634683881109498,-0.31639475486480517,-0.49995079010008225,-0.6199876108351688,-0.7003411921948574,-0.7540538031931066,-0.7882007548616814,-0.8027565785094214,-0.789893732448129,-0.7515753282078321,-0.6922874033088807,-0.6044644808800926,-0.45601407017532003,-0.19091149484467962,0.19929200195884067,0.5178273103765135,0.6722558065488692,0.7381268122646397,0.7682661788084415,0.7757886602411195,0.7475932435281029,0.6356927235955733,0.36560815856471257,-0.01644933852926919,-0.30791819644361407,-0.4666196611472252,-0.5513795329776991,-0.5977470226706277,-0.6080422390639504,-0.5757705440782503,-0.5052004768331241,-0.4156775812464272,-0.32086721982953625,-0.2124869130735183,-0.09251326972182812,0.05757752783613889,0.2265030546378429,0.3607851150559339,0.4267536031812475,0.4497359772395835,0.4404214675291805,0.359135786082923,0.14977602498350276,-0.14940973983892922,-0.3755421033066736,-0.4572529476017235,-0.41596121063319946,-0.265056695295316,-0.04058600391118904,0.18516833076414574,0.3710615728853202,0.5326947722001264,0.6730068773429944,0.7686515425381774,0.8124658401440527,0.8026306366369325,0.7435124956522524,0.6702280247860426,0.6111700190808989,0.5732432264710746,0.54670834039642,0.5145196239459603,0.46181039776863586,0.3774241501760785,0.268449155820598,0.19580586742785616,0.21860566003879997,0.3330609256075031,0.47654357625683397,0.45597982587903546,0.2709346156421098,0.10928276790296301,0.016918727956160996,-0.008142169753778034,0.020073757206430003,0.09037892794634839,0.17700261505244483,0.2393346935059888,0.25367750088444263,0.2068430240733949,0.0785629955634773,-0.1326317035059281,-0.3376432008361492,-0.4545791423825571,-0.5073703595159728,-0.5152960197863108,-0.4899691826389538,-0.46372704136895504,-0.4577734732289559,-0.4714204525155855,-0.4903954194946946,-0.49369532954648593,-0.4659898563890725,-0.4338855987405949,-0.4221048585989715,-0.43485618574255236,-0.4579298591022426
