-0.35060208923987085,-0.3161869828593624,-0.24796376121843577,-0.15202328557624836,-0.023913788840154236,0.14934795667028475,0.3561566568843704,0.5310726251497342,0.6348140409644524,0.6850012414608502,0.6934846287590378,0.6598759466338817,0.5846961048840887,0.4817017060943441,0.38631178767545327,0.3475604375979969,0.36636570695556175,0.42188431522552783,0.4757380099362998,0.5109596273515987,0.5257772788209296,0.5239858737872302,0.5175793961294625,0.5124179692183933,0.5031186553419852,0.48208495515552435,0.45085110330910183,0.42010513735344107,0.39569970490103173,0.3848719864669375,0.3845586952675419,0.38203915680294137,0.3574140306060675,0.2958504559255591,0.19285429713952074,0.04965124227717659,-0.11735057741046905,-0.2679762395659116,-0.3724385558243893,-0.4258930131314551,-0.41658730619153267,-0.3420309611924403,-0.22124162026041969,-0.08497321370234963,0.038066609751172584,0.13850156697238208,0.222252213656429,0.2880589872325494,0.32141203192077206,0.30891806431691476,0.22539209123187465,0.036422279104362854,-0.2180164629866442,-0.40690510107449673,-0.4738755660496909,-0.4595075140764177,-0.420329079692901,-0.39974662133255157,-0.4035629843946749,-0.40879171941307924,-0.39196971752652565,-0.34793233766538384,-0.28319514776493454,-0.2172124117157717,-0.17684780857851648,-0.18033529520449793,-0.22857363680282208,-0.29838131054560535,-0.357604632147129,-0.3865963614141314,-0.3806593244266859,-0.3395665696299585,-0.25983587558811677,-0.12089462337114583,0.0878939626650833,0.3122584543058198,0.47778042191954484,0.5574102310001979,0.5537554643918684,0.4651205203291718,0.29867252897867863,0.1045983360333192,-0.06595454218210779,-0.18970300126437578,-0.26870207210705055,-0.3212427745433958,-0.36722974254331986,-0.41062315773273583,-0.4327024954863007,-0.39125106103851914,-0.26833985411370237,-0.10102466770492508,0.045111400691040776,0.13732936628716086,0.1725274159714164,0.1712495908815652,0.149538568975107,0.11122665765249996,0.06027414998302325,0.013586874180376966,-0.020298831860701357,-0.02156098624068288,0.02722009108807435,0.11907369820559607,0.21957544762394762,0.28667361126263613,0.30865085251808966,0.2940847209048012,0.25705866105465297,0.2167738736507704,0.1927809709448043,0.2072980895667018,0.26143698119532915,0.32185235378174043,0.34972902107002646,0.33031387569229975,0.2635599787628887,0.1807302116661799,0.1407869140961848,0.2003316149592428,0.34904863653026785,0.4863078509620262,0.5460085864091353,0.5372090821300592,0.4641429298071228,0.3094911424790324,0.07259344197106396,-0.18862749596782305,-0.408262256811388,-0.5554198399601116,-0.6043722553102232,-0.5764682268752593,-0.5268479954643651,-0.4849961646596349,-0.4567164089195276,-0.43832372827859173,-0.425718595332158,-0.4113841250024186,-0.37999064005323585,-0.30729566511732326,-0.1683302759505304,0.0304713000195075,0.23089276819425528,0.37697956738991206,0.4558785121528057,0.4761546399081769,0.45306868496126057,0.40598540436494945,0.36036494064971863,0.3313885945424944,0.31947755498631236,0.324925528865866,0.35176343078912775,0.42088476974709593,0.5524823370578259,0.7305468789708867,0.8593195366465491,0.9122926333644051,0.9350665400244936,0.9511398890178696,0.9568797378652277,0.9403094870269821,0.8860204007756904,0.7535981563008798,0.4743684089636654,0.10311264072546408,-0.16641200145718346,-0.28865670889858824,-0.304847353368725,-0.24440047078181243,-0.1366980805379676,-0.03968651409366113,0.014474156873747276,0.01874581013979799,-0.006532982091669661,-0.030049398452950113,-0.02488413265935789,0.0022331812968649635,0.019520575841449183,0.00257206930976069,-0.04933430446073896,-0.10277629716351334,-0.12916509566844706,-0.1240766846221718,-0.09491519056003471,-0.04816248620639147,0.013710968147537033,0.0858928842219098,0.14602681989936914,0.18807691379431404,0.22321887366126236,0.2680365723617466,0.31912831469551645,0.3513859065599939,0.3303101755509227,0.2476440740071622,0.13269698491166956,0.03461010507575208,-0.030224574018182872,-0.0552282390142846,-0.059597641596990915,-0.0680872611221049,-0.08983250568078893,-0.12228063381250834,-0.16284657614166717,-0.2110745459543477,-0.26834892021317663,-0.3333900925191623,-0.3988424924733714,-0.45213390154075317,-0.4864272470987768,-0.4899061535415604,-0.4640432281325973,-0.422841430996683,-0.3839131112436517,-0.35456352119746826,-0.3328765020597138,-0.3171000543231551,-0.31362252772005456,-0.3341732766452077,-0.3595891652010661,-0.3625406101855642,-0.3364547980444572,-0.29689573220298643,-0.26509951060594955,-0.25880408232564045,-0.2849479217388572,-0.33762843320515284,-0.39729430538947735,-0.413781090886331,-0.34704250858656543,-0.23041047838222237,-0.1145396185268829,-0.009922842543805498,0.0803899502740784,0.1315413966601618,0.11959139651237151,0.05868115492483749,-0.011447857185928117,-0.06586470186769174,-0.09512611488519124,-0.10603064366110575,-0.10041687115744048,-0.05456718777909592,0.0566092543938076,0.2144655540249865,0.36580432880315245,0.4800493969607559,0.5711890479626719,0.6433979190041681,0.693533315770283,0.7234561686594738,0.7352029573586054,0.7232182155106156,0.6769897368066791,0.5915568766578694,0.45983751970774617,0.26993487532939364,0.0418711673419863,-0.12490327094432917,-0.14044967638183414,0.04619662268025891,0.30704806764465586,0.4473176940531289,0.4857060949020729,0.4587182649170756,0.40679977358373476,0.38418863120331354,0.41839918681761656,0.4876260266294719,0.5574244379214038,0.6043821003032375,0.6238837528088833,0.6136137598534469,0.5742998879629582,0.5096129064891803,0.42617193615969096,0.3378320611523265,0.2567841712608598,0.18358285096597482,0.12002966620052717,0.0675396070391471,0.022351934749247,-0.03218526479608008,-0.12286445550210909,-0.25975491394081174,-0.4098807752144768,-0.5282456997059275,-0.5946838928166539,-0.6262552884369874,-0.6478497856169031,-0.6736967743016734,-0.7043408192174075,-0.7268174275661123,-0.7332865138650085,-0.7308204118044491,-0.7223251637527672,-0.7018723865437532,-0.6611165595686688,-0.6088664346163738,-0.557623821954475,-0.5074612365791948,-0.45097919877176373,-0.37922946614753195,-0.2851943832166764,-0.1636075811729028,-0.02325688742862709,0.11036930193075181,0.19967273153249898,0.23855737834464935,0.2508417539307429,0.24987473954537032,0.23666644299997483,0.22847638840972695,0.26709722033410155,0.35814197010813564,0.4901548951126643,0.6154106124133374,0.7023621675976721,0.7441202012620706,0.7394957132062716,0.694259637523631,0.6309011866337033,0.5837679798936214,0.5608479380983711,0.536813182425466,0.48684261844661364,0.39665175307813355,0.2649949374071196,0.09512464525302831,-0.10314778457239235,-0.29073060220114605,-0.42609208971277396,-0.5117396827502184,-0.5533300430665786,-0.5392366990815173,-0.46552045364779776,-0.3530193222456916,-0.23103868840679628,-0.1115968229056737,0.02336530965805961,0.21311337540175138,0.4487247741858542,0.6280092647472603,0.7089734295270448,0.7318795202583827,0.7230875409118325,0.6849795195646959,0.6154261324918914,0.523395987442059,0.43442248455036453,0.3750714724401821,0.35136390409188184,0.35047267405105886,0.3538418341730101,0.3270058570576965,0.24739815693960773,0.14495966829853627,0.05393465048857921,-0.010000853829593976,-0.05322160702740947,-0.10457105025006386,-0.19374024184672528,-0.3213336014929811,-0.44597078789926037,-0.5509918060440155,-0.6626654278034303,-0.786547919060984,-0.8621946694449149,-0.8686270307047991,-0.8609322596626184,-0.8479339989965765,-0.8188158861007058,-0.7641210111295974,-0.6680341349727662,-0.5050399833269741,-0.2758734387312464,-0.05418597721221961,0.0948039911315681,0.17233244344536516,0.20001347010812828,0.2038524953537601,0.19713339625890386,0.19037413392176394,0.18777292916895383,0.18725051574571241,0.18249843629146223,0.1713580107047759,0.14727080791557848,0.09432514291967287,0.00647074455173998,-0.09430205459162354,-0.16943734121181012,-0.20021408498790155,-0.21142771676216576,-0.23214325706900435,-0.26634697387597167,-0.2958708483664351,-0.30421435592245266,-0.2943713906639386,-0.27237784912242213,-0.2402750358920646,-0.19365502568145304,-0.1334113337817579,-0.058599542567787835,0.03212587704168766,0.13874084395476932,0.2680111903292235,0.41967719241576606,0.5715763137678695,0.6817473830340752,0.7231526963926574,0.7232639134916092,0.723308593023835,0.731254470572742,0.7353058603799983,0.7241584643341358,0.7029433859828174,0.688711659744876,0.6766533245688924,0.6243244453050907,0.47994193217235165,0.25026028390650873,0.027756060851501733,-0.10105625277044442,-0.12033698532594243,-0.0733027278344499,-0.02369649654596298,-0.010835879050180321,-0.034097120004553165,-0.07234222631041835,-0.08915288554559665,-0.07397040193083654,-0.04183155564293689,-0.02763863510448415,-0.047395020278773965,-0.10012956797076525,-0.1743890199320883,-0.25735231244547313,-0.34081328772398567,-0.4158058465019435,-0.4874278374648554,-0.5668399437503353,-0.6540596687422291,-0.7049729752985477,-0.6754382756889559,-0.5960557873727396,-0.512328560055055,-0.4355359740881995,-0.34800178239073115,-0.22624942760317285,-0.06456069257817985,0.09280729670563355,0.20999896341594596,0.2836259908599539,0.32726231304613557,0.35192980180943095,0.35382325262622893,0.32317514930124414,0.258230883476727,0.1613877955418011,0.04494555864965091,-0.06950836171917774,-0.16329722323618126,-0.22618817156282675,-0.2448251599279972,-0.2132366344881883,-0.14983522434029273,-0.07435417534708909,0.018269951971159003,0.13753199333099042,0.2668118976208532,0.3818529397815948,0.4795186955303963,0.5723505280109653,0.6752711710803421,0.7503384431478903,0.6612752736051433,0.49449333276889285,0.3957147488952326,0.38310127945681355,0.4308798470369605,0.5076175535349775,0.5755059969131461,0.6085168178271974,0.5921136532058209,0.4949998685617299,0.30460524467218675,0.06309356823124408,-0.1676976524082272,-0.367953108506008,-0.5250708811049757,-0.6283030182829054,-0.6907833860708017,-0.7220375980766537,-0.7232900204061014,-0.697787601359406,-0.6506401399801797,-0.5853885235533794,-0.5100212305741371,-0.4319321036120484,-0.35261363171205057,-0.27032054562298186,-0.1854301206011857,-0.0967018245565365,-0.00759392654325209,0.08245022762640605,0.1703366999536483,0.2509660143676743,0.31794363841066103,0.36968212050247806,0.40528158975309875,0.4316512985792433,0.45368278114580324,0.4722754563390322,0.4970513094324442,0.5360857636584697,0.57275970810309,0.5775356807448268,0.5478269412124364,0.496220699260878,0.43163096227372966,0.3568703521270653,0.28136664938669403,0.22018797185597208,0.19222766410001502,0.1977782004881142,0.22499507951959036,0.2654937714189342,0.30792417741197237,0.3347409429153703,0.32435714095696033,0.24588446842837147,0.0593171076990793,-0.19127407581585623,-0.3689672366874248,-0.45475518966205797,-0.48846823218845736,-0.4853506564385948,-0.4562673395384646,-0.41970470303504487,-0.39610421772036103,-0.39110898855544246,-0.39306879896616276,-0.38547679213769165,-0.35196592022684825,-0.2820301273886024,-0.19620855485837113,-0.11703773405325998,-0.05685897569883284,-0.02699783000150936,-0.022176332595758047,-0.04096764548901021,-0.08312688009795817,-0.115485224435084,-0.10516777046512242,-0.06978864882103009,-0.034043083399340555,-0.0080020484859226,0.013520767433981009,0.04087708377677261,0.08313813089807928,0.14378768097090494,0.2098727294991595,0.2720148022974121,0.32508833272740384,0.37925114641230667,0.4457944875850081,0.5207634214052417,0.5799107274341829,0.5972373104600347,0.5939603567751934,0.5805296260383164,0.5566112857507313,0.525195862418823,0.5015702368302868,0.48899316069499527,0.48526257370427855,0.4878120865570786,0.5024423029883227,0.5262234903153944,0.5507222645380483,0.5546510674572153,0.503146508470435,0.32230193436330573,-0.03627854329628371,-0.36543618001225076,-0.5091820470023952,-0.5391091014534567,-0.5283732806279299,-0.5107733991815275,-0.49913111485999706,-0.5001292775707235,-0.5155351323230988,-0.5349316350655239,-0.5388361485165963,-0.5088273465971723,-0.431687467567432,-0.3133550541088732,-0.16898713380146738,-0.03187819657917749,0.08454305389733531,0.18586230715779264,0.2776005738147921,0.350975718197864,0.39943610932899176,0.42515228837264984,0.44051034328562005,0.465377916423728,0.5040744595327742,0.5461353920366292,0.5699793436762783,0.5601340542166319,0.5215033189913699,0.4613748968547737,0.37584961388472277,0.2480634954966896,0.08191524519936423,-0.09361819153738125,-0.24996067291926766,-0.37480188975185125,-0.47501193694063004,-0.5549643754013661,-0.6114674043483135,-0.6377095962074645,-0.6248398176521759,-0.5762246304522808,-0.5046662290571823,-0.42219161937043936,-0.3342382923507186,-0.24010544141950443,-0.14674430334338243,-0.06414262325714917,-0.0013656286799784178,0.05159675989829013,0.11645067757889728,0.201826248897798,0.2979666089764266,0.38898579215300955,0.4614519819179986,0.5034249292783225,0.5119364147503394,0.47153498702822394,0.38385553284160034,0.2968056897387928,0.24525160014264724,0.22448290649643415,0.20544015338963198,0.15417473956387936,0.04031191099852215,-0.1470490443478125,-0.37008488163088094,-0.5523042520107759,-0.6528281191792406,-0.6865814800771065,-0.6725838427907828,-0.6200600048685508,-0.5297142885635702,-0.38448265799865305,-0.16000789759606038,0.08327115173205266,0.26295576048980757,0.36344191394846054,0.41336312025713673,0.44170704395926147,0.45642661749057123,0.4528717839156842,0.41901532791717416,0.3400142097567026,0.22121144744728188,0.1133169818648773,0.08500478671073892,0.13333886755682425,0.20807587433236982,0.26488947855089046,0.29830206492905204,0.3160992145099236,0.32882497640261477,0.33872951378641786,0.33952603060184877,0.3218130212029605,0.2822007245162816,0.22858880204288345,0.17643107466103197,0.14157253146561172,0.13038615332389125,0.13904934927939758,0.15626921080158365,0.16888470567089695,0.16852670288287977,0.16525315600809568,0.17919255969326622,0.20590514875938798,0.21765585722276834,0.19146811604914998,0.1253998660666409,0.0062434585260367345,-0.15522153621545368,-0.3123488879861103,-0.420616090894384,-0.46418699910147837,-0.4585441734343617,-0.42655904706424597,-0.3886588960855286,-0.3597179984165061,-0.3369270595330192,-0.3053669234685047,-0.2623868236471361,-0.22909938996216742,-0.22072532197105424,-0.22782754939122618,-0.23113215649052965,-0.21092119227045159,-0.15509288548531255,-0.05230928577787157,0.1002352865020936,0.2945164192332706,0.4955551012805049,0.6353920771481513,0.6852116962432617,0.6445546134147857,0.5090445020865723,0.3013653967279883,0.0920607975918998,-0.0744310788584364,-0.19315690073986153,-0.26995339870717133,-0.3014769085249353,-0.26339997821816596,-0.11122963098045,0.15231084037934509,0.36149187349422196,0.44440852581042534,0.4707936073699965,0.48752985019200096,0.5037375182702061,0.5072117268951565,0.48851407182259854,0.4453152261537549,0.3840919937979675,0.31112720687509654,0.23415021471691141,0.14662982810955236,0.04504876520805077,-0.03663868413896774,-0.06306609472795559,-0.03894559061802438,0.000630788171208307,0.020966893807687383,0.015387758076447952,-0.0011192309140768235,-0.01584785287242209,-0.03368568380103963,-0.06687802749845044,-0.1145010900667062,-0.16752224337200072,-0.19753163000123117,-0.19017837799185547,-0.1512472113323766,-0.09225749896170145,-0.03428651215415863,-0.011482909026257437,-0.028371569723163362,-0.07820356104229188,-0.13762542811653966,-0.15205895807971892,-0.09315827166077528,-0.0037036256395002205,0.05611126243259034,0.05345864773909862,-0.021188346325535595,-0.17387373876003126,-0.3641846330630547,-0.5294922272453567,-0.6229946698340276,-0.6361716295575414,-0.5908547203542206,-0.5066848171168012,-0.4228510224156782,-0.3785530742544686,-0.36200356985062376,-0.3411073689372586,-0.2993253990704474,-0.23391562227994575,-0.13264386378854023,0.010007152211143793,0.17889445830139233,0.3377820250148043,0.4663031423848782,0.5685084557162421,0.6531287585469971,0.716729068282784,0.7425955958287258,0.6740160093846755,0.4403001054920632,0.20027438797568742,0.1250274225822483,0.17901353038556586,0.29130923743036885,0.39300779535168884,0.401432048381477,0.25920885883093175,-0.03970444307372781,-0.3623149766185389,-0.5761051880507804,-0.6886176720528288,-0.7435706440525229,-0.7709204348385156,-0.78814733104871,-0.8031134094169732,-0.7975920682147317,-0.7553879939553787,-0.6870731673015794,-0.6090192371580881,-0.5251585540809317,-0.4298826947772189,-0.316046871933974,-0.17416840816359522,-0.03419777311227545,0.06271908810566243,0.11737607472363974,0.14908500641599748,0.16114899297537483,0.1581248859823623,0.1388774164571758,0.09900767318966355,0.028758861388702615,-0.08103759408173666,-0.22565273182050197,-0.3378613786087943,-0.3164699445594365,-0.19889150467546127,-0.05393087320220962,0.09440176866373713,0.2419979868597992,0.3765998833120191,0.48287727767082267,0.5457543240598288,0.5567265571734018,0.5204772656925436,0.4588027300858082,0.39638686108136895,0.3509506395646105,0.32842742633383304,0.3167128239772002,0.28877676929782253,0.23002000970909955,0.16075185443045445,0.10319983882977041,0.05638065379283904,0.009791075432024244,-0.019343369297710758,-0.029259131811304875,-0.02909752520644945,-0.0211680752744103,-0.001127003959613972,0.04122914121182069,0.10110579077588812,0.1704460015536626,0.2304724013965933,0.26624193238703736,0.2583170497560976,0.23152364035870876,0.21406824016885848,0.22650596012147287,0.27236698740714227,0.3407339024472629,0.4083814344326608,0.4511572950189959,0.47586721606331084,0.485287950114561,0.47449281111887937,0.44266382601843224,0.3915431287192724,0.3197226601107552,0.1913393820705637,-0.056291446352053326,-0.37453035291940673,-0.5591575516221734,-0.6175930549575791,-0.6196273751803918,-0.5905258447470967,-0.5331868303322959,-0.4418294438965062,-0.31175753341875395,-0.14987773400706794,-0.0028596481620770894,0.07659615049760295,0.10776579995849032,0.12355582294620102,0.14458779252084825,0.1943155240997141,0.2908872130588066,0.4211490993331135,0.5214420868682518,0.5658309397812156,0.574732648848787,0.5676556651583665,0.5492611444010993,0.5119951820517153,0.4409675787830032,0.31389719595451526,0.11456771251300946,-0.1348327922864349,-0.35321392911387706,-0.5092433635694913,-0.6306437793370754,-0.7390667431487575,-0.8174981490643216,-0.8460150994823583,-0.8456467047039444,-0.8397249108595877,-0.8348772312087391,-0.83710711584367,-0.8417859484908906,-0.7970688684747996,-0.4715734847466786,-0.033276517023208683,0.14408590038114713,0.18412587066866284,0.17121901135938555,0.14026689291807473,0.11277941626628937,0.09697358401053542,0.0795323501589435,0.030162095598079874,-0.05987525164440003,-0.16557216893645735,-0.24927334073925161,-0.3036497675986068,-0.326332042194025,-0.3169588894109835,-0.2671828635134882,-0.13000141457258385,0.12020860414214037,0.35216916560169714,0.4690785592723527,0.523531911676163,0.5536042491135733,0.5773881378923572,0.5674172225749359,0.4685275593058867,0.2841457220174565,0.09591583714200423,-0.028197576870509368,-0.07879414798191971,-0.0837047639978142,-0.07496257397823725,-0.07931555814221494,-0.11144187164300022,-0.1634841851598115,-0.22251991092271334,-0.27297413415418076,-0.2971617503644116,-0.30323888152015643,-0.31079170574391884,-0.3237780076572836,-0.33565967236983313,-0.33540931452585915,-0.3184086262580782,-0.28458372255245323,-0.23137712198523758,-0.13899716252802807,0.020714948037936793,0.2569750621857919,0.49364787577888075,0.6234773799195373,0.6647392055468189,0.6661546501389038,0.6570020109198743,0.6485092416101959,0.6389502143306126,0.6420648808126124,0.6640836092096722,0.6876330755641642,0.7003639687055728,0.7013061414902504,0.7002753292349579,0.7087999543232434,0.7284076506176507,0.748159493566612,0.7573241123000599,0.7527940707096195,0.7304683222649191,0.6878813424911452,0.6162386065955827,0.5042875087556155,0.3423345874905636,0.133325728807665,-0.11406939731061803,-0.3667807941253188,-0.56291032055541,-0.6704559287692399,-0.7095175582614148,-0.7044568328449992,-0.6724170304002123,-0.6491415108037024,-0.6687753764824416,-0.7109755719257905,-0.738334996939307,-0.7380097828927741,-0.7138162327349695,-0.6601131956007915,-0.5409412939053685,-0.3234883838071271,-0.09537321633537307,0.04751245490074169,0.10785202423673973,0.12624005152437903,0.12912294910784133,0.1158580940721436,0.0905484203183013,0.06299912275099039,0.04871865045790179,0.06227837160460253,0.09307891130750347,0.1139724308936981,0.10662021071246622,0.07856127738086614,0.04914841683856157,0.04663894569809128,0.07774849671517532,0.12751792762464675,0.17322431954747136,0.17135460172580433,0.0660900599533305,-0.13533083052011372,-0.30050050170827525,-0.3843778037898833,-0.432626144555751,-0.47611962633159016,-0.5130262367709277,-0.5329283378642046,-0.5315243330888882,-0.5096215887674052,-0.4638488964348039,-0.3851644340017023,-0.2468611512671329,-0.024422745167968444,0.23177410054053757,0.36325481887880234,0.32840879126189004,0.21153257273991471,0.09181115692160734,0.0048659621068817445,-0.037667096512600966,-0.04121477305512106,-0.011861245658200213,0.042534581594800364,0.11275373375936448,0.18295373862256556,0.23776325525081593,0.2671879028076121,0.27679382652753015,0.28319201333017696,0.283056684266258,0.25920857761219174,0.20798986741041522,0.14513493383726878,0.09718630559143672,0.07611647676082343,0.055430993938094315,-0.03524253292967324,-0.21222323111317778,-0.36701033729828,-0.44468906286641374,-0.444844670402202,-0.3228992748755593,-0.02960765951774786,0.2975740763618513,0.49349384714762795,0.5881580214930482,0.6412574307958449,0.6792213510412711,0.7127323694468696,0.7417614092830621,0.7549973652327947,0.7368497132034769,0.6765499363144255,0.591314246749197,0.5218561651261924,0.4813965231664695,0.46105688420760654,0.4406831835179005,0.4057936135565601,0.33313969750254646,0.16056449014429874,-0.2582713934464841,-0.7038213662028039,-0.8243445276589147,-0.8419456968855863,-0.8339963257560458,-0.8118148817480461,-0.7801935966879663,-0.747832171308346,-0.7216170879930316,-0.7009459025405733,-0.6757688823773829,-0.6194420129667074,-0.5052175762662564,-0.32395010474153374,-0.153055340399431,-0.07621544493904504,-0.06987226973043356,-0.07548508350718283,-0.07126666076687048,-0.053706403867690454,-0.02015196526056661,0.02027841180725812,0.0553526523265675,0.0674012821933287,0.05162068910140265,0.013920734283295952,-0.029107918979460204,-0.06695536464606253,-0.07896196464296383,-0.025559343096413337,0.14843353022536376,0.39418461822612966,0.587373670264746,0.6919371784743513,0.724385027076643,0.7040315011398321,0.6580228221722426,0.6250118292191413,0.6179375443987501,0.6139767363041317,0.5930666357411599,0.5420114050815411,0.4545814635308167,0.3432530383812781,0.23072691963886968,0.147159817321677,0.12342602703194844,0.1478999666792273,0.18452131698994206,0.20774328469041878,0.21488220575535577,0.21799172346289147,0.221317506549812,0.22799089639136047,0.2529579762034827,0.3111763686106126,0.3923661279298256,0.4621450007173367,0.49452454793471573,0.4936018868444569,0.4747101477369763,0.4496173060861668,0.4202559980790288,0.3832172566627408,0.3298605838524916,0.2553540244193426,0.1543298577548408,0.030861841118024723,-0.10970554440218083,-0.2612439456909923,-0.4130248150019896,-0.5519945285975233,-0.6503363231553424,-0.6647604205919335,-0.572096517618632,-0.43699931666686764,-0.35886539421134145,-0.4017076811247675,-0.5507158457127255,-0.6690875172395878,-0.6997999737384268,-0.6736253861340592,-0.6145641103809008,-0.5377094698303395,-0.46170111076340903,-0.4042883604033833,-0.3730245449175616,-0.36802546950414705,-0.38843446681220456,-0.4258034911400501,-0.4667059124024009,-0.48993993421619053,-0.4766087047019192,-0.4213615314746666,-0.3428136134127411,-0.27648809035957406,-0.23320614169196535,-0.21024935676972034,-0.2062932462145272,-0.20582317431609415,-0.18320644041144465,-0.10694001813888612,0.03457211340197145,0.19371574706839118,0.3022041853043786,0.35287103994357216,0.3780379959879153,0.4082614474921737,0.4568229218799917,0.5006193922697907,0.5063126869709669,0.46015302304184436,0.3809982149872187,0.31023482544303416,0.27915065548877066,0.2988235566091484,0.3760513472746937,0.4894174904454297,0.5905442410354147,0.6516868481865326,0.6750035895652202,0.6679379378975483,0.6413758361911689,0.5980482988546127,0.5425122539147403,0.4676769266140042,0.3342159972283955,0.11174936450854976,-0.1240900313783077,-0.24307128221470164,-0.2257900953876773,-0.12360707835599956,-0.0006384160832082066,0.10182700446389933,0.16916652519172712,0.2070554282265928,0.2156478472580476,0.2073090090411478,0.19337050072370274,0.1766111835847379,0.165476580872767,0.17231995291922153,0.20218784246492733,0.25636194743510377,0.3173949675805173,0.3640966449463062,0.3870795474893381,0.3901960244876969,0.37944189670020867,0.3590925236428538,0.3224174885651226,0.2527288543299061,0.13825336117347736,-0.021128508267326297,-0.22379766412807217,-0.44467603695157887,-0.6249474500733475,-0.7271055622773438,-0.7713641802856129,-0.7733246385136792,-0.7293788710999667,-0.628287815280156,-0.4372237719879112,-0.07750070292662944,0.28528439355213303,0.5018378489481528,0.6359635690637164,0.7224109966092441,0.779498598682916,0.814864866108068,0.8271552863968529,0.8038797505898386,0.7254324926687659,0.5844384598164151,0.4124534731200864,0.23406804756407168,0.054940165966911085,-0.11946401421009313,-0.27464675645711467,-0.40649818329952225,-0.5132541037629184,-0.596132867492119,-0.6564541190056058,-0.6962898392172829,-0.7142635704648965,-0.7127931813036027,-0.6969690424376014,-0.6742211543509347,-0.6517405101628352,-0.6353546074239999,-0.6250450868825239,-0.610911645233394,-0.5734394328686607,-0.49086952663943284,-0.35031629181093793,-0.1574288059260703,0.04678251741297398,0.2060822130740095,0.2953199230083863,0.3272174558828744,0.33487295831134695,0.34985117466216675,0.3714853735684547,0.3926730569529484,0.4207019922302003,0.43997182582990957,0.42502284095183585,0.3564214323955687,0.21425710221944044,0.0021203820268924966,-0.2087141626299473,-0.3495820655276174,-0.4062783597606382,-0.39838478425434704,-0.3367200392295081,-0.22595604327961097,-0.08930971862365654,0.03700532792515511,0.1241334457007902,0.1793011575281069,0.21906136742116009,0.25338944079101017,0.2834526600044825,0.30893847990879425,0.3327713237654096,0.3598882834638023,0.40137904998580415,0.45150593273810125,0.48558926768539407,0.473257158800741,0.40621416871494687,0.31524505487939025,0.21453022609080738,0.10950877056004618,0.041176631600502674,0.01848393974248546,0.01793071276463646,0.02698608351276216,0.04759132447345135,0.08690462557082132,0.14524505398942822,0.21282484593213247,0.28141875352521006,0.35217707540392335,0.42638890142359587,0.49991677067918217,0.5628703498871553,0.6103963975934408,0.6448688458963903,0.6497891719619061,0.6092545362886899,0.5154291873665604,0.39309399553673996,0.28803431521870165,0.2200466192786251,0.18770152617760397,0.17637485868944347,0.17545345428450038,0.17323672796560852,0.16482349838707727,0.14977113560947442,0.13272360921767717,0.10494320112435382,0.036721807678566594,-0.07397876412455125,-0.17515088117569155,-0.23216163741900964,-0.24307484845253058,-0.2295555482761195,-0.2391838683910017,-0.29473624176731283,-0.36549328040223966,-0.4164039224169605,-0.4331954697352712,-0.423909445270319,-0.38127379954350554,-0.2715024825649611,-0.007164642064993514,0.41584911817341436,0.6839605643152908,0.7520078369184783,0.721888646885758,0.630613290114425,0.507793740049768,0.3812527457035553,0.26370345101519294,0.15494440812586305,0.04602353439304662,-0.06444351627735795,-0.17958106751658262,-0.31075198611543986,-0.44683822957398783,-0.551356494580685,-0.6049658428516551,-0.618351405738354,-0.6063335568978337,-0.5703614368105668,-0.4828359477487481,-0.2658366383073555,0.054482026340251524,0.2514106758455653,0.33793279870040477,0.3801551948752065,0.40088004849289144,0.4046107615221684,0.3892079994722544,0.35567485973987856,0.3081404963236878,0.2513051783484485,0.19120617238474313,0.13386812592621103,0.09613288952421102,0.0919776455177687,0.11988640276401796,0.14778829605008592,0.1555513144981684,0.14417037697607643,0.11813635831809499,0.08972753874681866,0.06155609272791505,0.02683871385630031,-0.014795880327908753,-0.045900590809548204,-0.03616071138458066,0.051123605156627776,0.19871156734588713,0.3445039221040141,0.4301869326777199,0.433741279393967,0.3703033958815689,0.26517938657563495,0.1483126481974269,0.05130748958278186,-0.012314390242695481,-0.053427587180175214,-0.09232365486004719,-0.14385817895934494,-0.20764722137437708,-0.2609319184327222,-0.27578393914783167,-0.24149748211720645,-0.16592409905982586,-0.08005439354168405,-0.011487601319737493,0.033002014470969385,0.06081085258501383,0.0798641376047157,0.10485907312814541,0.151993931095114,0.21042694686041155,0.2286753455301498,0.17948286393689397,0.08735919936706431,-0.00888602373406731,-0.08412369214549922,-0.1189906765250527,-0.11121532390580605,-0.07885376493897193,-0.03835819322402193,-0.009213376938564711,-0.001601956811780055,-0.007301459089316573,-0.004722668147147252,0.030763958222341105,0.11449735729936283,0.2376399501643112,0.35750912488831793,0.43918041597497376,0.48037309145874857,0.4928617184334096,0.477840862650266,0.4326126356478644,0.34693456712549464,0.21848514765397728,0.10002259075214985,0.03861272929814407,0.02263384104488463,0.03189927085447177,0.0561555213508783,0.0962203519682199,0.13982583781534794,0.16862464839168723,0.16669110328099498,0.1139718937038809,-0.0020858833876215496,-0.1477439511967154,-0.28695228590840144,-0.42455865532669557,-0.6081600553011672,-0.8396141099752951,-0.9297300221787378,-0.8707426186240819,-0.7893695161281559,-0.6820393594153475,-0.5205391089094659,-0.3371146156891156,-0.20258324189157484,-0.17943097322381682,-0.2996543670185504,-0.4989629760272645,-0.6582401829245583,-0.7419615162641154,-0.7751589733764739,-0.7806580016191584,-0.7653587121847953,-0.7243047918368505,-0.6474828282592515,-0.5230510884526276,-0.3498527270393722,-0.1231719619732796,0.1405701506092337,0.37903089770917026,0.5325969634306135,0.5992150157021747,0.6131714543035807,0.596680363067551,0.563048874058293,0.5106914717086948,0.4378673151760216,0.36026536292785977,0.30974783469600303,0.3102991731421427,0.35484220519417986,0.4226738696668447,0.4858353061809292,0.5220925246576661,0.5142495128561637,0.46599448711696917,0.3841182491904607,0.2894440281207245,0.21755822401561306,0.18833994679846033,0.19332484841293948,0.21739143821577567,0.2527941328710518,0.2881444966710288,0.32889539945889545,0.38007621091399524,0.4372638229940782,0.4963878749517965,0.5522386263171533,0.5915739326539272,0.59643116387002,0.5198994127053675,0.36546892729479175,0.1992492723046685,0.10186933521467559,0.0713690024928731,0.07374852170108172,0.07695368783176597,0.08198640035297275,0.09125959671610705,0.10272752425994788,0.11476064405848622,0.1248226287299741,0.13851769676476372,0.15996948419178922,0.18809846604299252,0.21711035895849445,0.24641721443315176,0.27826259928276287,0.3085548454493025,0.334368097129321,0.3517212504943297,0.3563240687564341,0.34639912087700914,0.31768745939226867,0.27588966946721005,0.2343910958108258,0.1918014772516045,0.1417310126592111,0.08469944683492867,0.029934814266069195,-0.03334517704068058,-0.10915342733323395,-0.18440967415791673,-0.2231155037230078,-0.20689846166333842,-0.15754841767953753,-0.09963250925180873,-0.043666898684344105,-0.010220896508304609,-0.02737453266009086,-0.10403567034742918,-0.23197962450199752,-0.3314219302767816,-0.3309277068657354,-0.2540614036488923,-0.1725041658573947,-0.13089894281667355,-0.1392333618336018,-0.18893231913948016,-0.26449546595219875,-0.34324643475129274,-0.4069092605003831,-0.4473745946625155,-0.46320300785010765,-0.4667801389516861,-0.4518426507727441,-0.4097002601656654,-0.3379600291240574,-0.23787544293405852,-0.1242946691137336,-0.010277730716347508,0.09789528542129966,0.1953111691884089,0.27725119113738894,0.34652576829594534,0.39816942842464786,0.4138880240466598,0.38211002822672496,0.3165281487209328,0.2448271455682339,0.18056675233275027,0.11658323916349422,0.04241319506198593,-0.04772544584505944,-0.13982753145702126,-0.21880503925899833,-0.28359234458906707,-0.3312725994986277,-0.3526580948013791,-0.3316736539798044,-0.24573509240607944,-0.08859655657107257,0.06258360033236127,0.12883427210627776,0.12462806774176655,0.1072488181326687,0.11271138413225149,0.15206015651469826,0.18469761833019946,0.18951559545794994,0.18710399188983054,0.18854115607625815,0.19186921139922858,0.19190190051172978,0.1885448428186318,0.1834223208233951,0.17525420435900574,0.1727134825254758,0.17467939332677332,0.17605032245227697,0.16967580919978797,0.15310019143437495,0.11912779641458866,0.05218601755157894,-0.05666556815226704,-0.1777610287076808,-0.2613897828329135,-0.2670890410788019,-0.1859272238900039,-0.051213351546963305,0.05998043020099611,0.11005597634814744,0.0960397162998258,0.021991443001237284,-0.07753015059966549,-0.16296228997300533,-0.21400886230686883,-0.2398042646292054,-0.2555405946191759,-0.26905861627573013,-0.2941895740713941,-0.33664458139234854,-0.38551213399569273,-0.4226313126974217,-0.4299944746927803,-0.4041716986324827,-0.3564746959418139,-0.2917291150696208,-0.20722055859528596,-0.09072715104878129,0.05653433112189158,0.2113371903545549,0.34148391820115925,0.42553838484490725,0.45558733746028274,0.4256351463323004,0.32962826584702204,0.1829469211351144,0.02102560089825693,-0.13565905446220572,-0.2516692879457222,-0.3150251100748499,-0.3186355797418062,-0.2581095176771812,-0.15095339426338839,-0.041580855767433096,0.008191606831427565,-0.05387224978006059,-0.19221471207772145,-0.31021554027720966,-0.36483398648290183,-0.374359970387413,-0.3551118493497002,-0.31873918951451047,-0.2683259727313215,-0.2096198477078211,-0.13917896164435783,-0.06453666310847102,-0.008718842237890073,0.0003101361104165536,-0.03270509521421653,-0.096362411621292,-0.1743708831758408,-0.2434247999349076,-0.2783704474337161,-0.2543027707152398,-0.15576174274285284,0.016818832461571696,0.19594306313409446,0.3087033915688827,0.35306767003621176,0.3549507825221643,0.347041174580873,0.36968586085991334,0.4552574963361775,0.5840607831620829,0.7031298757826947,0.7773622026907346,0.8119017857111989,0.8196993235112437,0.8130516554936511,0.7989324739922258,0.7803017333983615,0.7541494876466288,0.7173426530139568,0.6708556015983035,0.6169936653371425,0.553051699024068,0.46375255902387297,0.33377766634525863,0.18293844165563075,0.041742810869419666,-0.08305350774166355,-0.19908456405510375,-0.30663222964702436,-0.3984333528119553,-0.47072588529108955,-0.5240607295921585,-0.565642933795137,-0.5897087515011884,-0.5943812648020665,-0.5794569404370407,-0.5506157477779628,-0.5312470663908875,-0.5387300122764215,-0.589395364112008,-0.6530033467530365,-0.6394596579489942,-0.5971374964201841,-0.5734152713739187,-0.5530938959068331,-0.5258155015894671,-0.4940754819880123,-0.4439605924500567,-0.35313711555662747,-0.23262664556628923,-0.11326691240377657,-0.02066304393637038,0.028232748211249364,0.03940179554238047,0.0330577018667346,0.030611536680660374,0.05017195915616899,0.10851975073490865,0.21470987479613898,0.36611963875573206,0.5261257635694168,0.6521363941540598,0.7218117660774916,0.7221429216893364,0.6582302988288288,0.5614835195713547,0.4905461084460722,0.4649225303373631,0.48312143892635784,0.5203949645109529,0.546561975452008,0.5225314494887903,0.433536201983592,0.31127936013425833,0.19269046873451026,0.08749245970344095,-0.0017816631192946937,-0.08314080598212048,-0.1418943667766217,-0.13855720558439813,-0.06051376232101645,0.08018612547370169,0.25832664499528735,0.4239499846636445,0.5366228309058835,0.5912535507873141,0.6097927644509634,0.5980979823738016,0.5604226342976524,0.5054776311759477,0.4320530691927833,0.31862543940414534,0.12271312216579858,-0.18116883292760824,-0.49136133597223836,-0.6820412862459528,-0.7460910013848916,-0.7041054545834551,-0.5738408835485632,-0.40524575026223997,-0.25979481357541545,-0.17608671439615142,-0.136144982988255,-0.09298240492586585,-0.006435277874273246,0.12881403856130286,0.2588149119087304,0.3416384219148127,0.35152482405539054,0.2722608455388397,0.10647374924510758,-0.11261695790353354,-0.31189003607656024,-0.4292582713892113,-0.48471004726344097,-0.5276822517865634,-0.569461838477459,-0.6067641860444406,-0.6437612742826364,-0.6740071541131929,-0.6793922759147634,-0.637162325346474,-0.5274215443148111,-0.3593199653423189,-0.1631455368481206,0.008321166804648625,0.1035940307618835,0.14690348779695386,0.17165379038375544,0.18549896537413338,0.19134413256319163,0.17731443544354686,0.1338342874074864,0.05431636563999624,-0.04089250957813289,-0.10875514602360546,-0.11716041102996504,-0.06816538147918927,0.015071186130654895,0.11081908559582483,0.2030356758951131,0.2916039998494821,0.36246453524877714,0.41455964860218936,0.44798111098554155,0.45253027610039753,0.385762002168823,0.15896374776892588,-0.16998853011330134,-0.37361008443810273,-0.4444527582730237,-0.42670928775189415,-0.3289901735320488,-0.1420282261968701,0.09283676826038499,0.2912256762461541,0.4192271814204597,0.48025173894959317,0.4713335802994542,0.3977217027628382,0.2900699825380027,0.1920555756975313,0.13673015273503147,0.12373247046478672,0.1351317365563312,0.15548576159391284,0.17314210402931438,0.17657879556657685,0.15760499040867254,0.11997214074868838,0.08243381594511798,0.06465975322750567,0.07151820896939383,0.10189775796620092,0.13663270578767517,0.15367799646089592,0.13404798890467584,0.08007741857176759,0.013817588322917363,-0.04343445618777967,-0.07841217700952251,-0.08096521603372994,-0.051755467874980206,0.017341789551597046,0.13422467672517788,0.2902539144382928,0.4317557851594855,0.5099058197544385,0.5273485147103186,0.5028145236868624,0.44352965804894373,0.3418562704238748,0.18233234442636717,-0.040471796340455765,-0.27140378909957424,-0.4309384677809802,-0.5248487495516013,-0.5789558275250762,-0.6070700346499543,-0.6120909034157421,-0.593396531986863,-0.555616810488771,-0.5004467028833292,-0.41298878958614255,-0.2764657365306596,-0.08865478192527866,0.11988476828482984,0.2975376372135779,0.41145331873034535,0.4682188663277757,0.4815203461565835,0.455810321814055,0.40502557289244673,0.3477427492389482,0.2838948466955939,0.21667213854989595,0.14146761305619746,0.061362974260761566,-0.012999591005818772,-0.07386264292457574,-0.10388144888460468,-0.08926003025635317,-0.04172193949901541,0.020745623596526378,0.07509058654370307,0.11557299493232262,0.14061601148731184,0.1486772260206738,0.14648204668523324,0.1411894667979168,0.14583966071060514,0.1660583064883833,0.20563609571985458,0.24035392705191655,0.2539610086624019,0.2459672410950135,0.2139728783737663,0.17253220134046987,0.13867878390396132,0.10732354656825742,0.07937136730269743,0.05928215823357852,0.05097550265582691,0.039703490245157756,0.023909426322634483,0.033298531966673706,0.08321266604031853,0.15165165602988465,0.21376828727422273,0.2632456973883419,0.29373235259276037,0.3003426014621399,0.2984408027161897,0.2856582763822191,0.2613199531854946,0.24210968452919904,0.25112932147772077,0.30561339384425956,0.42112196499905064,0.5563990686226411,0.6444025651947636,0.6659566194400803,0.63942989899512,0.5866168633790841,0.5280934798190804,0.4656938082313305,0.3929047319127931,0.30203742005572903,0.20294392674214362,0.11393063739957994,0.050613562410475564,-0.004771429757410338,-0.07725547512363871,-0.17647969420213055,-0.291926113411232,-0.4076627536490007,-0.5090223127120412,-0.5878255893103506,-0.6465600711976837,-0.686654421199314,-0.7073728605953079,-0.7124062982106582,-0.7010295982985759,-0.6613222374703853,-0.5684729291919222,-0.396474952613928,-0.17024722990314312,0.03382490329759395,0.12571204408150535,0.09828454984365165,0.01366491113761265,-0.05562511007997894,-0.07332171679182407,-0.03711811417961869,0.03896024183438725,0.1276137341791244,0.19230302423528006,0.23087734849696903,0.25372321882242305,0.25569133981955444,0.2286193669105325,0.168056489983405,0.07877609098958895,-0.013390495254622171,-0.088419753711872,-0.13770663240267783,-0.16264476744047612,-0.1658251365826371,-0.16903692282065283,-0.2263399100554699,-0.3208414251854623,-0.38654232283328027,-0.4171524306017115,-0.4275159932580458,-0.4276285018682546,-0.42409922571318737,-0.420740025466459,-0.41783574939994467,-0.40075054816738337,-0.33163141922050743,-0.21054216606445447,-0.08489501667792332,0.02346661933275308,0.10851197485526114,0.162327184686828,0.2054413309549111,0.25058685610299447,0.2961279519869828,0.3319514731330395,0.341372921536668,0.3120843001257076,0.25722168531799183,0.20240116990254423,0.17140638839963457,0.1790832741431609,0.23889863723467375,0.3510111131792309,0.48241388591103396,0.5820479774877904,0.6133887987747231,0.5971948759415191,0.576784235700413,0.5676347079259246,0.569251185481861,0.5747872316577886,0.5736581910884536,0.5586808280904303,0.5264166174102308,0.4752615368910008,0.41098156959807663,0.333363874803968,0.20830158187325187,-0.009934710866427622,-0.29043559408161745,-0.5075176335676128,-0.617322946527755,-0.6525023993913805,-0.6415274438796542,-0.5971126127084572,-0.5154364770063645,-0.3960883690379338,-0.24047854919954337,-0.06468676849693368,0.08963435891068762,0.1928064448171838,0.23526776630673862,0.21905367839291165,0.14383122802571488,0.0049509915111884606,-0.17573275667904587,-0.345414870524281,-0.45738227785003965,-0.5129494964050096,-0.5254812797228243,-0.510841431538376,-0.4665345257280129,-0.36185206968308126,-0.16894950408861886,0.08965427786982286,0.34020621041411236,0.5270209042863802,0.6429391597317752,0.6852840830168812,0.6535459770561077,0.561321445725764,0.4445279644285671,0.34203331653517244,0.26992810840498815,0.2071456294037571,0.13109321952592315,0.03563505208304577,-0.06679311280465036,-0.15832944827269865,-0.2315910637349468,-0.289316289397105,-0.3214485327743704,-0.31553737621222977,-0.23915277295370818,-0.05261449828853007,0.20685925033023914,0.4036010973260488,0.4923196482100735,0.5045648762584488,0.46357120131218055,0.39149751139987776,0.31769408676056266,0.2725621086491511,0.2690957583786759,0.2956088693129074,0.32311834539008416,0.3272181803086998,0.3030767627262891,0.2633604700970321,0.21676446702372423,0.16501765051220912,0.10490487063390712,0.03346792316857015,-0.03238162156868217,-0.06977251008177669,-0.061149746453397484,-0.0015047014438406925,0.11599976307199025,0.27736598574167753,0.4139428718358755,0.47553654806225437,0.4780220915321216,0.44167248346383936,0.3615588609988581,0.16147654227501376,-0.16550355116743665,-0.3408330127429032,-0.36790894574372285,-0.3377672033554347,-0.27816213103195614,-0.17726259847321832,-0.01101408696012029,0.0905009733379112,0.058733987166582395,0.0030334312834798356,-0.02799787598571187,-0.0219417199796233,0.005357465684745719,0.03508983478640052,0.055804777135609926,0.06943143600173078,0.0749286932113704,0.0632713680191917,0.02499513624336522,-0.04126396990313979,-0.13097741383701866,-0.2343829071873035,-0.3420768203118922,-0.43665187605468,-0.5094770827851294,-0.5572389149592692,-0.5775088987215241,-0.5642904314365723,-0.506406544293034,-0.40671405063563804,-0.30599981638526,-0.2646491435184947,-0.2908283877540965,-0.34257936825971763,-0.34527961803573703,-0.2820844914746223,-0.17701915391049713,-0.054057209564545884,0.07296352790552751,0.20012535099743117,0.3399871239165869,0.47768797821439135,0.605609199439385,0.7139608169171217,0.788550292247371,0.8212426253687809,0.8114382665508998,0.7589405956010326,0.663997213776354,0.5252239108408476,0.3677197288861408,0.24152338657098513,0.17356306318254072,0.16045435950818626,0.19649894955915775,0.2552433462977667,0.3028015723002977,0.31782162831950433,0.2963572703575312,0.24581441889557468,0.19725454549137272,0.17067269851105804,0.16069408506734303,0.1575103482514357,0.15872786065368372,0.1506771105707088,0.13162562166095612,0.11648614502607287,0.10456848965843231,0.08435114505870374,0.03041042402212451,-0.06216888826403698,-0.17553849408361583,-0.24799165616207872,-0.24552613430241588,-0.19113165899393905,-0.1333522568612682,-0.08786812646543031,-0.045620620660275585,0.011833683834943503,0.08218689662723502,0.137683997275087,0.15408906796928773,0.11331818559547016,0.03324383295208338,-0.056054052900968716,-0.14321113262850269,-0.21861378324139555,-0.27416913504053364,-0.30890536034187405,-0.32317101958607625,-0.32381103136431844,-0.32807165023923224,-0.34987702875461507,-0.37425579301693623,-0.372979836332334,-0.33244017443296364,-0.2719689148675088,-0.2067953608211774,-0.12944768131202325,-0.026592191602935175,0.10110934158540265,0.21266175363934192,0.27525985638283057,0.2780936206880721,0.22551562689418653,0.125195143547753,0.007537691116405805,-0.08972824261694869,-0.15662948195039295,-0.19804493130657938,-0.21544073196731692,-0.22060519103692164,-0.23624843206427962,-0.260372943620323,-0.27736438152500126,-0.27905177395740044,-0.2565473431435796,-0.2073872343974947,-0.14745780741798326,-0.09819842640909177,-0.06643393897542044,-0.045621348081946046,-0.017405052951381762,0.04209594426373743,0.12891573573036563,0.253278834395237,0.41531574580134534,0.5755394214399133,0.6798347720999484,0.7231939631536423,0.7241611913880611,0.6930964460976015,0.6286270604710906,0.5359772264519531,0.4525205281224114,0.40039336700835454,0.37912149365986214,0.3765628492952721,0.38213887740307956,0.38411616832306805,0.3733075313336172,0.3410802506193551,0.2871801044232592,0.2190274557532942,0.14679202731294613,0.06974665101488849,-0.013702111548376065,-0.09654482586885521,-0.18932212130417245,-0.2896716937362438,-0.38949261270950053,-0.4768012206936844,-0.548666087040445,-0.6030391448298116,-0.6469711623191051,-0.6776378101890418,-0.6850145559450509,-0.6571125879644882,-0.5686340178133824,-0.37909480295085907,-0.10797745358501491,0.13633074282068805,0.2909318123046523,0.37133798295620674,0.3885671598199947,0.34352726436912007,0.2340695814189593,0.07410296267187202,-0.085214672243145,-0.19755240079996905,-0.2606906610300659,-0.29021449708325414,-0.2976753161652508,-0.295996787537674,-0.28937985161777086,-0.2768389303410825,-0.24404494996496418,-0.1670226400923568,-0.05161093031333303,0.04831131528279281,0.10737649089169624,0.12834112741362572,0.11997717817038175,0.09785244934335906,0.05814857362675485,-0.011431911233809046,-0.10375229141436695,-0.1864480978323625,-0.2215739854949691,-0.19472874560875691,-0.11137267500431366,0.02296871214751556,0.16490378296587635,0.2777897252508978,0.36317529509233376,0.41782166506563206,0.43213574192366194,0.41015008222407956,0.36140095134590167,0.30005266268123754,0.22676097684507943,0.14396968207100944,0.06653650501736795,0.002415318367981361,-0.04158877399635499,-0.06065450165534892,-0.057926686649885296,-0.029818962704302086,0.016560341887401932,0.06839774477066675,0.13350108818601866,0.23475813935622647,0.38610567326323697,0.534723773208682,0.6250806885110989,0.6612710307213217,0.6647481085211845,0.659228877853152,0.6604493762452885,0.6619343703268105,0.64686704442817,0.6102252574952084,0.5601278635504137,0.5079212161393428,0.45290568875514853,0.3865529041978326,0.2942354732499338,0.14833182168582734,-0.10954750896241904,-0.47553763884102396,-0.6998473713807793,-0.7630913175217948,-0.7735970220239261,-0.7675558332254169,-0.7494748449832437,-0.7088472770206607,-0.6311394762036084,-0.5166987268401296,-0.3828400993816513,-0.2604370128281799,-0.17268153580704537,-0.11553673953102649,-0.08939204799681538,-0.10040385352878393,-0.1090672260185974,-0.07660583844552071,-0.005180296744277521,0.0811251295271149,0.15693372703923344,0.2096882597664682,0.23769064884430638,0.24429381369915731,0.22687679409132946,0.1803019903642621,0.10167814321949553,-0.024913299040013024,-0.16422637679315918,-0.2713183927040879,-0.35088690658200694,-0.40959558764962184,-0.43920117788568924,-0.42789468406487824,-0.37799445054645564,-0.3146632341958789,-0.2702852345347107,-0.24621932685820022,-0.22952726467267917,-0.21441753111088557,-0.18115555520114707,-0.11226883836111642,-0.02078089900128176,0.0639787706698636,0.13137797427731615,0.1735422104422164,0.18804451924961152,0.17970963229119552,0.1606404798672436,0.14497714316477858,0.1462213223042798,0.19404466813828405,0.30727460486871805,0.4773776206823554,0.6446435028919365,0.7388003569125428,0.776770201507085,0.7836931145557993,0.7672589748513422,0.7298823298236216,0.6751811159040936,0.6065303172311954,0.5235203550401812,0.4332815618653907,0.3397813188325065,0.22328355101711625,0.06456532702895204,-0.07087958889238012,-0.1612064171032718,-0.20885259110051796,-0.21169003922119561,-0.17955274416535652,-0.14080996316720887,-0.13679099329154287,-0.2123580195528208,-0.4047383357250085,-0.6568296025568549,-0.7996039030341265,-0.8283928067878652,-0.823949302857714,-0.8189433566779596,-0.8131243102235698,-0.7845428348039503,-0.705394822418665,-0.5525441339206665,-0.33796227584652067,-0.1219336967630284,0.0496330702443472,0.1718055646647611,0.25564401479560095,0.31017084271904116,0.3405365444461931,0.35299330483441704,0.3577057260757016,0.34962281677759266,0.3354171681113826,0.32242974909332406,0.3013206640821992,0.257931145474506,0.1925587045006359,0.12444108203655728,0.06063691508178922,0.007005919400624337,-0.016635243435536295,0.022221756013651978,0.11357472704180438,0.2023230100106634,0.23852961792612554,0.21835015065549326,0.16723948554637003,0.1279420743886303,0.1560801766261585,0.28401587362682895,0.4790312985691454,0.6349304612540992,0.6939261579296473,0.677832304818048,0.5988758102961308,0.43836986375697184,0.19247407058610919,-0.05682729640569327,-0.22448577012294973,-0.3113142428657679,-0.3423140863285852,-0.3342696705060147,-0.2884135529041829,-0.20393080699738586,-0.08320119527241723,0.06225018988101146,0.2226936793773883,0.37242740641709465,0.4485273217072314,0.4208365276687452,0.315179827504974,0.18323870869736097,0.07383449858344583,0.011288354079631807,0.014589951398126884,0.09741344034241854,0.23847345891935395,0.3667086440430674,0.43233019959628227,0.43735253940056423,0.40037535298502946,0.34648315361271204,0.28795216701894016,0.23051029967328693,0.16097020336819273,0.07762924451057723,0.0017643528302822215,-0.03004854848170233,0.007656545462810856,0.11532266835424897,0.2638616505877258,0.41984798230757614,0.5499924854640996,0.6175227509506648,0.6170674246680572,0.5852398706997373,0.5526799072941502,0.5272615526112658,0.5068308006785003,0.4846600493177842,0.43687371262785807,0.3027094296649629,0.019427451056493135,-0.3196227668221622,-0.5746295791754614,-0.734969095857948,-0.8209778914690263,-0.8492690112669422,-0.832509137589201,-0.7840053445602518,-0.7206885468592128,-0.6581097331528836,-0.6060863537177179,-0.5612099943242752,-0.5103820571117612,-0.41702525744811486,-0.27288276142976214,-0.12890819299349396,-0.015114998765568967,0.07297005175343954,0.14676425227443418,0.16553651482178022,0.09171051797161983,-0.03458725519830622,-0.1531117472989248,-0.25654279686349757,-0.34072497796056556,-0.4032342486301119,-0.4425229797667164,-0.46272734365821905,-0.46562697848581525,-0.444761494438197,-0.39334171271659696,-0.30938520285240445,-0.19539615955033582,-0.0679392935039049,0.048594386894254896,0.1491058303454409,0.2593538933456391,0.39973842827210193,0.5560421537835285,0.6656616649833716,0.7176501211494911,0.7534953235114876,0.7808032946550765,0.7881252816813055,0.7580829454242713,0.6639540701220461,0.4730546821512905,0.21012462904992224,-0.002819108092549525,-0.12772185396224067,-0.20317928837608024,-0.25883200424842634,-0.30673713000984065,-0.34146107823347693,-0.346854119058688,-0.3120773319391699,-0.2590077957477769,-0.23783675804332488,-0.28979421984358633,-0.369377347405531,-0.42907146445909444,-0.43193144393276456,-0.3555422590818545,-0.20852064328653125,0.003023815078565543,0.22573143239890936,0.400815868476651,0.5200388090563561,0.5967706904424515,0.6410981791624747,0.6625183924628513,0.6673834903119474,0.6565077609192451,0.6334191160782503,0.6015786726857324,0.5603017485884492,0.4970172189916195,0.390350075142558,0.21996494428966434,0.01396284140572404,-0.13376458554466258,-0.2616846970247213,-0.4464648975107907,-0.6539987837453158,-0.8008045354716401,-0.8723047295989866,-0.8924272650899688,-0.8752737484758601,-0.8143461692784468,-0.7112390295051676,-0.5998246921015218,-0.5116809348381572,-0.45316284928678435,-0.4077542433248347,-0.35936758301560107,-0.29264191055771027,-0.2155288460410134,-0.15510394876185699,-0.11793598661022328,-0.0980570432567113,-0.08810703815903373,-0.0852097842914909,-0.08112455326072592,-0.06728463485621541,-0.0412521955430992,-0.010068782445861141,0.010541454311997775,0.020352279423052205,0.016998088463699462,-0.0035613832490004613,-0.049319733735523376,-0.11840354785353192,-0.17777006023381786,-0.20316549361623024,-0.19873825335567233,-0.18131146258784658,-0.16950347680789726,-0.1775478910773956,-0.20530848120465814,-0.23578485619181325,-0.2531385618366643,-0.2514381703545477,-0.22887104858884616,-0.17872769275857736,-0.09771062180262134,0.016675149260891718,0.1539274537301547,0.2602890027349046,0.3056474906679703,0.31652276028371223,0.3144905988682269,0.3114615817813122,0.3114581401801844,0.3124022941238182,0.309168700343811,0.29776331617013246,0.2710134959924447,0.22860977716939118,0.18242894949944635,0.1437635818450705,0.12273197802567067,0.12273873284173527,0.14607742588929218,0.18416118027630568,0.22274634845379807,0.2360788078641672,0.20296321749175192,0.11896677855321502,0.00019422330083391487,-0.11214180173187933,-0.1725514653589171,-0.1767856750028577,-0.143581211836878,-0.08027925985216995,0.005770912519376614,0.09583733055852137,0.15720349169742603,0.17630329007673576,0.1603680984693101,0.1250408215904002,0.08523254494011406,0.052735850274138046,0.03324233888152986,0.02878486046114873,0.04611815762309136,0.0854913790379532,0.14148139363404655,0.19101030132358315,0.20925337323709028,0.17925209734692005,0.09345581208662194,-0.04135408113629205,-0.20084932273554407,-0.3377664427468388,-0.42578313193204737,-0.4625875307168347,-0.4634907965233435,-0.4443323046761465,-0.41456166426612834,-0.37363336450510576,-0.31831124445920034,-0.2534831250937027,-0.1921414429035373,-0.14971473921756578,-0.13582013728587378,-0.1361547109012254,-0.12186236320925041,-0.07941746477715858,-0.002589560868586204,0.1111866423923112,0.24365346221673276,0.35283261702204943,0.41825955872090825,0.4433604831289062,0.44282910193399155,0.42210778793425996,0.3927629214571225,0.361108691304158,0.33055063310506005,0.3207495352220199,0.3373996337702667,0.3670955688796143,0.3856427450926052,0.3873582254850948,0.36184901417105503,0.2907798360072385,0.1428475726202397,-0.0518811243251586,-0.18485245837960854,-0.2219544196685842,-0.19240662471347214,-0.1325132483493679,-0.08565434526225056,-0.06738168350353654,-0.0678659135139739,-0.07985739369752533,-0.0873056721586192,-0.08905117560210236,-0.10409278324739953,-0.1483933238770551,-0.2214501063046792,-0.30335423085336,-0.3776695791410758,-0.4150951911597124,-0.3779890283355532,-0.22151481136112186,0.04626714306944539,0.3028529235417365,0.45253660128724404,0.5190682281749863,0.5360944410712273,0.5209752937812137,0.4827454959889452,0.4333446211636991,0.3900662201619434,0.37159154252956045,0.38011902869921427,0.3925778273403562,0.37007335842927996,0.2721104205292451,0.05957370451798306,-0.22714482119423368,-0.45701135706354085,-0.5756587551998233,-0.6158667726567236,-0.6130740674805552,-0.5893840150440648,-0.5571452148848437,-0.5289982132525284,-0.5245365840882421,-0.5448852549031528,-0.5481468537351215,-0.48864098162618186,-0.34839861380070397,-0.1330087261682066,0.12482630929206481,0.3238150060173943,0.3817384846677631,0.31788340033109996,0.20510764116334215,0.09944900335410328,0.0023392134186069457,-0.09673281786532116,-0.1960138623523295,-0.2722964787205744,-0.29552617805658987,-0.25088820265732636,-0.12787253501849832,0.0638592046239366,0.2899235480378194,0.49442111159859103,0.6313014617732845,0.700083025547263,0.7313356786031375,0.7453312910751108,0.7513595011650287,0.7449759095897174,0.6967736307557163,0.5072936424048076,0.17060874546178376,-0.06317128581204604,-0.17650627446177386,-0.22241897517143122,-0.23252117431241587,-0.23456715207644313,-0.2676098589211939,-0.3520899876773378,-0.4646352530733981,-0.5576395724564533,-0.6221637558535524,-0.667888174520274,-0.7059360729008245,-0.7347766794048095,-0.7498010167251237,-0.749666185880619,-0.7309069642523238,-0.6536056824586591,-0.4502875413027589,-0.20480783675475855,-0.043115104089474124,0.03136724903016006,0.04834712263751816,0.026351809918965265,-0.01881223670635629,-0.06647737442699662,-0.09443742296859156,-0.08659504805025044,-0.05365036777164209,-0.0192514566475898,-0.0038698047837110072,-0.029966031427776964,-0.10864910333665319,-0.2264489277040449,-0.349832032434842,-0.4288253779872021,-0.3990704864343664,-0.1528392894742663,0.17340259953032716,0.3487350587130987,0.4281882139901867,0.46571399220219545,0.48277260541118333,0.4855797583769399,0.47442464334191425,0.4487877308215422,0.4115495880419886,0.3720835788740667,0.34108125350920543,0.32624641605875304,0.3198536750611659,0.30990617431340695,0.285432789425988,0.2515933965604779,0.21885845657162453,0.18516301546275235,0.14807748445335864,0.10447427878561409,0.05596788618339084,0.01245704363514189,-0.02171297674939965,-0.06291985724479197,-0.12073032830120743,-0.1913428539666978,-0.25804470231845067,-0.30537530824415426,-0.33059773892445676,-0.3259633055314338,-0.2866722996056824,-0.21206754482980544,-0.11161604459001757,-0.006590662579584589,0.0783488014482995,0.12490621865037452,0.13042111608606394,0.12165574595907923,0.13107550398688042,0.16420123342692522,0.19865932284391097,0.21635638981447922,0.2256145429849307,0.24244676588919412,0.29083309446048544,0.3771956117537487,0.46037014211145405,0.4915173194980256,0.4936111674915725,0.4990449802714792,0.5252441163765409,0.570681413878006,0.6189948709429067,0.6536317736047056,0.6660822809691435,0.64852732092005,0.5869305633028027,0.4304630544488065,0.1397712334326168,-0.17580240965168828,-0.3962929710274141,-0.5307064005792931,-0.6200117131824325,-0.6840746451568713,-0.730284141771269,-0.7477478826777602,-0.7215863235180324,-0.6318702244168406,-0.4407986263301483,-0.11679136946057589,0.24802544741621865,0.48475161261266825,0.5825423033932192,0.605244155218563,0.5960041194891788,0.5811497475230348,0.5731960988158245,0.5709979059703701,0.5708722244219059,0.566160075848085,0.5540749112270384,0.531529132716498,0.49348643894725136,0.44691709785700934,0.393805552921933,0.3256102149072065,0.24050626707481457,0.1439524477687798,0.04532576301608844,-0.0392034640253978,-0.10492655654904941,-0.15473561087973836,-0.2050870003883166,-0.2613312277281141,-0.30857957218827137,-0.3381731801412975,-0.35756958823499335,-0.3915196069104026,-0.44112032297156206,-0.47661702186640503,-0.5115187847467744,-0.5543376343077152,-0.6004777647870293,-0.6383329654075434,-0.6621440670266748,-0.6666527624945937,-0.6490384231007874,-0.6055271341035485,-0.5325816268652804,-0.4271505364973354,-0.3191397061546592,-0.23675663629926855,-0.20017489727529286,-0.22264822191140488,-0.29059014546737677,-0.3724137838328794,-0.44403030969439033,-0.4898152346783579,-0.5163320535199978,-0.5349326633167746,-0.5477105741170741,-0.5403242952068479,-0.5025922267987523,-0.4224184368865759,-0.3123391942313946,-0.19997880423337802,-0.13854881653672657,-0.17194565082260427,-0.2950616180750405,-0.4393000191103813,-0.5435907969499131,-0.5920288297475716,-0.602047984711018,-0.5889582208083587,-0.5422443121274528,-0.4288206437704423,-0.2029607377499471,0.06236777751405109,0.22463688952921282,0.31117273895392233,0.38280264845031425,0.45620403931002473,0.5352512047503126,0.605840761912377,0.6539919622583478,0.6750555775702609,0.6706947827457892,0.6493761385683773,0.6143691769442097,0.5754804406128904,0.5424270978898128,0.515648181614032,0.4840615341670028,0.44046772329052025,0.4117412948844097,0.44144626064130305,0.5208512928073403,0.60018140899837,0.6279717041457695,0.5870550248415615,0.5049454169039769,0.4252165135747236,0.3805427535156588,0.3662303808021941,0.3535185429868478,0.3290496945272985,0.29226933222942925,0.24662663951636304,0.1813446846170296,0.0849452849547803,-0.058530644476194923,-0.22524118275062283,-0.3578930642008006,-0.4320252553914072,-0.45189655429495607,-0.42722004493716126,-0.35786981050835953,-0.23962942964224831,-0.07822295764140377,0.06453734509351944,0.13639167527124643,0.1534332685695617,0.13891974720875153,0.11831382176395218,0.12624656241635213,0.16083299046721194,0.21212829231726274,0.27223223944116903,0.3231773793186432,0.36013289143089955,0.38977148716086635,0.41370936891086024,0.4291636015340472,0.4314182730297866,0.41591154769629274,0.38289692631569766,0.3306320822662319,0.24860812424741252,0.1309906457531498,-0.00546706291748771,-0.14723105210287019,-0.26434763337276646,-0.3447885794571487,-0.38116054065771005,-0.3777504654628706,-0.3555257769825514,-0.34400783540958674,-0.36241978807209724,-0.3974019013655006,-0.4212607527877883,-0.4279285514505795,-0.43858414159767906,-0.4629519941008819,-0.4909018176202174,-0.4833604319536232,-0.3837651504253268,-0.1843040264556895,0.02057385376548896,0.15145559188162824,0.21553196717326262,0.23588231068330026,0.23489014351560364,0.2272685946794282,0.2092314152286334,0.17797814574674373,0.14096908924673976,0.09535298854350925,0.04074865000580049,-0.013725322965284488,-0.0559889556345913,-0.08156301728220308,-0.09079573573498428,-0.0857875198515445,-0.061095992210795085,-0.019863707454457043,0.03203240467986437,0.09507209891092103,0.16549999024589984,0.24438692593973443,0.32772666285556445,0.39945812251290275,0.4528571143467485,0.4877716681444236,0.5063683274067861,0.5135969296464172,0.5002153679984916,0.4495900295992465,0.3330354269128276,0.08210508086675203,-0.320198006639231,-0.569398494006295,-0.621334629035738,-0.5794049657313793,-0.46527641703453754,-0.2719492066891288,-0.019234665592547055,0.18853883864475549,0.2792553663835452,0.270265474463199,0.20125137211709607,0.10830278494400816,0.01665445351002664,-0.06103571658657797,-0.10847246167244423,-0.1137602171903652,-0.09636777786388036,-0.0837342928949502,-0.08731732712790836,-0.10331226709709052,-0.13114018047138784,-0.1790801515544972,-0.24655582852793062,-0.3161334144540146,-0.3717775036371407,-0.40295635632616633,-0.3944357682162569,-0.32913238245551696,-0.19464177014629278,-0.007078851152583385,0.1737033680997321,0.28417050107557884,0.30502223296330633,0.24410262716983303,0.13864891805485485,0.05289842040174114,0.012605656349979729,-0.001994054904689632,-0.006428352465911706,-0.014718182323925381,-0.044601468649329096,-0.08158719493883877,-0.08925726629480138,-0.04886640457989669,0.059720161241183525,0.18415524097682887,0.275919913026621,0.35035581513474034,0.4119715199461122,0.45302640014718526,0.460833885365128,0.42954274042643376,0.34139256950448205,0.20617369380960535,0.08759378941026966,0.04643627239865654,0.06869052358652047,0.11342452189405179,0.15249662901503455,0.17797413352030736,0.191354881407284,0.19899561122410564,0.21124573156062848,0.2367622155012747,0.2681618732288728,0.28939553044213745,0.28171078264105437,0.23946629542512793,0.1800471959990108,0.13042346831321752,0.10591332680117371,0.11306139742967419,0.14305583520869863,0.17647003581886875,0.19229866307695606,0.1791648529771309,0.1375246486605937,0.08347245737954305,0.03195256625492653,-0.009970221221807175,-0.04428282964555681,-0.07667115836293785,-0.11649535270323315,-0.1653418973474323,-0.22891772183882045,-0.273720338852627,-0.29019122868176883,-0.29164257149949124,-0.2759088331313865,-0.2505520359401557,-0.23092367838144298,-0.22895188249828974,-0.25278556834770105,-0.2865209931595558,-0.3012294652895836,-0.2849827268656744,-0.24249414319386817,-0.1797585836843401,-0.10921583261560378,-0.04443214963379371,0.000708080522648568,0.015518032712773234,-0.003942109511546447,-0.044450962756358785,-0.0882517260737449,-0.11860764674982686,-0.13372137597751946,-0.15198931174295474,-0.1847260883510162,-0.234136930516459,-0.2977566816009692,-0.37791071422702527,-0.45913346117831344,-0.5108254506931167,-0.5178580693512874,-0.4954215469844115,-0.4522524457970883,-0.38161201626759483,-0.24427718528462025,-0.011509753838184643,0.23387385338231237,0.3672583859914738,0.4010221882670869,0.3924608396629416,0.3667098688664155,0.33487710186824,0.3075221770991014,0.2899659694613907,0.2843616154475932,0.2921644046690905,0.31374419875916537,0.3423303475282923,0.3586753767503966,0.34911027207945683,0.31900704522190343,0.3089333296212356,0.3479248682126601,0.431283895767639,0.495896920391843,0.5054149283187727,0.47942141041727826,0.4446860447667584,0.4253282486123434,0.4357657617488434,0.45642418098738324,0.45475818827665376,0.42292418622183886,0.3798923298442805,0.33212469770507497,0.2704284700865695,0.19899884860764566,0.14233151060818403,0.11458038366742528,0.10587713141526767,0.08968710887293835,0.05079137561055475,-0.02485784679325081,-0.1606682289859485,-0.36325100752441486,-0.5712439976672341,-0.7024104611551072,-0.7450665036756225,-0.719129905272342,-0.6366063123813608,-0.5263587050172841,-0.41483305543858673,-0.312061291916133,-0.2251280148253837,-0.15807977299669917,-0.11027777404646504,-0.07165418198562103,-0.037825231060025215,-0.01268001153534349,0.00019012079869615845,0.005921837312476408,0.010718057129638376,0.014337157963486198,0.019918121963378374,0.03259738285473298,0.05166822357288181,0.06974850212489857,0.07657394222694307,0.07085235559779447,0.06309209335950271,0.061156582650162446,0.06984620652167615,0.08539025286692808,0.11293012007948201,0.13511858933696952,0.11019396766074681,-0.010320634680366694,-0.20872084039830657,-0.3603501501278161,-0.4325543852898501,-0.44592462645314374,-0.4149585382188909,-0.3314407239588643,-0.17982576836624167,0.02366012958062968,0.22231839982157783,0.3576137652180039,0.40974094263916516,0.40421179363692206,0.36551940124365345,0.3193743825169446,0.30533052927580184,0.3205715905139626,0.3378235505925854,0.344771705426927,0.34851171861844576,0.34483296404188024,0.3289698501788909,0.3158944008632194,0.3305337116087623,0.36075724556616773,0.3917362153460387,0.4072751284297002,0.39268547182532254,0.3439374473503795,0.27940088453620565,0.21799772276879312,0.17563518801660652,0.15370152534112724,0.1466724841937307,0.15582964521959608,0.17185699935781631,0.1697605536269675,0.13140887293292752,0.06955657160059586,-0.00048217797290135543,-0.06522535903851724,-0.12113684354359222,-0.1649412846590498,-0.21221472035203132,-0.3025579503245676,-0.47370951854019955,-0.6831706046935528,-0.8174398108313207,-0.8567074252560036,-0.8460401244979366,-0.8107439201581931,-0.7456521750493834,-0.6037425755255355,-0.3398534400645911,-0.016127774162757107,0.2269235623826165,0.32922006382920005,0.34085653084160367,0.33265585718300833,0.32968701527160266,0.3160801490991176,0.27540827108260596,0.19719289606850193,0.08608693298816462,-0.02894134134605418,-0.11601300207347476,-0.17104537245425444,-0.20658230359095803,-0.2350364535252569,-0.2520308804940842,-0.24086655473189106,-0.17927531252807818,-0.058763416300015914,0.12533505680015936,0.35034346106685255,0.5536606106885857,0.7018752778657216,0.8014433708496975,0.8532252416461062,0.8658651066156625,0.8561245408457064,0.8385199154196128,0.813693319847592,0.7696290599889456,0.7028514882258298,0.6344916351991229,0.5821673296861569,0.5452895778767272,0.5064813099748635,0.4431355566694555,0.3235234537395908,0.12315853584433545,-0.12742835501219027,-0.34323378185558967,-0.44487719885702,-0.4577388732130402,-0.4129664060338642,-0.3297124888252378,-0.24179905057677986,-0.1723218346146474,-0.13174687208286537,-0.11122880844687083,-0.1092477122645471,-0.11654261471157665,-0.11402240248017391,-0.09589833022346692,-0.06878721822301734,-0.04129709588409867,-0.018268765191580074,-0.0008648752495773675,0.00801877393775385,-0.0031927987477896255,-0.0375649020832899,-0.0768334816862796,-0.0905391122525604,-0.0652715639638049,-0.019052544377509032,0.020390522059960715,0.029324491852954434,-0.01365312748014401,-0.11985708577400873,-0.2684515436145347,-0.4031793496072561,-0.47970019825917093,-0.4977339140515054,-0.4592051862318904,-0.34828302535197636,-0.15141643077892747,0.09761683216770001,0.29636273088643417,0.3655479317269813,0.2937400789504297,0.12155264173312536,-0.06228341952864048,-0.1790305405759373,-0.22255558180748883,-0.23400987434393028,-0.24089410968949146,-0.2564379893120683,-0.28205489865889843,-0.3064957158673465,-0.3180118902714519,-0.3149359012653586,-0.307957306936626,-0.30764681823529094,-0.31795692938483766,-0.3322083470502402,-0.3414029015643002,-0.3511684429896659,-0.35691433833411745,-0.3446379554673833,-0.3001833053880088,-0.22141192624443848,-0.11260008119905644,0.01101762310013891,0.13856297411832486,0.2494992941206495,0.34627699310505405,0.44215740477164217,0.5391119600846253,0.6261516242102387,0.6905838024328755,0.722211370180469,0.7057156646033489,0.6452072456468222,0.5721743561271638,0.5189263917389367,0.4935592504244008,0.48346218703438365,0.4879292067431954,0.49941072727456387,0.5059775552029121,0.4916309398792255,0.45363988284032797,0.41978123694461666,0.4243120444096654,0.47989912862483974,0.569643135236431,0.6619402723728813,0.7264573762957895,0.7406372664243022,0.6775085568458626,0.5086471153331801,0.3083946312026849,0.18127822804859256,0.13016863333146586,0.11531464618542935,0.10837799100534125,0.09611917337145665,0.07939502266326016,0.06778620070388891,0.06344807030703471,0.06382279723066611,0.05999911256749713,0.04210261759451274,0.009619731925419709,-0.021132306929706687,-0.03300854208150683,-0.013549197309291409,0.042438809338661884,0.12233109602901486,0.1996388768466682,0.25404399098808095,0.27529788126243426,0.2605569395616226,0.2084482146560547,0.10003275963752345,-0.07798762651533334,-0.28518282447708604,-0.4322822947586354,-0.4912020429110269,-0.47781142151516515,-0.4057242282493051,-0.31128004579020163,-0.23217475971255952,-0.1777103003427477,-0.1552182412414502,-0.16839692482134,-0.21096242153991349,-0.2578570256264022,-0.2944417531015284,-0.31062613491846086,-0.3157975543580757,-0.3239076465017662,-0.34136589419237834,-0.3576370153926523,-0.35261066645854533,-0.32568977575056246,-0.2850499613436161,-0.23311872040724196,-0.17000175129281683,-0.0888809532990223,0.01530552810095997,0.13495547897081944,0.2491513009375621,0.34242108915260877,0.40769521534034475,0.45272234030682257,0.482034963440748,0.4926319196543712,0.48642545954130034,0.4653906902377006,0.4397740045824717,0.4151378511791037,0.3899340362475868,0.37530415514713783,0.37796057135381195,0.3995540677958995,0.44201571392885136,0.49615488257999185,0.5359255357781698,0.5371418697399315,0.4933033866040661,0.40576079082179506,0.30637266190778667,0.2391864449383628,0.2158095905632009,0.20508040003187245,0.15872952669635804,0.06097390589620465,-0.07762774443108003,-0.2156163872644477,-0.29963814177608517,-0.3182141408686802,-0.28418035038196837,-0.20539469160754117,-0.08800852703032434,0.04656457506583991,0.1600155563672734,0.19548281194092096,0.11443982334988227,-0.12283733295730496,-0.4668743762533413,-0.7046757241174372,-0.7973221376496543,-0.8164199378168047,-0.7847700123485416,-0.6783717891305572,-0.464747779190294,-0.18393768014777165,0.05385412672113472,0.1827678925351154,0.21617993950245049,0.18477608650944122,0.11449700683441615,0.028420982532121122,-0.06148812844388651,-0.15333903201292265,-0.23614043286517267,-0.282392747987274,-0.2766909147156222,-0.23633737014725112,-0.20463385520923005,-0.20750063783697892,-0.2474680399379992,-0.31418581694909903,-0.3842068865265321,-0.4270326565384118,-0.4397287686864658,-0.4222027583859975,-0.35593504740664117,-0.23717802273446745,-0.10399478020238366,-0.003329009091526387,0.050765579034065283,0.08868934921181999,0.13175533395798242,0.18707347076947606,0.23951952471967058,0.27229621225716105,0.3045599874173692,0.3553461415441193,0.4182643413385531,0.4742272740387543,0.5027381152833831,0.4556390326541626,0.27621749459270334,-0.015014203668711047,-0.2662343755236981,-0.41442945976498535,-0.4726895379873642,-0.4507526742994987,-0.3296620314452375,-0.07546318230990771,0.2771882943228927,0.5714763360440847,0.7256526453255663,0.7808754530524535,0.7874426526892094,0.781208068734308,0.7865538306614337,0.8111154262222436,0.8303571790401169,0.8238521701447185,0.7993123079774944,0.7727768160683313,0.7424108503896016,0.6969254215669644,0.6201133682443961,0.4916787334373915,0.32080904529592036,0.14540307126986374,0.009115074718801193,-0.07366494445904596,-0.11536190976315777,-0.12550002674455837,-0.10992014870382076,-0.07198274232229217,-0.03452264402063671,-0.016645592401706356,-0.027789018526616378,-0.06335283627636873,-0.1302682693810598,-0.22657834859501716,-0.3364323044063892,-0.4341285442042564,-0.4951038422713813,-0.5068423840264056,-0.4762208659452583,-0.41458719211799266,-0.32928383578980003,-0.25172822761088254,-0.20691273487439146,-0.18833509148898647,-0.18063028827740182,-0.18017775110664083,-0.18073628330226527,-0.16891698835430274,-0.1418817600299402,-0.09778082075297287,-0.030945493770378425,0.03448078739628307,0.06493445304811896,0.04636476881964844,-0.006759266909739579,-0.06242533814045337,-0.08790888034923784,-0.06622376438833066,0.0240784329843618,0.15150951111369695,0.24241218806041426,0.2674064697124476,0.20518633261877833,0.015720463246682966,-0.2697157374802111,-0.4299333130542758,-0.4469903120315867,-0.42248833504916067,-0.38775061117451476,-0.35063913422915877,-0.3064851028272411,-0.2510818594326995,-0.17697810649828963,-0.08712906419373788,-0.008330874991031764,0.04353595382439673,0.06943677631503575,0.07781489715265583,0.07934944220198495,0.08241966619265562,0.07468242778612184,0.04254963064186438,-0.01732970229189522,-0.09786121282821807,-0.17981941671161986,-0.24160987633220843,-0.26675606624851955,-0.2385103628110307,-0.14735530499973884,-0.01112713045785423,0.13436653299492163,0.2649663442863771,0.31864724151135015,0.26717551495858655,0.1601555377510268,0.06042291162534503,0.004571509024683044,-0.012916473623871749,-0.0070602007707275954,0.00980658574042317,0.03636038898989841,0.07559611148973344,0.11671296156015079,0.14075743899712181,0.1356223138621042,0.10240514983631258,0.04301225873053514,-0.041598058049501604,-0.14273086839853955,-0.24277607309947588,-0.3156404069139385,-0.3312110036273816,-0.2765260154592249,-0.1202053699376172,0.13813007561049423,0.38465105465536475,0.5361130754436265,0.6140767988001254,0.6565810394194307,0.6718608960868746,0.6612264599630949,0.640716092424805,0.6278220333136253,0.6230111535107762,0.6164332284331495,0.6072208546125117,0.5988338832674195,0.5753356263612018,0.49135839545209964,0.3196149259717328,0.12408238264814273,-0.010979453333219924,-0.08266650626367907,-0.11862063354701931,-0.14397419527848773,-0.16006618239518564,-0.17373631997852917,-0.19005684370225392,-0.20885911345416747,-0.23097195026609213,-0.2568552748637727,-0.2906628147205561,-0.3310051260085939,-0.37785927856891177,-0.42338697738235187,-0.456145693134237,-0.47361417411575396,-0.482268387697171,-0.48117846078674464,-0.46762219675453487,-0.42818883602909685,-0.334252606674535,-0.1772883810112563,0.015774993584164954,0.20701775394189015,0.38225881849695104,0.5301848340744748,0.6199576647735919,0.6390110652649958,0.5877422697840317,0.4755124768721964,0.3272348388443022,0.16372129596922402,0.019557936899299442,-0.04078841764052514,0.011538413809959618,0.13518786813426473,0.26252283052085185,0.35391023220497075,0.40186120940067105,0.4167180793587436,0.4094606926511588,0.3922174967032329,0.37474294829607663,0.3602315684388162,0.34624735758135455,0.31919168278355414,0.24378120542476148,0.09415324936525196,-0.0810775503681248,-0.19001598014180054,-0.22739920267010957,-0.21492887048995132,-0.1682834025871001,-0.10614760471236137,-0.04064038425439027,0.02508240651493087,0.09337668098891048,0.15858746887628714,0.21058833426892798,0.23159948478119252,0.22031781434533088,0.18522969251753846,0.13532720388081793,0.07416848722104724,0.007319399105931215,-0.05623741403022843,-0.10757687146183975,-0.14259604098990836,-0.16947862657319457,-0.2029016843441838,-0.24714289570622336,-0.2883074790590605,-0.32732231895490216,-0.3643647853888267,-0.391051578471585,-0.39147192945876713,-0.35315852591335395,-0.27210945095387085,-0.1732014169558904,-0.09469833925737248,-0.05781256676135063,-0.0645160102590065,-0.10677397911698017,-0.15910614406678222,-0.1981057416094229,-0.20425713394771097,-0.1770693355351335,-0.12389740153451156,-0.0534122068442681,0.02065493181009962,0.07581722274760345,0.10440514820548803,0.1149971436635513,0.12815149691086108,0.14938855900099643,0.17552152871883409,0.194753385312305,0.203574068451303,0.21528619643747499,0.23325329100503905,0.23902678071125483,0.21246350536360986,0.15044444457525064,0.06622639857964084,-0.016087549423918636,-0.07497478686006344,-0.1000944485609227,-0.08907038496111513,-0.041057673827752474,0.026444295516006248,0.06738145439480304,0.03508778517101487,-0.06208758535122394,-0.1631541959093582,-0.2291797005932002,-0.2542385022406603,-0.24727047293908533,-0.22711430191301876,-0.20665134230179874,-0.18946297652615274,-0.16049075800456017,-0.11288514691234573,-0.05695321641338959,0.0030484616380582674,0.06090474116788492,0.11383122638600306,0.14947411197136462,0.17292303692978278,0.18877155549568614,0.20195892833521079,0.217398681009372,0.23050689484460618,0.2342981217007846,0.2178212574546955,0.1863497320341825,0.163295397833164,0.17095952401495126,0.202778591819981,0.23459422707687888,0.25120732193179324,0.24540245929572665,0.22342094739895121,0.1871273938233313,0.14566375429365516,0.10748925709128385,0.07794759562668413,0.06565624664438628,0.06611531955039612,0.06540145760386067,0.053735059068967396,0.027347596545003156,-0.009919132624413615,-0.04790597803063273,-0.0747026826901372,-0.08234395967206308,-0.07730225780961682,-0.0585761679961153,-0.02483680386382338,0.027126302920761066,0.08887830754561736,0.1474246934051188,0.19960601727588728,0.23312445197125733,0.24014203177625795,0.23780730584144177,0.23616118707363976,0.22733913148998122,0.21705116525213472,0.2055333467504073,0.2129033376173497,0.2374468022676484,0.25811123149467535,0.2722274850074443,0.28672008556572726,0.30412052286402075,0.32035618349088896,0.3160550264627612,0.2768625225249159,0.1908482013876103,0.06240425220181426,-0.0915002988408842,-0.22810170864231283,-0.3152382283330206,-0.34571398671673303,-0.3185119613628254,-0.24573707060261496,-0.16066391852450232,-0.09811853882983594,-0.07384428817402383,-0.0743309335067682,-0.06637487526582064,-0.0006912250594920896,0.16712708162101078,0.4008292780181804,0.5904823216674613,0.6897047191034105,0.7223772567039246,0.7063044593158917,0.6444453228359818,0.5515238824600348,0.4660296043770664,0.40048836081658035,0.34759799701635447,0.29631272493817207,0.24071518129248004,0.17288742994010456,0.0959826324540138,0.027497897561461808,-0.024792911478384826,-0.06484739348892875,-0.10715400713137917,-0.16258432941671178,-0.23027677984557673,-0.30546799452225515,-0.38005582742141125,-0.44748795123010887,-0.5007172354746203,-0.5303890748184967,-0.5327044695289261,-0.5085565830408334,-0.47160662078630095,-0.43018297652871185,-0.38159509529555496,-0.3235360719197835,-0.2645938956325146,-0.22634434891532654,-0.20474657338739025,-0.19170609550039922,-0.18916992725300352,-0.16880901858251196,-0.11705803083146188,-0.041256455267739106,0.029445132363979432,0.06823502776419743,0.06670618204133057,0.035871769874102975,-0.018018160771385437,-0.09197721842393322,-0.16915798570639956,-0.2282742003926499,-0.26043144794183354,-0.263779767995439,-0.22272062580592725,-0.1306653659841729,-0.01197827903339943,0.08449810694560562,0.13598252071717662,0.14606116449309953,0.12975780942837026,0.10252755538262284,0.08110104973026644,0.06538188894795663,0.053230893439363686,0.04442172899844822,0.038835065386015166,0.040273685461617734,0.04748266249217479,0.04986416017741554,0.045075631027921635,0.04908239408109042,0.07254572872590494,0.11637831370699747,0.1781630541164839,0.25820851539847467,0.3479868010064455,0.4272024758698342,0.46832405878678207,0.4509319207881823,0.39083640241839224,0.32351004398211664,0.26537125760080565,0.21035745156228397,0.14720992161514104,0.06679247367059282
