-0.2508452781789577,-0.18998313528584107,-0.026390347456262644,0.22141946543653687,0.4051849852553156,0.48885692535555386,0.5277503782776733,0.5528841931847822,0.5734926105149565,0.5936786440347336,0.6070516423394068,0.6011765605787944,0.5633190364917815,0.4850784747524544,0.3700958650865846,0.22817988142610468,0.09707292378949565,0.007924718861716095,-0.034637693653801614,-0.04528918706022738,-0.03117120833815039,-0.01864980066378136,-0.03508590006993476,-0.09470595157669866,-0.18625556153515213,-0.2834954487753627,-0.3604464653400669,-0.41081514950764125,-0.4424444131058531,-0.46491813239284213,-0.4726212417788842,-0.4494959402069713,-0.3916677438372459,-0.3227437151988026,-0.2879349375694814,-0.33150471289989447,-0.4449282300639326,-0.5462739960383812,-0.5918778837857636,-0.6099989577402197,-0.6202376147582399,-0.624805705891779,-0.62638891286147,-0.6317406485669328,-0.6475189410775493,-0.6713834041261825,-0.6862847161493673,-0.6727533661336462,-0.6204245456343959,-0.5160436745303811,-0.3568712995667495,-0.16618935348377945,0.01758779718812325,0.18927300612753095,0.35239377493938534,0.5008281092971434,0.621080524426501,0.7081365711125888,0.7692966380900162,0.8122174391887155,0.8389208098690383,0.8508747401898996,0.8505115348874281,0.8385734115505256,0.8168678921703072,0.7879219147011215,0.7537306223275186,0.7144583437329809,0.6801641852589035,0.6380495547196977,0.5435589469975491,0.34103905478424806,0.060443747456312716,-0.12770927848171584,-0.18799904935880207,-0.17550574542147773,-0.1191952728098306,-0.059767578929537234,-0.029455765699907627,-0.03714867068001881,-0.07841347459438133,-0.13203971199435072,-0.1720652094768967,-0.19110411125895463,-0.21244409265793368,-0.24950518932679383,-0.29546181036051056,-0.3528998648566444,-0.42202470638574147,-0.48918269405644615,-0.518482141391635,-0.47066674227641836,-0.3356018214950317,-0.16283018875085487,0.00696055417421564,0.14404214983007818,0.2337670943659568,0.26855463012209474,0.256964842450581,0.2287756044205239,0.21392499592192551,0.2278149566294827,0.2632847287621771,0.29973500666160574,0.3172151561261257,0.3079135258421707,0.27838688481764245,0.2545243603488606,0.2698923756287232,0.345329707476074,0.45658858737249464,0.5385248338225529,0.5717009753097199,0.5729047067389673,0.5501195441696315,0.48944554767435516,0.31123128377346,-0.2547904364071568,-0.6320765546099273,-0.7018306459789545,-0.7356943681012023,-0.7676090674671774,-0.7983657161589082,-0.8264353853903679,-0.8477669854892939,-0.861874900286548,-0.8640234909777806,-0.8441320608530173,-0.7905230818115627,-0.7057830277918907,-0.6070146102322322,-0.5171469703354248,-0.4440975873661508,-0.3773683997298736,-0.307358779677935,-0.2324870811848823,-0.15902311729922206,-0.0934567023059369,-0.03841050073281836,0.00021911792128959015,0.022923104218137653,0.026877677730226403,0.005697523585573565,-0.04106289948118644,-0.09037305270041233,-0.11072359908061365,-0.08220091257458145,-0.020997574692783492,0.027182951288287273,0.04855327528561634,0.042054585374621825,0.02613535262728807,0.03620187800283429,0.12100306011892603,0.2753697119772726,0.409588189628034,0.49848728754965693,0.5458420591433952,0.5627631597440348,0.556191132669143,0.5365690705014603,0.5100294492549845,0.48722142297621657,0.4805418758471826,0.48639342536657093,0.4891028225107728,0.5130392647313023,0.5506023033200778,0.5810949301993873,0.5871021851915027,0.5630419587548771,0.5157993891405357,0.4610564020677668,0.4114681074629528,0.3721695156523402,0.34134478831839443,0.3157456887569264,0.29956717219594875,0.2943762770395338,0.2808051960809262,0.23465089944479178,0.14527790917338979,0.0168835584408108,-0.11762872291488068,-0.21219892777142585,-0.2349814252892342,-0.16032669069548647,0.01061481008779792,0.20912660447360334,0.3552343094192275,0.4284598614808796,0.4335199345778756,0.36527358010184424,0.21401113594427612,-0.01681491289077433,-0.25518381001855617,-0.4215148443485484,-0.5090243204350817,-0.5467135995599874,-0.5360682075099693,-0.4698393223525526,-0.35170962889045093,-0.2170384483702068,-0.08415700969651892,0.030650442838726734,0.10386437360193153,0.11453811343477989,0.03950745465243502,-0.10787044477306863,-0.26696241706202967,-0.3715580530658639,-0.39885602550503974,-0.35850988314517407,-0.26105138386499993,-0.12275020945721712,0.019891749126741767,0.1262369666314814,0.1863239450184939,0.2148060231553937,0.23171470755731444,0.23969722925582052,0.22450467768605092,0.17204459841066413,0.07939160709020757,-0.02822811908999983,-0.11891042443485716,-0.18549481512031987,-0.23854068501212808,-0.2837896411186855,-0.3210838267236049,-0.33102175475609286,-0.304588049440355,-0.25886878070510455,-0.20754819441731964,-0.15387484293167633,-0.10618713317440816,-0.07634014096208219,-0.051785483755406946,-0.039918243253708297,-0.028997700574236517,-0.006878268657616934,0.02842930952073595,0.03890938477228601,-0.028713413192134694,-0.13911291998979153,-0.18764858554550476,-0.18530967935672626,-0.16305513587791085,-0.12987795790065707,-0.08395176724091907,-0.016883276104429457,0.0659892277742833,0.14475443706111532,0.19352515705610607,0.19771184133724187,0.17790817468956774,0.1672358722545714,0.1756803362488653,0.18690202775008985,0.17967347697265384,0.14833414706784334,0.11028012727984571,0.0828924765725132,0.0716817540540749,0.07420855550965796,0.0763999773672157,0.0647092904962729,0.04226297050691056,0.028168450852488758,0.009390664805120876,-0.050698646427621966,-0.1577173929396703,-0.25743374878042424,-0.29744884921305736,-0.28529533793624207,-0.23495784215701618,-0.15439880835918132,-0.06331852675941471,0.018637238773788353,0.07409071641266961,0.09605656612207562,0.06706600180259753,-0.016740607206106338,-0.13433113587278794,-0.2436099562397889,-0.29579934458900475,-0.2474348081114751,-0.11328975110346853,0.032912694897869084,0.1366561468318207,0.17882138969578426,0.17473335517597144,0.14868949805228088,0.1326583744976283,0.14979181496555682,0.20755675862202164,0.28939670512451504,0.3617894302988156,0.3566869412940148,0.21294067412197332,0.004181930674586924,-0.16162988435403192,-0.28374575571883837,-0.3721587827082767,-0.42952649854609737,-0.4600306990708164,-0.4726906703514254,-0.46487285792599,-0.4184928954984225,-0.2959246985162162,-0.06480111400133699,0.20863747124227358,0.4080027010809391,0.5273611055066061,0.5996658358305008,0.6419298917266687,0.6574893112500698,0.6470250540631268,0.6088798985655058,0.5383104846249936,0.4296530581239236,0.3106194991912768,0.22507454823638434,0.19885181709229652,0.22147966761293592,0.24659081415282294,0.2491534253384812,0.22424089746138973,0.1708070403489184,0.10040662388188454,0.044007255611613866,0.010860949301641512,-0.01114340029368328,-0.03449654786002724,-0.062293778877832585,-0.08744855602983137,-0.10479912587976312,-0.11797837108028048,-0.11580991640079141,-0.08275545782194758,-0.017545283046639364,0.044447852796415534,0.06437133516384388,0.05624359890380928,0.04826915827499547,0.05635124613871217,0.09162504705138874,0.14690623269939093,0.20556525784506727,0.25571760792631104,0.27910087552996443,0.26404888699918516,0.19633051534487345,0.06444777888643836,-0.12873682875640804,-0.3577031614372485,-0.52758786771272,-0.5741984032585458,-0.5415087651156776,-0.4509697370189537,-0.27165757563645576,0.018291029797808896,0.3569523488532382,0.6133747634245974,0.7487522755048339,0.8099170230118671,0.8364684202444325,0.8395682670201434,0.8099318484856028,0.711792746235355,0.48420766757277206,0.15393533278645066,-0.1409505530578874,-0.3301565792031134,-0.43194576704466286,-0.4861491430649606,-0.5261123517542124,-0.5589845267852136,-0.5723141476201594,-0.5573937126697222,-0.516354384517498,-0.45296302952767387,-0.36133604703148425,-0.250653154365242,-0.1345563079027631,-0.04320449154223327,0.0065790344864869775,0.013974761471077388,-0.01177561880900465,-0.0775291805706965,-0.1718386950033804,-0.27511780770764277,-0.36803737567349126,-0.431667176453963,-0.4702958315073432,-0.4976366714198928,-0.5150734662035394,-0.515321426708264,-0.4959124354600141,-0.46159818559562743,-0.42691824583870447,-0.39961868467381684,-0.38654416080311205,-0.384209899323174,-0.37853450635611224,-0.3424679606005272,-0.2586140860448597,-0.12070145441679146,0.07438576824476015,0.30768903477251414,0.5023079602065401,0.6160452062698689,0.6729972467525277,0.7039139412967133,0.7191482393871099,0.7188774805130975,0.6971372598144033,0.6517532582483221,0.587712940806276,0.507028401054598,0.42559959243399853,0.3683408743059837,0.33876949207274054,0.33128831757715516,0.3407029217138903,0.35947956951119026,0.3782964133951016,0.38966158507878973,0.39032457850901736,0.3878662085506554,0.39849822419418274,0.4074481887761553,0.3774367906575762,0.3263624749610291,0.28385312162592047,0.25223444252030547,0.22268104370564085,0.1812743635937879,0.11083569852361683,0.015067649587223418,-0.0818489190362651,-0.16170777587687504,-0.21711495296658231,-0.2507632029758951,-0.27352099423398923,-0.28054017720632085,-0.26876934880643,-0.24776527613317562,-0.23339728549460964,-0.2304489998948385,-0.2339293563908963,-0.2230947855130989,-0.19259860883741933,-0.13784523439505875,-0.05982642583646861,0.021330987320709264,0.08764303104457295,0.12853524546607215,0.1388094412216256,0.12458724585208379,0.09778097742088039,0.07582200982241556,0.07431005868089897,0.09545090885172018,0.12962903151206992,0.15143568184320258,0.14556589762091968,0.12021418469854701,0.0923772974314077,0.05784150489197449,0.0038989954944636095,-0.04899014294060025,-0.0685212125725855,-0.03905798829966862,0.03206869291069025,0.12132352766010705,0.1904727628032745,0.20488607554336194,0.12744627344941936,-0.04922396452242374,-0.18917562434446306,-0.21762695484421893,-0.17785363492496553,-0.09295829267053315,0.012612775860564312,0.0984079678730372,0.12761791453877774,0.09407274329854119,-0.0017738311680803988,-0.14154210388238808,-0.2720966790242565,-0.354257733070422,-0.3752598866806201,-0.35543049397376436,-0.3149604546256954,-0.2641894822723779,-0.21532407923983274,-0.16750340159701846,-0.11241744018293977,-0.05256800585389711,0.008586587982555606,0.06974050955878702,0.11408044363250712,0.13042990403906585,0.10726660837246621,0.04323242713407972,-0.042443177910080565,-0.12493124974039513,-0.1837351233476623,-0.21796225624993287,-0.2206526342602991,-0.1885475050382366,-0.13481068181532072,-0.07565033611231005,-0.04370104926261125,-0.04576228105902488,-0.06335802991784,-0.07712821931500285,-0.0891031604770916,-0.1267378905319435,-0.21310240860719362,-0.33532264024688074,-0.4589416046347542,-0.5431511194109658,-0.58122293107562,-0.5680380171176245,-0.49572578689346747,-0.35507865158853735,-0.16029540080220994,0.03547911533048037,0.21748997188145183,0.402816570364939,0.5739778435054894,0.6921967625029356,0.7397673072219211,0.714545643841104,0.5928178418274322,0.3549980893111557,0.055842168337747695,-0.15128316533736086,-0.21544256917040122,-0.18579276916097504,-0.10657714670388233,-0.016817024128465478,0.05445211766386835,0.10245570592177006,0.12736776682814901,0.13291586934446836,0.1151238756220335,0.06506605899408029,-0.01909572500679086,-0.12356539840993436,-0.216649650062456,-0.26959118070203875,-0.2782775405660409,-0.2543924453553927,-0.21253713497258916,-0.1563682334413596,-0.08035349973382289,0.03864626309179854,0.18727327503889016,0.332490043050797,0.4365978622448663,0.4750637936410943,0.46617813880787917,0.4402119753565827,0.40833787002969263,0.3628628445375737,0.2869186340384644,0.19365792745036936,0.10294766875354512,0.02529349865453587,-0.026812439868720422,-0.039223117905632945,0.002155884021078278,0.08900855350558827,0.18399113257175376,0.2617423557664517,0.3143926236769852,0.33627501929554615,0.3303254676863362,0.29796597228294347,0.23240765890392812,0.14217534081695182,0.054141828993176065,0.009275112120673924,0.026943756096628444,0.10210744269787463,0.1967219510189341,0.2679452169758184,0.30123369376034526,0.2973835871244795,0.2773882712497572,0.2467725305867078,0.19459290661598883,0.10152813227928643,-0.041388593139080616,-0.20998376115111317,-0.3504940242798305,-0.40798917919279004,-0.38346640302792073,-0.3058712941746895,-0.20682540944189573,-0.09799442009459751,0.03570354452055012,0.17522804437296072,0.2824061072699611,0.3440105250359308,0.36245193088950745,0.35125927586644884,0.30960885092623625,0.23412548795503618,0.13125464139626578,0.02796654294091807,-0.0512766345864826,-0.10412126353730515,-0.1323146493225413,-0.1458868215745608,-0.15137143644717294,-0.14782549571801043,-0.14505551558949364,-0.1505234445431291,-0.16764966041035834,-0.1949196306283155,-0.22582540258705694,-0.25283147814596346,-0.2724596016773865,-0.2819265042605887,-0.2745308014389838,-0.2462151367451756,-0.19730217372807599,-0.13040954671747643,-0.036234331651206576,0.0844266421209201,0.20793211867103567,0.3167150094246009,0.40319165849860444,0.48280116536955014,0.5481152115896283,0.5770391816602376,0.5408337291859269,0.44280605410351637,0.33217766602707427,0.24964436346887714,0.21795731784999478,0.20946431048716424,0.18092737220796548,0.10717027397615012,0.009211145633051069,-0.07244750696461713,-0.10271408492029074,-0.08258611903846114,-0.03149874375730161,0.024396877917604802,0.07331043097421762,0.11066234164589853,0.13716932245588406,0.15421010766279142,0.16125736773215144,0.15437580158274683,0.13024725266207196,0.08656971675306614,0.027266539485623735,-0.049721375034121634,-0.15559255473770806,-0.2810017691199499,-0.40156750282126846,-0.49208087393497646,-0.5528245949570881,-0.5984059376496801,-0.6236802559013129,-0.6161379990399705,-0.5780368294410679,-0.5201793151041981,-0.4419376796298035,-0.32843516525155436,-0.1568929780460964,0.06387447915731131,0.2744381067208967,0.4216685781968755,0.501846245847444,0.5380228206743598,0.559215060870009,0.5792366907318742,0.594840188245221,0.5969851071130766,0.5777614267763719,0.5278169460250521,0.44390719267428663,0.34546459089899073,0.27061410517695195,0.23574081204410877,0.22875225246459416,0.22157767524046174,0.20304692470627322,0.1779066417548683,0.1436658240275635,0.0985039853465884,0.039644956730882155,-0.010920450929441569,-0.03869332568322452,-0.03972207811343594,-0.009056434327646547,0.05025398527628556,0.1252526285974049,0.1919744815642786,0.23161249201898598,0.23523563509107634,0.19598148778698643,0.11603273272089895,-0.010383739625350955,-0.18006400794107763,-0.3535652773066443,-0.4807870541940298,-0.5547771429123962,-0.5883631067183279,-0.5979750295893913,-0.5894918679879546,-0.5678623629672274,-0.5369506422368987,-0.4934372898409484,-0.42748461570950813,-0.34686268517534014,-0.2799385455879547,-0.23761932366484978,-0.2251018131437247,-0.23404265168380065,-0.2555183981777171,-0.2747445398456141,-0.2762142931349868,-0.25215966472265333,-0.20150742407606653,-0.13224787250408584,-0.06231686820665544,-0.0069543302250517185,0.030357894591374914,0.03605462766859616,0.00571725865984548,-0.04650613124774508,-0.089988055658479,-0.094507194131561,-0.05419790889570159,0.013263394445010158,0.08390069536096835,0.13799325246746802,0.1750694918770995,0.18695353275698767,0.18548618937253808,0.18769973364114567,0.20207179313321494,0.22264772734392718,0.23786929484947827,0.24620648239032725,0.2612791660863475,0.2846730687653785,0.3130776680159296,0.3467682358925758,0.3886140286690381,0.42830242064306984,0.45222414575670666,0.4705712017047043,0.5000965539215595,0.5371557515009542,0.5523859216328287,0.5099851464349064,0.4135223453808083,0.28879052687611156,0.14769032153802084,-0.022364319691251414,-0.21613922734744406,-0.39502327750114186,-0.49944817597844215,-0.531160013731529,-0.5229906450370351,-0.5044219424930826,-0.4889513667237547,-0.46812290825450853,-0.42943592262912694,-0.37831454680448995,-0.3295012746232933,-0.28316412509377514,-0.2290018614663126,-0.1680073217730296,-0.10911625514654856,-0.05706356751715877,-0.003013493538487538,0.055794881263259,0.12350176491628821,0.21645780115916063,0.3436609548752681,0.4731276010048898,0.5538145641919086,0.5586660594350764,0.5037323496808657,0.4397742521104544,0.4036894541676037,0.388628887490737,0.3522403550484483,0.2470923069410201,0.05885756347765062,-0.16116126101073378,-0.3428759128164779,-0.44660683337708484,-0.4833461997971697,-0.4680266142747656,-0.44681303670520983,-0.4398722556383303,-0.4495819383996056,-0.46127849027658535,-0.4535708011130871,-0.38255351191926484,-0.18081800128289777,0.12505642688712482,0.34871920847334464,0.46368816973132604,0.5197413293252109,0.5453120248252101,0.5568304984948745,0.5596955698701602,0.5538565318211853,0.5381785528035655,0.512203933197827,0.4793615334897546,0.4367867349431345,0.36858780462885227,0.2351553417412972,-0.006667826422060153,-0.23861281265404005,-0.37140849338628434,-0.4055320443379931,-0.2816248735490882,-0.07765421269253062,0.06315554649831683,0.1254366512211933,0.13717486134494863,0.12572063892180524,0.1055654687247879,0.08859090064901048,0.08516032688115288,0.09245604945375073,0.10627665491984935,0.12179352901733884,0.14016391251338994,0.1508693463504688,0.1392104279283767,0.10294064545187818,0.032590463082307106,-0.08540290980410287,-0.239454077224584,-0.3926585708371797,-0.505586617221696,-0.564971251027362,-0.5832672312571362,-0.5676378172036,-0.5198738562830896,-0.44158452766192574,-0.35797796056986037,-0.3168934206512295,-0.3371675810592905,-0.39129682974459556,-0.42965036364961595,-0.42473155756710756,-0.356602295763018,-0.18338722924640882,0.14203109835424763,0.48572039461278477,0.6767831168482022,0.7517265737572474,0.7689692975433634,0.7637841618827939,0.7689007799580015,0.8114995952910945,0.8745579693751268,0.9027095858252319,0.8711578012619505,0.7839080995410258,0.6366729701954724,0.4246415589635889,0.1927979219126456,0.017237277639756996,-0.08799690144928947,-0.14560937625122958,-0.16778063736741697,-0.18019656723222235,-0.18862733470069803,-0.1877240185185227,-0.17093910969396464,-0.13953752734286173,-0.10720598768144107,-0.1028599390787624,-0.13475542654826753,-0.18376062144044472,-0.23168140291436776,-0.2654911071787484,-0.2573661219789728,-0.1849002688330227,-0.06143887935431543,0.07037587208166522,0.17399491694679453,0.2456386429498397,0.3097811867809884,0.3791937189462522,0.4539667315711362,0.5185461313635876,0.5610130704305882,0.5803065610011856,0.5741414364731188,0.5434527805068431,0.48295112098116044,0.37060988524925226,0.1572304050026875,-0.14848856363230614,-0.42796060357650967,-0.5958876937442745,-0.6399121881269377,-0.5825825908721604,-0.4871705389191255,-0.4196179472629039,-0.3903469182738992,-0.3591995563120342,-0.23346864416774954,0.029494610499945135,0.30611891246228845,0.47570221831746995,0.534228124980962,0.5162131971963045,0.44682527841868,0.34089535274315363,0.21463284714974265,0.08308922607739258,-0.04260763162847928,-0.1507861727604493,-0.23209478226362332,-0.2806048397645884,-0.30246101452587376,-0.30992271483894845,-0.30468234687538426,-0.2877765946539416,-0.2554024044065625,-0.2143441549850383,-0.18415638865368852,-0.17635367710752414,-0.19318222949475905,-0.22354752222370308,-0.25665197720468685,-0.28461477134957014,-0.30404031921852265,-0.3167428073565844,-0.32175444306162215,-0.3004690914326859,-0.2295025563236511,-0.10124085811068302,0.056373408970517395,0.21716897609207586,0.35460682697562906,0.45010703489053366,0.4950030064928466,0.49374819095888695,0.46296349490646393,0.4108788930211774,0.34795969370047775,0.295878364583256,0.26944517630718245,0.2706667364017053,0.2810422948975172,0.27872716347035237,0.2596933132593863,0.2148717183172627,0.14079703519441109,0.06212301356197882,-0.005393263397390839,-0.06714781909191941,-0.1411689064499168,-0.22805081031687427,-0.29795874223015945,-0.31717621279218294,-0.24596932308183464,-0.07926695893130462,0.11412803087490254,0.2562514613493855,0.3354921216750502,0.3697899812958926,0.3795677797011993,0.3692884980585202,0.33952828821092473,0.27929782588993046,0.20107918831067118,0.13037099942396674,0.0769649477985338,0.017160670763021635,-0.08086641815188379,-0.23625893388803693,-0.4406820901313409,-0.6514870049991042,-0.7835539724021142,-0.8125599183556186,-0.7732701525777398,-0.6914500606851678,-0.5656670323989069,-0.38541075826032256,-0.17843064578295054,-0.0009354430430822765,0.11564281961348934,0.1662990642349085,0.17033704851819484,0.1610669415251818,0.15880066022046035,0.16478154589581342,0.1757047141879532,0.19964707429338308,0.2531789489294592,0.34114362574303736,0.4402883224316511,0.5087458957669351,0.4862558335726849,0.3340837394447099,0.11348115587583169,-0.06055636635009557,-0.16052829440642383,-0.21224068169858065,-0.23192263692039664,-0.22742445618779755,-0.20782898815901565,-0.18091440302204986,-0.14826177569104323,-0.11548026453436395,-0.07952727431798447,-0.039338312227025746,-0.005130395469018039,0.008338241509582253,-0.01119489354391023,-0.07426399183728125,-0.1836844392381451,-0.3070785312004061,-0.3955905759107109,-0.4332056305600465,-0.4325086613058981,-0.4038971390152342,-0.3431280125380172,-0.22663542374467052,-0.08068059560590835,0.013577854632254558,0.002939462297310464,-0.10090036746612875,-0.22800648798595552,-0.31628471720213286,-0.32422105117831573,-0.20120119562416003,0.12051889067222916,0.4812031950255616,0.6374732651084809,0.6466001097718508,0.5764611229114606,0.4607241381184405,0.34218718237447104,0.25783627791676916,0.2400026216948987,0.2812241496375419,0.3351081315512344,0.37159044501582905,0.3867376710665463,0.3797766934134839,0.34947386514459017,0.3016157199847499,0.24802216794442655,0.1894046728032208,0.1285074676569508,0.07099601208242219,0.030830337110191494,0.022378573051502672,0.060975292232945316,0.14651102835769927,0.24844142892044088,0.3210548073159102,0.3513081853450434,0.35178583879745984,0.33861802054783685,0.31659592857955204,0.2817798866349782,0.2355904831543542,0.18366649195099602,0.1293493901861255,0.07347358210842471,0.016226342031138784,-0.027752193065411792,-0.0513796813618364,-0.0639075621204668,-0.06780667098885113,-0.07213268919063011,-0.09790285073932777,-0.14523647823954322,-0.18780166232803747,-0.21069930370700057,-0.20010673252274294,-0.13770028780979732,-0.003396354914198535,0.18864653080080668,0.3742519131129939,0.4819596683514465,0.5080875708635731,0.4755130275851056,0.3990602817733539,0.2994764652138316,0.20943068861544503,0.1499285805158656,0.11492174085574915,0.09549822775764587,0.09920478689180735,0.1313059685113047,0.18237629809714428,0.23636032775502558,0.2859475934705186,0.3375800091967418,0.37678255048473824,0.3737751481970177,0.30870028932731475,0.1865019421165384,0.023299515575871604,-0.11937606687189642,-0.17892646858340625,-0.1870600871727605,-0.16608605154969266,-0.09891000134076876,0.008688349683941164,0.11996926687247891,0.18099313044120352,0.17781593788751146,0.09047041585395804,-0.09309849598417275,-0.3057048946074329,-0.4809920468941244,-0.6100591198204048,-0.6930463203471238,-0.7143178852318468,-0.6723847085954869,-0.586381512470412,-0.4875197697771221,-0.3993526465271025,-0.33087392541951705,-0.2914259396698819,-0.28535070065834833,-0.30702811249858775,-0.34352924372364185,-0.3765890934427485,-0.3894500970682043,-0.36111725375495946,-0.2857886283684619,-0.16963818509059556,-0.03520943774505549,0.09830585565343629,0.22452936550224653,0.34068211225219325,0.42913177759924026,0.4771044170932006,0.49084696266355454,0.48440699064969234,0.46009202794906656,0.3920458969009683,0.2451867946071864,0.04872242263216698,-0.10989999896039705,-0.2146143313293224,-0.2888940479180459,-0.3571823141989981,-0.4134406701584435,-0.4133206418842514,-0.34707676649522873,-0.2730811376418596,-0.2288136692446844,-0.1953550770131979,-0.13666042317900895,-0.021101991871732367,0.1357770791024669,0.25916554751596044,0.29557081999168944,0.25096157952650305,0.1645603301903706,0.06793859301145823,-0.02384015554780667,-0.10636021139110835,-0.17648041638632203,-0.2287933161309987,-0.2615818471960552,-0.283544175697298,-0.30611088388381585,-0.32999706556534986,-0.34718086778726104,-0.3281305641520416,-0.24134486233670152,-0.10493045833829281,0.026632503860587867,0.11015504571070993,0.11632987752493863,0.0525572021426212,-0.0281594019997495,-0.06830265941608883,-0.03899630915558849,0.0537886194242628,0.1511832987072669,0.20217269308460942,0.22229547614882333,0.26826832841259396,0.3742980583272211,0.5235953178398676,0.6577318906934788,0.7244224957706663,0.7235857458627003,0.6925342845663071,0.6618185557692406,0.6289916621281428,0.5762004246655988,0.4900753433202621,0.3848931062366208,0.2858445247028777,0.19716340051894385,0.12628344110535566,0.08849351338442568,0.0919969617193848,0.11664722463966928,0.1517132651985882,0.19486671976711445,0.23623992551160752,0.26781113684432967,0.28094561839766863,0.2756391260771632,0.2669972666636109,0.263522441727661,0.2568110554153652,0.23860409903925742,0.19883598453082613,0.12563287643697846,0.001573071649038068,-0.17588487193256236,-0.3545052994839602,-0.46839057545453183,-0.5041147988281668,-0.46241667232857536,-0.3324223000568012,-0.0943274557680905,0.19920939425688924,0.4134397307176271,0.49984232779891324,0.49010796412486024,0.40616081889900224,0.23480343271086887,-0.021219529841137504,-0.2971477497283495,-0.49745207527480984,-0.6081007632531991,-0.6543824100350158,-0.6554100689997734,-0.6185357937554187,-0.5427013774096374,-0.4468969440773285,-0.3739201804478788,-0.3534374606465652,-0.37677292110800886,-0.4181425769937461,-0.4393042852800682,-0.41468501272868996,-0.3369990158756506,-0.21946491240084223,-0.08314921315660764,0.028789352209931087,0.07867976394090201,0.06625024825872744,0.01904832313751397,-0.030432870092085666,-0.055908653009904156,-0.053702241146512925,-0.039253898929313906,-0.0222644580963545,0.022816555580260488,0.1102479447046408,0.22674272520680244,0.3531913958422449,0.4795201789074107,0.5934466344141156,0.6848474893426615,0.7446669145766998,0.7714738554594626,0.7649227894308326,0.7372311372066511,0.7024191597966791,0.6841137988985494,0.6978454834328647,0.7287442720279814,0.7440448894579439,0.719740241980342,0.6492790297602418,0.5433196177043011,0.4180467343676725,0.2885592503577687,0.15451638856326116,0.020265530382638036,-0.09833009648922032,-0.1777483917097976,-0.2229630796810174,-0.2447224757425833,-0.24877459342892297,-0.2486756532767846,-0.2547791958830259,-0.2536429860948542,-0.22587284626600063,-0.1684378122989499,-0.08438000823504099,-0.004568414007584997,0.05592623882171849,0.09445181116306707,0.10691326358589957,0.08427731003271705,0.020683511150040336,-0.07095641415955553,-0.15946030542317044,-0.224859645682539,-0.26736676511392954,-0.29172122164821945,-0.2932241108016761,-0.25445520836170377,-0.15241361551010602,0.0027147638620203594,0.15668058734265702,0.2533992314466578,0.27860104038557615,0.2520114556959435,0.21777975516779277,0.20600193484724155,0.2064994883643771,0.20735087477626246,0.19354364812107935,0.14940484376413937,0.07767607652655842,-0.012009839128409024,-0.09921954086175762,-0.16207315373925055,-0.19480558016469934,-0.19873639839070542,-0.17700240335957493,-0.12757412718459998,-0.05833481936925985,0.01524397195227711,0.0715569027416805,0.09908732090070017,0.09229958767078979,0.05412883252944357,-0.001939333956513413,-0.04824146509593633,-0.07365453351041436,-0.07334467918457888,-0.047851428232445675,-0.014147646966842573,-0.0018644537461483838,-0.01769865710164589,-0.03739429037852102,-0.044369140671848606,-0.02451142077600813,0.014606203318528452,0.03659293921266415,0.023348466214125195,-0.02655962503844233,-0.09254495747513353,-0.16583043199213351,-0.244504537003178,-0.3268634958451659,-0.3994734403997471,-0.45558336762887575,-0.49775685555021715,-0.5064084247409885,-0.45576922684090576,-0.3506923915184945,-0.22944568294861134,-0.1238466362655566,-0.048285534638891896,0.013483612515324527,0.067213603967378,0.11442965843287863,0.15952081964795686,0.20903392167564802,0.2644074631947136,0.3176435518814619,0.3566968022142468,0.370207221894364,0.3433594857792766,0.2673715873039893,0.15769295688449947,0.036863199545953504,-0.07104535565829165,-0.15679255760398575,-0.22203060062234758,-0.2616659653725538,-0.26455742065030613,-0.23371558370607246,-0.19205603759695525,-0.16256827066499896,-0.15286563170039488,-0.16115102896410463,-0.18123421649839674,-0.19960402460270293,-0.204836780559703,-0.1836010963221689,-0.1461466477004188,-0.1268184556219436,-0.139163686675898,-0.17857165590546437,-0.22773310592607962,-0.25763835598651985,-0.2553533906385817,-0.2259686819579796,-0.18389573498300077,-0.15723853873505966,-0.15008600590498405,-0.15087313733390986,-0.14079537167687223,-0.10013870422402789,-0.03374412800627307,0.017924347815018112,0.03181922473559639,0.01294234688796539,-0.008683748184251482,0.01572615672326033,0.11921226066316942,0.3042160815651573,0.5095079436169756,0.6602452120564322,0.7419757431763814,0.77835210937065,0.784216877333306,0.7553766098459516,0.6726316636855956,0.5299038909279531,0.39455795052082226,0.34135537056738136,0.36912680764986705,0.41487966164672313,0.42055552705853166,0.3631844949501079,0.24169034422271896,0.10326296776748067,0.030129929803500283,0.06943286838023979,0.18425250191065504,0.3067911251548131,0.3922081194428039,0.42771081107755193,0.42645373486633487,0.409062788642935,0.38276122068925916,0.3528443543523846,0.31325824087194826,0.28553178089348147,0.27655363461921545,0.2777313966011075,0.28104785275232147,0.27700120105836534,0.2686844603507223,0.25875595275890384,0.2409425652761921,0.20879012919810228,0.16924308221162726,0.12666010261650962,0.07470611297342002,-0.0016020757805452809,-0.10410130176158722,-0.21259584595672346,-0.3016869428185612,-0.3566318868164516,-0.37983824576534136,-0.38532304181272553,-0.3891934401456443,-0.4031535628904028,-0.43207585768622087,-0.4726108900031659,-0.5127106934018038,-0.5456301316911983,-0.5727222514807708,-0.5852686453882124,-0.5894955539561149,-0.5816178614852101,-0.5290231592152307,-0.43666500547106785,-0.34387864195682033,-0.31870143916828375,-0.36310092659379406,-0.43673345234725125,-0.48324380955237245,-0.47062145552764173,-0.40337374456408426,-0.28798261517394125,-0.15362971138514597,-0.018062149503489184,0.1110305600438312,0.2257314114204977,0.3289118828372714,0.4359142299096273,0.5529922925758187,0.6660810601391534,0.7372219641626866,0.7439959660264951,0.6864219586257986,0.5382367234458778,0.2672435116919036,-0.08380434473037354,-0.3885599161400351,-0.5668456654512197,-0.6451459726695169,-0.6751374622839978,-0.6791606650270229,-0.6588455123071915,-0.6058068920526926,-0.49661033722728265,-0.3208069340792969,-0.1405285530652711,-0.030729404724384027,0.011347278220733592,0.014283958664822386,-0.010150703560324974,-0.06549747508337747,-0.14052807667240458,-0.1966431007735685,-0.20053295995937184,-0.13740602615015482,0.023855391923178933,0.2870110380158706,0.5100139885805118,0.6073951641305675,0.6424098434203849,0.6440722447077697,0.6036726854825345,0.5039721095278406,0.3371916130979089,0.1689368383364597,0.07051787791239282,0.036933532657786636,0.02078206628123879,-0.04474392163088378,-0.2029717025814314,-0.38929100507560066,-0.5236595992069809,-0.5953211860963015,-0.6162697297494123,-0.6018085811625385,-0.5653316608863033,-0.5212671551408693,-0.4638065450869867,-0.3740955052781047,-0.2183108306212478,-0.010212715351315124,0.1746834480589945,0.29333838496296116,0.35577457062568546,0.3871949830752036,0.40280309667844544,0.42000878242518436,0.44290505985388123,0.4763755421965674,0.5232189948227975,0.5714177286558133,0.5986934238564814,0.5955007318612701,0.5824710082313583,0.5756276016813385,0.5656226408651955,0.5330767068338375,0.44199457410568416,0.27307834519665436,0.08170017971158058,-0.08082620460524144,-0.20137543688289056,-0.26560626660884423,-0.2641316396745493,-0.1879295834118498,-0.02097322112076705,0.20436339089840444,0.39187097883187294,0.49196503230473143,0.522037025756262,0.5072198206488638,0.45198291866320617,0.3566879546346305,0.2286516795859355,0.09636689206673923,-0.025382865828236997,-0.12372994759512589,-0.19932319141808905,-0.26217884414140147,-0.30986908288538084,-0.3353167674630583,-0.33962719708374595,-0.3379222591961854,-0.3330420371856357,-0.3094242551808007,-0.25522497389980864,-0.171435594022546,-0.06764367634543579,0.04734965152794872,0.17558792694017822,0.3099555449792355,0.41641914538913877,0.48754458480247076,0.5314338108980656,0.5330846167000794,0.47177766390351766,0.33063942676081437,0.14100133096720055,-0.019439611213943435,-0.08963744142905498,-0.08328362180752925,-0.04159308698187582,0.013005849622135975,0.07306015776233571,0.12719076025602233,0.15442503750691672,0.1479375463650141,0.11031071128734725,0.0403541902456679,-0.039694259365135806,-0.08570170757393226,-0.06793602574042706,0.0006019255793076138,0.0714757474777803,0.11487320246285998,0.11851919182014596,0.0844209811465583,0.030601948546305078,-0.01202421070984055,-0.018740181142494056,0.021784717348137066,0.0968992978391371,0.1913633986197867,0.2809550150161066,0.3279844085020551,0.3064381318137899,0.22664572439610192,0.1212176324986405,0.02064197319559777,-0.06585579137786426,-0.15469014515213111,-0.24663830094639838,-0.31615003496449207,-0.32315927125821925,-0.26707183662538364,-0.16183160168616295,-0.029659690699033524,0.08755953105841842,0.1699255072459678,0.2212712191841672,0.24389641957274014,0.23247135826151621,0.15579565576753016,-0.0028150209540135367,-0.1668125362176029,-0.2673067492734288,-0.3216687805456912,-0.3349313243180845,-0.30227913393132794,-0.24250703685791777,-0.184160444739736,-0.13481153259280784,-0.09503659177992083,-0.06485696728914442,-0.0464810192093738,-0.038951969882644294,-0.03667842241248145,-0.02473105652213009,0.015858395967006434,0.08061280149485381,0.13786732225567386,0.17791567563922622,0.22640603179402458,0.30359608793772,0.41045637169904337,0.5051373696119132,0.556287078688778,0.5664646361621034,0.5503591795140547,0.5034760385168048,0.4135904695802401,0.2633121973922878,0.06049593418061428,-0.11761911246002917,-0.22719586873126127,-0.2591557862518202,-0.2428245509216772,-0.22899589176560076,-0.26477104528706796,-0.3516785720697692,-0.4343692889673461,-0.4554807502905346,-0.41258977794757296,-0.3439296468771885,-0.27883181591762185,-0.22527382546444225,-0.17831940293846057,-0.1335540503273343,-0.08530268028065262,-0.020123078187401503,0.06379749921395159,0.14919987331476883,0.20424125347093794,0.21159121928921734,0.16248861866050335,0.08008176530772067,-0.002771922970321368,-0.04719767641502536,-0.043042079079298814,0.0011622586490698012,0.0677006972352386,0.1400335778115741,0.2059110155405136,0.2479150462621485,0.25249935386174166,0.23716666917462695,0.22498255447446516,0.21615080458952804,0.1997423803286779,0.15113780588098644,0.05327114444115793,-0.09012066164778622,-0.2407719495737026,-0.33997228168813076,-0.3611117481423576,-0.31317432674718204,-0.22222514065864435,-0.1318923298338882,-0.06403305924823981,-0.03384697392069843,-0.039510735210075185,-0.08481376160679291,-0.1675863832733272,-0.2631803882862823,-0.33515050186227474,-0.3637196718913814,-0.355176007680842,-0.3140802440239386,-0.24771518539848048,-0.18155777473063073,-0.13309003471011985,-0.11585493945967956,-0.12610309198577696,-0.1384935665792438,-0.13996898977674005,-0.10290717621926772,0.00936519167821342,0.20289281417590854,0.4239472635927123,0.5680788494573543,0.5971145979650289,0.5351131093714032,0.4173507320298983,0.28312178020768286,0.1631293578617211,0.06989884986269958,0.0002264154586354621,-0.0602623905322589,-0.11897491458880599,-0.16737730852256133,-0.18432702201402004,-0.15857905010327267,-0.07837436498724931,0.04822573072600358,0.17050048543545077,0.22994349430311695,0.23400686873111554,0.21256031587702812,0.1839031779797877,0.17089241729664373,0.18970048048796773,0.22978545085397903,0.2696957133465631,0.29811305218477113,0.3258604167221288,0.3640096322401426,0.4133535726104004,0.46550859025276403,0.5101312504280644,0.542970884016326,0.5585643795431912,0.554346815604395,0.5209076708537831,0.42549496513756835,0.1931945872482163,-0.2044981952293057,-0.5147615965296508,-0.6212718353247659,-0.627799431878362,-0.5849295246661281,-0.5047758987889036,-0.3906402576481459,-0.25513632354789856,-0.12023735164869884,-0.008854112041733577,0.0787768485160899,0.1511325948913474,0.2107063707078826,0.2643653100930521,0.30745448634734884,0.3396253959870988,0.36358038810659277,0.36321892835151415,0.3097250519155157,0.19220319879467426,-0.00701934623498835,-0.27740134796160965,-0.4748722355170256,-0.5378840413046783,-0.5123714533667814,-0.4306630833660986,-0.30561146903026215,-0.1577342412239559,-0.025560032405403547,0.0660864751113571,0.11223949957181026,0.12164555477873255,0.11027564159953593,0.09034559715769153,0.07789760762215281,0.08124627300204125,0.104585451508903,0.15477491865803286,0.23697407794933184,0.3206651446923285,0.37285071189684504,0.3769694235994033,0.32628744915557734,0.23455670726337782,0.12687902668828013,0.026139742441407984,-0.018360649250577146,0.06647491229288256,0.28009368149437536,0.48917133313298966,0.6221372929903858,0.6976188798832035,0.7199922683101879,0.6991474948569856,0.6491526263264378,0.566748594302565,0.45246004064616174,0.30125263568914595,0.10677293647846489,-0.09198449064572553,-0.2775539786970303,-0.44952577191389803,-0.5995625560750023,-0.6864628751150986,-0.6968119318407751,-0.6891289885563948,-0.6980802228066507,-0.7153576970129052,-0.7291091207143123,-0.736170798493128,-0.7325125634486805,-0.6971111031599522,-0.5842917015323182,-0.3599805490853927,-0.12073531138645342,0.02108219747846009,0.07571670479396325,0.07700469534441283,0.06264160899144126,0.07319012121762383,0.13545364279820188,0.2396577693442065,0.34929787017574315,0.4483363608513821,0.5358250748054448,0.6095878640537373,0.6672763812072446,0.7115792695702066,0.7368842156132994,0.7244805112518681,0.6687940407826313,0.5977979428796629,0.5371809067112798,0.4933655515410556,0.45946278781365996,0.4276030354113835,0.3892580945689176,0.3333777740455085,0.25716445209934796,0.15741509617972188,0.03897541895285997,-0.07622834190422671,-0.14926987874155148,-0.1721292062274398,-0.19069747744446355,-0.23195303581733773,-0.29321854662126107,-0.35979012193907306,-0.4177693121651215,-0.46215136999406514,-0.5009149081997087,-0.5237281316156848,-0.5076416429798611,-0.44400041950745667,-0.33026026770604544,-0.19678688607578476,-0.07686101943431259,0.013682134950621525,0.09121102662929244,0.18535630570225362,0.32438718362121993,0.4831092165167464,0.5845340987306272,0.5642997117374002,0.3888306346504646,0.07886103237413637,-0.21630600948907786,-0.4135342241816915,-0.5136696220311743,-0.5380497971090339,-0.4881541661000042,-0.35547888152441237,-0.17463827385732236,-0.051168355369052884,-0.03755752749601805,-0.10510530275247294,-0.19954752831107653,-0.2755621290948531,-0.322502717195274,-0.35770351252544114,-0.3870577559579143,-0.383723226439234,-0.3243715273635193,-0.2574066255141449,-0.2482086968209987,-0.2781782432503205,-0.29146522571457206,-0.2511928770756614,-0.17354521506344947,-0.07185197115957588,0.042775997098769024,0.16197627597640507,0.26246430127922465,0.32259090406301927,0.3370309724770147,0.30966898055695574,0.2614723267450261,0.2177700119426442,0.1985356673456861,0.2127842659748012,0.25115691963274056,0.29853865558110976,0.34192629479938813,0.3733263003104629,0.3710901018526334,0.30846405350060524,0.16765885057496124,-0.03197045152446459,-0.2197428809421746,-0.33258131609415226,-0.32648921375857737,-0.19447386483252063,-0.021416666150425222,0.12326361049074928,0.21920497986409093,0.272640467226411,0.2932935755152437,0.28273499622557263,0.22418285040670521,0.05750265418853687,-0.209755989093089,-0.3286986259631212,-0.31862937705267425,-0.2664086518895193,-0.18425271151999442,-0.0827181251030539,0.0006797891071758437,0.025558925470141765,0.002104076956153373,-0.03371875899180206,-0.05561702379856312,-0.047421912094414445,-0.004295276004419791,0.06638918425394909,0.1366741463706998,0.1834150955832342,0.18215676345530943,0.12367113258713723,0.02530875872787255,-0.07917189449490034,-0.1630145569453965,-0.21519185033243077,-0.22966866344681022,-0.19988876341053088,-0.12303040119035574,-0.0013092157511426662,0.1542232527946517,0.32564747497502694,0.482348824875953,0.5863858641088754,0.6278658821505121,0.6077190480484035,0.5422381599251399,0.45894736279067294,0.3785789706180529,0.29436411490564773,0.1941026936348257,0.08037255203829846,-0.04441004525558987,-0.17407801483635185,-0.2844309531649633,-0.3546702788788847,-0.3873782823909631,-0.38647816195694884,-0.3616345491760216,-0.3257670604947454,-0.29999113797480886,-0.30055679720538386,-0.3240888752431971,-0.34847424896966456,-0.3480164892346378,-0.3104792298810275,-0.23651051510863078,-0.1419088517903262,-0.050632321000857496,0.026268156760744933,0.08873392317291158,0.1365516711730193,0.161299172837454,0.15916380934457822,0.1276682383573266,0.08373565061490523,0.04909874573570632,0.04155190885946097,0.07255678272471816,0.14507659385092928,0.24492824398514204,0.3289751584695518,0.3656856128981466,0.34348115041994315,0.2674115393328864,0.15854397442814053,0.05502774324435149,-0.030588692751653816,-0.1038116200297314,-0.17105104845474137,-0.23665271402501792,-0.2802764957008416,-0.2704779014385167,-0.20766012210261683,-0.13550991170128,-0.07662658918628895,-0.027523838343059544,0.022366587803166527,0.08272852369832691,0.13979880127027247,0.18964263426686165,0.2437566188203503,0.3035984238680033,0.35371639563484253,0.3804114849637322,0.3803869966348577,0.3532439269972964,0.31579436529730825,0.28194710641215714,0.25543318404499005,0.2244682993516699,0.1667473630537635,0.07162794739980557,-0.04989992862934563,-0.17771417219396302,-0.2942484944352477,-0.3828179039171458,-0.4369480812322851,-0.45452488798700735,-0.44798375276758823,-0.4365223746736874,-0.43753465187649365,-0.45388640699817623,-0.4716254522599519,-0.4537896490104748,-0.3965886949568117,-0.33003130536168795,-0.27237564188914354,-0.222048381155155,-0.16740305746724826,-0.09158388198988118,0.013434405496934372,0.16297908740261483,0.3424540956882401,0.5186612714345842,0.6635409595282015,0.7591545860535784,0.8106843569535912,0.8279511649779514,0.8148632841857785,0.7724414987211774,0.7002215371562264,0.5951441170849127,0.45218343442402975,0.2872815484944909,0.15234001092437172,0.0826462362782104,0.0470943874528602,0.02040443266258393,-0.014839983547056446,-0.07768987248109997,-0.1532855468518886,-0.20363501655956784,-0.23462610040957818,-0.27157868959444864,-0.3312074915322156,-0.40055751721673466,-0.43229735336066794,-0.4046718866060663,-0.328443712607758,-0.21983379067603842,-0.0874311846894765,0.05077762930332809,0.1535335511592946,0.19238174079836706,0.16859517039962152,0.10019600954252295,0.0023561038986932618,-0.12241300299259376,-0.26449311169267814,-0.38763790247592966,-0.4657170159870722,-0.524800359073027,-0.5675460988881014,-0.5835358503961359,-0.5589511403723755,-0.4943759120408242,-0.4005470938713213,-0.29562517747953937,-0.19747534099425393,-0.1162774908430143,-0.047619793927875693,-0.012938660693384178,-0.020158904916701356,-0.05527429944599298,-0.09354922961496628,-0.11472614060471734,-0.11263754533986664,-0.08687046505045536,-0.03996596260895211,0.015293182634782673,0.055014049120311694,0.09228898518399364,0.1408254729042389,0.2037529602649076,0.28448146535713276,0.34887001404407425,0.378078704817396,0.3953103357841812,0.406787188853733,0.39553117257154674,0.3512888894367817,0.2689471915498466,0.1562587438383745,0.035634792719085824,-0.05999051914773671,-0.11838796784199197,-0.1559615234601475,-0.19349556570390572,-0.24149807677777668,-0.295228782183996,-0.334248455115818,-0.3336231058570467,-0.27489861964512147,-0.14539446586166424,0.03943804301853715,0.22578112994055255,0.36144115873217847,0.4166440755694169,0.36997927845868167,0.24524250238064504,0.10882368257261883,0.029417329348074343,0.0438588778007447,0.16391765772869193,0.3685984655582192,0.5464360631743883,0.6287961200174712,0.6322203941111721,0.556700894225083,0.3856222336780547,0.15346811711371175,-0.03265616680158189,-0.11779504889776903,-0.11131572804128007,-0.04096243754283268,0.05208545812577257,0.13316099120127625,0.19928945032440587,0.25586095181493046,0.2970144706274501,0.31580007705413876,0.3147021175188522,0.30214404439043424,0.29532221547859355,0.2983547180598843,0.3095748260540437,0.3333155602223439,0.3753664914258869,0.42201792533115656,0.4530620598954683,0.4440603853141689,0.4094067613095038,0.3795178096767752,0.36713901104361546,0.36850663938377504,0.3723773081723287,0.3650313126623589,0.3496415566520498,0.3299064934492004,0.297838370271998,0.21468799017051038,0.030935155036662023,-0.21659456630026724,-0.40781783827652757,-0.5092756176024605,-0.5536636920016161,-0.5566169519680143,-0.5013013210720527,-0.3652731209380376,-0.19644957344084385,-0.10665225660763247,-0.1326635685282396,-0.23365592411286634,-0.35045011714841384,-0.44144536386796024,-0.4914119350512502,-0.5017503672069348,-0.4838480822085115,-0.45040264141441094,-0.40371435773604875,-0.3335762204002823,-0.20577910643078995,0.03633880833000846,0.3757459492620108,0.6554256112365074,0.7633211177132977,0.6819054259783472,0.48195924728741957,0.26325528339314397,0.07225170245817002,-0.08539647658395583,-0.213646029972975,-0.31086591612679937,-0.3600841397365056,-0.3247378494999106,-0.16177365118251108,0.11991438659973844,0.35619271959869325,0.46656135212781785,0.504465451984538,0.5051370877874172,0.47149957945383236,0.40618307763010286,0.30463817824335165,0.18946140783099885,0.07736993493680547,-0.025439360595989727,-0.10896659139951521,-0.17395000734277374,-0.21784175456999463,-0.228928349785885,-0.2061893429715094,-0.15013274275658295,-0.06825187721024725,0.03901546948468632,0.15776046673674543,0.2507425127496623,0.2929792833327036,0.2924711088947903,0.26086378488661566,0.21421337261920861,0.171343841334832,0.15904002823962385,0.18605145958513994,0.21816616450155796,0.2232994216549418,0.1978054985341905,0.13888767521031578,0.037291023815504726,-0.09411404277405007,-0.20287786935614993,-0.24504680741086093,-0.22533749982540702,-0.15582204899813035,-0.04998423084176252,0.08395228541739552,0.23633455868177328,0.3639560345836721,0.3971873856378098,0.33957150867465213,0.2593458023663474,0.20159113543908028,0.17406063812252895,0.15929281223238198,0.12590872307379952,0.05428895692041436,-0.01616975316322586,-0.039518293308709825,-0.03006841272904982,-0.01240427622146878,0.0005434145167993429,-0.011821591490824734,-0.054835647637275095,-0.10536622533356658,-0.13967112088694833,-0.14894777271524529,-0.12594985455112878,-0.07471514717567233,-0.014265307879146908,0.029658570929637782,0.05229646587071076,0.048285469107956516,0.021277241846558145,-0.025841491831697167,-0.06715030624968273,-0.07295982292535466,-0.02417146731825198,0.0958284292858797,0.28594019138297516,0.5122964379964532,0.67463101902054,0.7262109584351157,0.7150392591506786,0.678711790318451,0.6106062115625539,0.4886782719112092,0.30331816285376034,0.08124259043050786,-0.12174954783893446,-0.26409745529786993,-0.3385387972602431,-0.3482451320341198,-0.3018104053657796,-0.22175362710663518,-0.1489492124359909,-0.11391164217307177,-0.10655588955908878,-0.09615245469774333,-0.0697792669893294,-0.03802580909376298,-0.016798478919428782,-0.02358783390368522,-0.04850069272400449,-0.06622689035068222,-0.05494073527184362,-0.014211909988992109,0.037755825387260765,0.07840015019712243,0.08984269071149896,0.051485836940132375,-0.06247010450960669,-0.2528103559533238,-0.4673898242803664,-0.6212434159921757,-0.6652227350279007,-0.6047838694674846,-0.48633253610999005,-0.350119511544221,-0.2117955782971584,-0.07430638816236838,0.05434957515800379,0.1750922404440015,0.2775741794046099,0.35546982578738956,0.39804179723965016,0.3967898001060629,0.3301693162852877,0.1916018769350266,0.03173384935110609,-0.09147544855195658,-0.1671994668291901,-0.20870080799184204,-0.23766161376019837,-0.27226159994904153,-0.3158040611754379,-0.3586555154451535,-0.39187103916433536,-0.4086500770015114,-0.4052080158873337,-0.37014118463298396,-0.2853000880161562,-0.1464600671002581,0.022074967883065243,0.17663806407554059,0.2838486643588395,0.33938404995866817,0.3608677159284998,0.3730737217317119,0.3936297012181717,0.4397283360183864,0.5058576536876925,0.55703009019917,0.5666878148237123,0.5225746728615256,0.4216112262592495,0.2830515758837214,0.14023502188225564,0.019035264460407736,-0.07689566505896314,-0.14332244532478133,-0.17399116335714004,-0.14756924587540882,-0.05077667559370209,0.07311606739868502,0.1583444909470215,0.19862708730554673,0.22530909679704825,0.26249989916422245,0.3272896898581811,0.41255604191041095,0.48915178771882645,0.5356186505061641,0.5466642510870058,0.5197703752278987,0.4455101841765304,0.323834044071032,0.17953951040168395,0.04938841941628136,-0.03052815644623373,-0.05038079102194035,-0.0163603464684591,0.04739337865770884,0.10353422764098817,0.13641311970084719,0.1475170283783315,0.14055856067817624,0.1121982905852098,0.048669056053007725,-0.06276834715004946,-0.2080310501015921,-0.3296291738335409,-0.38318956491289813,-0.3766904645173179,-0.32560699652863645,-0.24336200942745687,-0.15512807358129674,-0.08907937135819001,-0.07063840577478281,-0.10302334964212072,-0.17910102094867303,-0.2820042756975867,-0.3819190994267969,-0.4557373621378964,-0.4937924582511461,-0.4749135349526284,-0.4146792955825298,-0.33976780681034013,-0.2617434842468734,-0.18107599313362366,-0.09279412354659529,-0.019671450402818907,0.023572755587264998,0.03861115437504548,0.029472277944967772,0.014140322523255333,0.008350133010235874,0.014011726424987802,0.024916057027165508,0.03861004264323914,0.0546212175657694,0.07142144034049641,0.09357792106752297,0.11763987131494434,0.13900233914278576,0.14933928908300773,0.14074098232753687,0.11053339647168384,0.0570172042683691,-0.0039207132459496774,-0.04867329064061183,-0.04593472365683794,0.014042165972314344,0.11035718017918249,0.19953901496823817,0.2504669409499452,0.2658115403962543,0.27333757265120207,0.306926094882178,0.36165113932298976,0.4171588633643839,0.4354261334840211,0.41276634700086834,0.3447619666001598,0.23715265627046517,0.09348017529788805,-0.04971037844857116,-0.14757401775256276,-0.18704373417401682,-0.18946600694385515,-0.18157049577268844,-0.18186722102260922,-0.1847640768722946,-0.19026687751660468,-0.18024753358743106,-0.1288420607968097,-0.04953022633506524,0.040565819065577345,0.14313553542389978,0.24326127923968885,0.32182825340048715,0.36960067962991516,0.3796203387900479,0.348107597348844,0.27222445275943213,0.1628543191125736,0.0434554291452414,-0.06324432218671872,-0.14464395466641633,-0.19180738907655656,-0.19667575588887043,-0.15168542159400644,-0.0737307560090002,0.005741016929347491,0.06902836541533244,0.10133931871860923,0.09823617693128152,0.06595419469688209,0.018757077007036937,-0.03298291852052301,-0.07786435813593771,-0.09873558989840864,-0.09642676228909279,-0.08775967283241105,-0.0998444571530469,-0.14340694471319584,-0.2068982460902588,-0.27101947514067437,-0.3352023981196753,-0.4030366424422173,-0.4545673831389892,-0.44131926307694214,-0.33888957010837295,-0.2006277142103113,-0.09392942680751822,-0.024201800900216043,0.018642612657267375,0.052420379663885165,0.08223083020469231,0.10408317171087865,0.116077467596,0.11258600999506385,0.09400169123762571,0.0626067507412208,0.02303112380774632,-0.017765182913705935,-0.048919930832589685,-0.0686147821377329,-0.07232625346221273,-0.05624675697705576,-0.025406118783190917,0.009845097861857423,0.04601902735772052,0.08161415882047786,0.100538181454315,0.10043155935589426,0.08747043316034729,0.06947400886653492,0.04810398055021746,0.016397647442248812,-0.029759251678145367,-0.07986958151649633,-0.11307959107947974,-0.11845682330645625,-0.1159547094244331,-0.12778683017437156,-0.13386685207945961,-0.09319714886137476,0.03385027996724011,0.2022246928669521,0.3081281521048106,0.3436562105055421,0.3359082183510856,0.30191313845871587,0.26950936720095126,0.2635396699831919,0.2794538899197936,0.3079539101953837,0.3344256904817254,0.33561240008287785,0.30327150858965357,0.2547599171722322,0.21639949132741118,0.20499432166167378,0.2230692636901089,0.2540727064575565,0.2753552619381418,0.2724617911373512,0.2396328516661899,0.17756577809715585,0.11302795243122934,0.06247428439494484,0.017139247579203883,-0.037782997249072255,-0.10334128974811095,-0.1668300913092891,-0.19780230259848883,-0.17199570408972475,-0.09552412707448223,0.016417973131053722,0.14810388716198483,0.274253940275083,0.37287497500127476,0.45240626039613835,0.5197595404639774,0.5694469990441566,0.5987859872416278,0.5924540016037106,0.5103478211423844,0.2309129967522583,-0.24255681545288366,-0.5576236359692297,-0.690651253938198,-0.7461014331687852,-0.7658271944539955,-0.7659667240704778,-0.7510870783685895,-0.7171640335168511,-0.6548865021064729,-0.5516196211383707,-0.40283808465469945,-0.24246468090164755,-0.12019964969365328,-0.0629008928648162,-0.048533458277793075,-0.036081966238022865,-0.006619932309981012,0.012771200064648418,0.003295846920131458,-0.033557112022242194,-0.08187186136168788,-0.1150707497621167,-0.1192930607460242,-0.0966237425213435,-0.051232944293076864,0.003139109530418734,0.048600045436752635,0.06639227596366279,0.060590381038139456,0.05024986414907719,0.0650960155263837,0.12245133283157107,0.22228759078845745,0.35033687834887717,0.4840087168824818,0.595127582520363,0.6746634880867372,0.7146975478957223,0.7188881191401408,0.7067017432198787,0.6937199908737756,0.6747901141231157,0.6362147261364892,0.5571818222471852,0.4447657673064585,0.3245416673652386,0.22439253950145882,0.15750134998987234,0.10767719242297952,0.050082762905197586,0.009667325420172736,0.005522151003624583,0.015502730810020019,0.011072614447875526,-0.017608690613868622,-0.0459850140039207,-0.042771068879792866,0.008370627644980666,0.09581788340766001,0.181640376362288,0.24053261495313485,0.2639503903692616,0.2448662373813388,0.1704199848434925,0.031570971304780454,-0.13733803600956587,-0.24828776143574527,-0.2481802952400559,-0.21424819337582143,-0.18247212047701764,-0.14946892631700134,-0.12476252054249651,-0.12279772790733105,-0.14444510065822355,-0.1828876573177898,-0.21742800010225447,-0.23304887456430431,-0.22867643778335225,-0.1992215175229948,-0.1465558843769921,-0.08765628755709626,-0.042423196082622024,-0.02506649350800714,-0.03817591582137022,-0.073936012569934,-0.12366479986500412,-0.18042483425665284,-0.2193742499997384,-0.22733235646677422,-0.19843989378900778,-0.12917389534255652,-0.01826150848609073,0.13087800554235965,0.29885376416951653,0.4370904507946326,0.5160669237824476,0.5478641167816676,0.5497021842711727,0.5234978306180652,0.46891104418203605,0.39403183290503135,0.31591518971012983,0.22617544177284551,0.1182984900258733,0.009287057018117044,-0.0763783518580681,-0.12176337989129307,-0.13465345291654265,-0.11177681967082281,-0.03822498715959443,0.08532867200269706,0.21097126540486286,0.29089233552680294,0.3292115901387271,0.3510564876183027,0.37238129568385786,0.3978900417288533,0.42163975149451854,0.4318474807036144,0.3983794448804882,0.2838522842072559,0.05918800685077166,-0.2308545166774843,-0.4604592523293551,-0.585517205626928,-0.6452296714421126,-0.665965975957393,-0.658412821012819,-0.6309341478437502,-0.5905629988444462,-0.5528587899466724,-0.5286661547200192,-0.5142205066626621,-0.4862419771693722,-0.4250571227534309,-0.32504192797785336,-0.19316000748946097,-0.054105725648756986,0.07648880170907511,0.1944783841653727,0.3061246134964281,0.4110549531252361,0.49954329585498575,0.5546260045651173,0.5821311328785278,0.595629345755848,0.6017773547973455,0.5971831666555792,0.5635714429645755,0.44071681349455893,0.11465471865335662,-0.21325017608409932,-0.3273080917378379,-0.3184677302925134,-0.28281137763749803,-0.2500339918016215,-0.2148208912066537,-0.17150785524202047,-0.137930833571526,-0.11726602580460128,-0.10319459069509843,-0.09799138414123638,-0.10028421162912389,-0.1084080958014007,-0.13021801339442873,-0.16061923399360592,-0.18824088598946503,-0.19783800882025454,-0.17639219570048273,-0.1252591493756452,-0.073848271010271,-0.04534660909554261,-0.050260586998608976,-0.0830265532930341,-0.12835961742438706,-0.16869386187047408,-0.17972057524469082,-0.12434774293648161,0.02007623248859594,0.20962393216654832,0.3820118229688361,0.5045757901402781,0.5734061373167371,0.5928509372275877,0.5666663657240225,0.4903262087199497,0.3665633929426809,0.19434325045775794,-0.054243932756251494,-0.3747254441287112,-0.5752630896894748,-0.6225907305504012,-0.593074900692041,-0.5234767401353857,-0.42804453435521966,-0.3427278062444009,-0.29038202768423843,-0.2632724455298453,-0.2377788567789128,-0.18001676951531154,-0.07726267815160374,0.05130658169212491,0.17073544889005435,0.2469707079374529,0.27498116016858193,0.2603454392303906,0.22007125588172508,0.16805146852359376,0.11172904903770724,0.06054070117226415,0.029226818263370074,0.03327880864716262,0.07068016257907259,0.11964507036496992,0.1518334614335798,0.15487916304687654,0.12803948108329066,0.0851093117573963,0.05840833090592676,0.05900849193900022,0.08662281544007594,0.12538541858668897,0.1508160067577681,0.14009549395169124,0.09907890417819616,0.06486058312386349,0.06573468499146573,0.0977737968412745,0.1332719026892467,0.14158719917169904,0.11079375641490327,0.03867052516990904,-0.06627674182368333,-0.1838002934600526,-0.2946680268697889,-0.3730751325322982,-0.41245795202695873,-0.41005792502317123,-0.37362787109055473,-0.3130328474350478,-0.24790861467526673,-0.202849530855926,-0.19236556920273,-0.20535706598700662,-0.21598444997546892,-0.21493284637792615,-0.19736917361056314,-0.1708697723714126,-0.13297746373263652,-0.07963015046994443,-0.01873645384289127,0.03030837557372506,0.053908670466119475,0.0575008782303683,0.07073836206398992,0.11978345404757786,0.20990449362297905,0.3301457765346786,0.4538689028943776,0.5502571813347417,0.6093231560605973,0.6347330851012521,0.619113314190495,0.5670079549655863,0.4900433180660014,0.4040624899883431,0.3382638537651535,0.2972770945958378,0.2667194329051531,0.23580595234837526,0.20376858960369706,0.17954586097087674,0.1755084632485036,0.18429718094974762,0.22553912139962082,0.302569642169503,0.4065643986602277,0.48653034394543215,0.5137420300171646,0.5028289021506217,0.4645530369384511,0.3978977247375151,0.30510470378134147,0.20910948549985045,0.14011332341776075,0.11332877932811729,0.13930685820165054,0.21580838810900824,0.3107122710713087,0.39011757859805224,0.4403559741224271,0.4622747091253795,0.4652850598169845,0.45475212530728165,0.4241060521679769,0.35501170906116697,0.24862658091751455,0.12367430823814585,0.008760004059084238,-0.09721251109941308,-0.1980907899459033,-0.29058402740873307,-0.360191924091797,-0.3907941921875178,-0.3778196672823749,-0.32918350896660137,-0.26308961915784596,-0.20181588877972553,-0.15937359514258945,-0.13968889815943858,-0.14072848633574114,-0.1544667591915966,-0.17828179676973244,-0.21599446351768503,-0.28318577100806563,-0.39388741893451634,-0.5102203594642062,-0.5695053301312544,-0.5554042758851948,-0.4603797668685559,-0.3046078326929117,-0.15927147909742964,-0.07977120593180054,-0.0650584940641955,-0.09814192903055884,-0.15086426072713008,-0.19816668438057194,-0.22195355085402116,-0.21447202147816016,-0.1628600813700225,-0.047444187905659144,0.12574795437237515,0.29663955849898216,0.3839977231425609,0.3742727653851867,0.2956705021595228,0.19080604201962437,0.08388511865170957,-0.0095966073401887,-0.07857696311393164,-0.12278673079526804,-0.14635896678562882,-0.14207876591333746,-0.10721571568000741,-0.06316149452409482,-0.03498495253865899,-0.039835715139904616,-0.0692688504652096,-0.09546319663186954,-0.10287838948577699,-0.08817471523125536,-0.04442539068053701,0.01632604274534178,0.0862763988214426,0.1594056043891474,0.21688743966060903,0.2495840011083199,0.2712834799134856,0.2903642708565889,0.309009480791091,0.32747733174022803,0.34405310915885046,0.3509311420875446,0.3374214682115092,0.2941531647699906,0.19825565555421068,0.03434838407344634,-0.18295863487728564,-0.3631360736676563,-0.4343067954809603,-0.42803998205215266,-0.39745500161719455,-0.37704132370015325,-0.3789428303220054,-0.39846154806730777,-0.403751526815175,-0.3261499815484985,-0.1743002953581872,-0.03913584778139351,0.030402224926039768,0.028934380208720044,-0.04718015613008769,-0.1549686271560504,-0.22341492317824513,-0.2170167010239924,-0.14082727280841986,-0.01286574580258986,0.13302313312677985,0.24296938211926739,0.2947244489059311,0.2981932395936651,0.29000073097656354,0.3197963675880082,0.4096962587694421,0.545506995928248,0.6705332272588427,0.7410298551989905,0.7511982559021476,0.7015599858137674,0.5906899812405271,0.43660985824628107,0.29530314117583156,0.2221855543705857,0.21252949486769282,0.2248407924979798,0.2200972538853994,0.1886246755123936,0.14559909384544167,0.11091664248219418,0.0889556815880335,0.06399171004515618,0.046771500633186885,0.07134860286192109,0.14315239152231338,0.21889158426502228,0.2549465304791453,0.2441252667313051,0.19348855378998606,0.09682886649129588,-0.05341654124661129,-0.232479919087794,-0.4274473472784481,-0.6019989595086155,-0.702494588362464,-0.7204677314577214,-0.6836006879863962,-0.6172291507180847,-0.5443820456299642,-0.4738893616735665,-0.40691248145320574,-0.3217032003612451,-0.18004244077481918,0.030302173617532995,0.24846139124365385,0.3795542947155134,0.41328739948685306,0.35796057252023233,0.2429868187136643,0.12102972876692403,0.031135813376468896,-0.004783558181057327,-0.0017555578580944271,0.009467077317029945,-0.00020854976718447246,-0.028950043432790742,-0.05467211862549271,-0.06277102032839814,-0.06345298566332176,-0.05797533380807775,-0.04024648397625107,-0.004264743772208432,0.05621842340434523,0.1315846110796642,0.20397108504601646,0.2542864476671596,0.2685098081391709,0.2498877602634151,0.2138946971352936,0.18850871382532677,0.1924743368527841,0.22356575003654766,0.26374321643036974,0.2970802858974902,0.31379568080435044,0.3148352302998326,0.3093823730443368,0.30603229506931945,0.31605197869434754,0.33657573951238745,0.353102110649974,0.34413554646107236,0.31235896147928316,0.2654680395945082,0.20608007180384108,0.13544982558115531,0.05125956004751586,-0.06111751554099436,-0.19929209104479353,-0.3444628593103382,-0.4617254624397445,-0.5412955780932128,-0.5802269364577108,-0.5865494670665106,-0.5783357828150767,-0.5582986896504201,-0.5198613894673095,-0.4637719313246499,-0.39456739574394306,-0.3141262266386937,-0.22224678334270143,-0.13060359158962673,-0.05994538489647976,-0.024227100265253165,-0.02018218524088837,-0.028939193106008017,-0.02664146452300153,0.008900460009413611,0.08101586795798445,0.17579883173997182,0.27283191969493253,0.3588234434589423,0.4215345629317127,0.46240493378865855,0.4721418579595589,0.4386166860775741,0.35881552658320537,0.2450457371094189,0.11892116591384305,0.0021387919706741254,-0.06876755216127292,-0.06402375311449424,0.022487355766248773,0.16239265030219535,0.29487415375437515,0.37511582853976405,0.3896479171363751,0.35547245072704803,0.30403244334282115,0.26154889697084505,0.242469829435281,0.2439995529191047,0.2494600175652408,0.2382772451328382,0.18407772010693937,0.07875539649498148,-0.04398249712106156,-0.13978343548248168,-0.19684642627099055,-0.2233669959563017,-0.2195615621628912,-0.19138888774687773,-0.14411620067863912,-0.09558586779422282,-0.04723823283790851,-0.0070812225573289814,0.021132422028387443,0.037646353166765636,0.046237632402324376,0.06016073101434726,0.0964034886447924,0.1512318443496041,0.21087595860749248,0.25796801039751127,0.2914545978328106,0.3203814568926413,0.34922935828967044,0.3757211951280554,0.4151957077487381,0.4608942060148964,0.48170298186651406,0.4439611500061745,0.3251136698717842,0.13424638218287752,-0.10213755648625016,-0.31596400806519026,-0.4475198772550583,-0.486788881152226,-0.4372592316637581,-0.3307525531635112,-0.24561874535795708,-0.21210357961844964,-0.21312023914461398,-0.23725713371853313,-0.2761995944642895,-0.3408057396115501,-0.4260811632817489,-0.5069677373861312,-0.5693823556385647,-0.6149140710183717,-0.6441005810839616,-0.6447427236285279,-0.615708811389761,-0.5690890821994447,-0.5051273843735627,-0.4083066124269283,-0.25829645809638263,-0.06124265758454293,0.144108310340645,0.30243259652904975,0.39595032499744703,0.4392552050616094,0.44120848866541507,0.4109160031921929,0.36545747718354327,0.3473159021813178,0.4064767582932884,0.5476410703662392,0.711130721908788,0.8307152013006968,0.8881820740335793,0.9026710180912004,0.8877877265457056,0.8433078304702804,0.7732279614635457,0.6888213165122579,0.5946944298620135,0.503603359291874,0.4250734280388061,0.354720648980433,0.2861853652612751,0.21515196940336256,0.1533724167625299,0.10173894045729283,0.07127442486306493,0.07005154954914243,0.08679257478203938,0.11318978356753989,0.13006866403090436,0.1206249161975289,0.07419092935521707,-0.008438527893739058,-0.10864833516437539,-0.2099579464030308,-0.30213838201909055,-0.3701275189744445,-0.3943062450069122,-0.3581709778238838,-0.2542511785724229,-0.11700398221974918,-0.009004292784576515,0.04359461280468326,0.05435482562553414,0.042168995486982365,0.014760862762121144,-0.03686768636098794,-0.12345721477458126,-0.24394089779591865,-0.35029132215375053,-0.4036556111259491,-0.4099875182580769,-0.3823274912219142,-0.3322095828108341,-0.26005619545381964,-0.16118914931857142,-0.045703407209353335,0.05164686760464469,0.08134959596209694,0.028466933664217216,-0.08707999482154923,-0.21644991246548784,-0.31187209220783807,-0.34724284078248474,-0.27376751204541455,-0.0827760934814964,0.13404948746953685,0.30269597318655195,0.4122653556690968,0.47144591485706894,0.47653774349454603,0.40552714794849615,0.2388671567697016,0.050816379358843256,-0.050566170702235395,-0.07270249540625294,-0.05328981766348362,-0.017015841814495943,0.026970123567782524,0.06362938277027079,0.07410414954383371,0.055689192553617116,0.007368247390565246,-0.07332133316465109,-0.15333746195776413,-0.19137672159736968,-0.17388962067580666,-0.11681319984653271,-0.04320464808049217,0.01697725909858998,0.050294144487702225,0.048612336716794116,0.022020372805628748,-0.020365008392433784,-0.0780238780901178,-0.14992200452870308,-0.22181076113751078,-0.2758059480576427,-0.3103193893117542,-0.3264783381978153,-0.3264882241787281,-0.3185323988059102,-0.30042568595435126,-0.2704476253140489,-0.20158146471844837,-0.03247155526026752,0.27162393828394715,0.5444619885106655,0.6942855033850468,0.7716765586135333,0.8137246605223588,0.8350120551425899,0.8446837003167968,0.8486946957436509,0.8509337276204291,0.8493755785222903,0.8416040273930306,0.8219076178693216,0.7853214395254386,0.7244625719734277,0.6320982510489294,0.5034938280120853,0.35104281312583896,0.19558048838421854,0.05386705475559101,-0.07309751885035004,-0.1764796398876944,-0.25146564255572434,-0.3066435236336209,-0.35670784393640254,-0.4112149941445735,-0.47378937303485175,-0.5414168636947305,-0.6067083366789358,-0.6605063832534366,-0.7006268486875044,-0.7245672337770112,-0.7362767156332932,-0.7364172469736807,-0.7115899384833385,-0.6063434948913735,-0.37834704916437106,-0.12142241115795417,0.05834868342572341,0.14493380678288106,0.15165951004038836,0.07842034187962002,-0.06986779082999865,-0.23947330618159568,-0.37040517974410037,-0.4494437258194931,-0.49090045217325934,-0.5104648762754549,-0.5157227504325437,-0.5086639605869258,-0.4963627788977465,-0.48450974195195656,-0.47517237988498656,-0.4717628425081733,-0.46501649818651597,-0.4509539626169648,-0.42761469706462146,-0.4023833353703925,-0.3864791744484624,-0.38030181732085305,-0.38238591741862293,-0.38914904223604074,-0.38937211815472156,-0.3885878065198505,-0.37843717023032114,-0.33942837483827776,-0.23742588454318422,-0.025760545468817862,0.29789447751767767,0.564543418928559,0.6795105846656958,0.7062922534128716,0.6846679421911206,0.6121790472647651,0.4609668794598898,0.23940791118208113,0.039729732567675875,-0.07785783336953322,-0.10474672947964421,-0.06539443620387096,0.011751105627961304,0.09939704835510633,0.1767480126418064,0.227554723616928,0.25420540366986755,0.2697673067395069,0.2896583042808704,0.3064556176829489,0.3176004554390149,0.3217700965167778,0.3224628099483395,0.3184457450411969,0.30109795427806646,0.26094148784571286,0.20080042628763872,0.13722909693923677,0.0970126245821615,0.08423004311849605,0.08169752810860882,0.07976251854981216,0.08055551245400643,0.09555057998535023,0.12347863034894306,0.1349505974300186,0.13743792178132747,0.15422136013667959,0.19420011245444432,0.2605939214040163,0.33367918856352086,0.3724272145517437,0.3514833981513976,0.27334516871708,0.14979407785451723,-0.009348509718154176,-0.1659549088677523,-0.275988271817976,-0.33458286091576683,-0.35831774908963887,-0.35269010508076915,-0.3265335197652386,-0.27627691883188726,-0.16973915170036946,0.027246053270610752,0.28414388991494105,0.47535115433457764,0.558607391067057,0.5750412761463037,0.5596743661197107,0.5351283202166552,0.5081521915245175,0.46570869949241833,0.4033320119164327,0.31774696096973093,0.22304685938776828,0.14393961774990321,0.09743492425431947,0.08705198695713277,0.11265375522962287,0.17609477497591486,0.2692105396473804,0.3217096748581375,0.25351349575415366,0.08005486554870636,-0.12228785076207997,-0.28676104193572244,-0.39562842217165,-0.4570997332215157,-0.4845262513602373,-0.480164125558614,-0.44403971436357115,-0.37572711202082404,-0.27225736298579506,-0.11999645038543222,0.04429083882513818,0.11075168208035836,0.09530889254357905,0.054748869343567645,0.021768808304559205,-0.0015314381691678796,-0.0021482787225294347,0.020138141169735425,0.0432243396131218,0.05545579611533116,0.06359538444768656,0.0745538581531732,0.09621872114865056,0.12266356096423156,0.14768189837474643,0.16860237672799627,0.20083740841847478,0.25503186090771873,0.30790566014802445,0.33640729462276064,0.34199387526306557,0.33609275205949457,0.3327481843027661,0.3347943828677657,0.3366883610658688,0.33770532482626825,0.3268170927777172,0.30323002221476353,0.26081486680055466,0.19744796553529653,0.10755682066377961,-0.001437217108844108,-0.11616216639328827,-0.2129909296542063,-0.2591240069743175,-0.23128831922646312,-0.12927652050696617,0.0019394419107416209,0.12274290878647785,0.23279056791476796,0.3456249664967401,0.4644395721124478,0.5545598031510175,0.613692127160331,0.6600051390377044,0.7018387707707882,0.7386014930238735,0.7502672753363894,0.6256780345257171,0.0372441060889073,-0.4162944517063447,-0.5597535146171435,-0.6199372348291698,-0.655790407075571,-0.6715089920571576,-0.6673715339674847,-0.6451764650816547,-0.6003815516725028,-0.5298080305484154,-0.45052391801179525,-0.3824733102785174,-0.3240812322021569,-0.26851440736205423,-0.21085174322629277,-0.15350049899536058,-0.10548408759825921,-0.07768091171383945,-0.07319963740937353,-0.0903564077215689,-0.1398601955689578,-0.2171339289552085,-0.2789688776958003,-0.2886985387868826,-0.23348773927655583,-0.11657252641249503,0.06110682128910846,0.2932055517325335,0.5275650573074901,0.6470349645373344,0.6695474780556899,0.6540614902611692,0.6272004285596916,0.6127915349364559,0.6202808324679183,0.6459589094160009,0.672337427983726,0.6783457887952167,0.6473352084996296,0.5741534578819274,0.45565440914236655,0.2983477344602606,0.13278625345197234,0.006404148658238489,-0.06543574774737233,-0.0808241085382431,-0.0435262358883058,0.02223471181476691,0.07772548347272527,0.09700820632119744,0.08493464298853537,0.06168951112190761,0.040220515339884154,0.03325483430490719,0.04280716432537795,0.0576691951542893,0.06352329884076911,0.07279395777318623,0.08766518442769448,0.09231462526721655,0.08001315254738654,0.045119386977081885,-0.014155147069975435,-0.06829974528516099,-0.10025790399565923,-0.11142641824108278,-0.10199691257091462,-0.0593986105692417,0.03264613976940673,0.17628481111562758,0.32546532764109665,0.4118773715078471,0.41295344423744434,0.3364093045299419,0.21408764524262563,0.08907421784179796,-0.006918392517684887,-0.07579129568870771,-0.12243130913760827,-0.14956905056791187,-0.15796592183829883,-0.157598703242799,-0.16069680096729616,-0.1733157406956379,-0.1871008341505232,-0.18311991499254365,-0.14773227944581133,-0.07803004310570466,0.02369123401959559,0.1400140374217076,0.2550072705432356,0.35450830511373893,0.4269963593379611,0.46708969893704727,0.4704651540945794,0.44405482901289345,0.4115449229313732,0.376593053968779,0.3094987833293673,0.15536721714042628,-0.06397162459829334,-0.21944373609435805,-0.2957532023711539,-0.33486303033589926,-0.3624082673869137,-0.3775104554428337,-0.34292237572866163,-0.2224312037712792,-0.024395857774755912,0.1594954310944827,0.23453393330771533,0.19454653065409633,0.07565963808033303,-0.07999750305670679,-0.23444261951019751,-0.36772660798827433,-0.4629606070516718,-0.5186821325507279,-0.5435844074262932,-0.546034733977035,-0.5301319409230746,-0.4976021804680813,-0.45103033951613447,-0.3871767213768961,-0.30143342841739895,-0.20170387360176154,-0.11779303370008422,-0.06308590876742334,-0.032142442694857595,-0.006580635736896833,0.025914686157514386,0.062198706000097206,0.0938975939921312,0.11119253762524922,0.10587569786819562,0.07273155293556603,0.025491308446290255,-0.020257912447991404,-0.04608972290927366,-0.0323745198337125,0.02218651200881199,0.10020960762882422,0.17463819552064455,0.2318991312307124,0.26168877270090213,0.25910115437125014,0.22963333521774212,0.1923740134174155,0.15368821819860712,0.11390589458408235,0.07193869676634203,0.038062237312281776,0.020180559062375026,0.033239278143908105,0.0921851350003408,0.19738413402533547,0.3297616102166428,0.4438006243180754,0.5048894607208787,0.5048683940312848,0.46345195501802894,0.4106278897750077,0.36933644887552597,0.3472541412912051,0.3380005891170345,0.33624872631764,0.3388761470408382,0.32477960720150384,0.270047371807281,0.16893650021282028,0.023903749006981542,-0.13363589860626146,-0.25694325138193935,-0.3312487804078331,-0.38010573664210745,-0.4193309315594202,-0.45066128439676945,-0.4590727506537988,-0.4292449006013806,-0.3625762604697149,-0.2656711821176064,-0.15839478969779366,-0.06771125649597452,-0.00047751902807867034,0.05788076104252202,0.12120271337182334,0.18798946470525982,0.2513842440395081,0.3181502511551056,0.4052509650451321,0.5056177675970872,0.5878175927236227,0.6367327259522764,0.6517442882286195,0.640134188918121,0.6077590432948587,0.5678185492330762,0.5390010511975695,0.5201143464538798,0.49767396669943753,0.4478985395861894,0.33877423371494325,0.12416241941800961,-0.21539432786583892,-0.5292266831528825,-0.6735145898204097,-0.7056250256034461,-0.6850055914122546,-0.6341609954834208,-0.5624678222055142,-0.4810554402869742,-0.4055433060516957,-0.33505916755932863,-0.2672769654468245,-0.20184250882912633,-0.14843353742171328,-0.11132623321290878,-0.07609734061511793,-0.02603586483449644,0.04155599815714863,0.10476635047711803,0.1427375116508166,0.14334758480324,0.10874045477632274,0.05763733679895375,0.017236432820919818,0.002756534680464499,0.001708952654615281,-0.00898509851408615,-0.034925748697044776,-0.08847544257767376,-0.1819685921884812,-0.31288514551865165,-0.4289088756447295,-0.4662088171536403,-0.45370722286554055,-0.43425319298372156,-0.4207589835469749,-0.4176095912716507,-0.41698363170185704,-0.40031101955576937,-0.3297369110795057,-0.15846123544032414,0.08933474578287945,0.265088004415929,0.31483135882663404,0.28075941968498125,0.2205615523227497,0.17528905886629031,0.17258679724022474,0.21211396544283004,0.26538266116624437,0.3075931326410984,0.33295335097962186,0.3449888657484765,0.3461361794740793,0.3327862809618174,0.2979139354276696,0.25108816372708004,0.19355004251950428,0.1331128127773733,0.08085750530940267,0.045858807997537235,0.03705663171206604,0.05677069592356172,0.10460617774779826,0.19428217409008175,0.32942940024852707,0.46748970480877744,0.5551093909472066,0.5799517760719352,0.5658029354365306,0.5523413389966693,0.5522508487061223,0.5493337304937143,0.5247213481541058,0.4918727218530139,0.4792064204656454,0.4867519718701933,0.4889818097936723,0.4785949750547444,0.45031671539610085,0.40838656453709593,0.3536076407718147,0.2765500511172812,0.18185650635005562,0.09190756124521855,0.04085953935877239,0.03053176666501719,0.04224975923913312,0.058386605683422195,0.0700686654442589,0.06929545256928914,0.06003417093823876,0.04677552109376258,0.0304399286702728,0.024097653234919605,0.03104678219453165,0.03619365640711111,0.01555294681070725,-0.01915054954833509,-0.042248185628936064,-0.04581532571029773,-0.03811635974891614,-0.03108057619976182,-0.022051067429538218,-0.008979347656715047,0.00778635059632462,0.029244321970043105,0.05991674746491608,0.11355581329113686,0.20655800810460426,0.3456559413327684,0.47581135754993015,0.5356026925078484,0.539012239469014,0.4996018738397913,0.4171612238070019,0.27066342357077666,0.06357781090741059,-0.13690719520785863,-0.27597311590045376,-0.3524163031614572,-0.3775181510692244,-0.3750085032709958,-0.36605772493339256,-0.3635584897252329,-0.3734221788576496,-0.38767956785295005,-0.4019318927568805,-0.409493400856476,-0.40855858243354737,-0.3948036674308152,-0.3598228903859402,-0.29996773938374427,-0.213028134106289,-0.09289610273468811,0.06905996947676107,0.26287202961097544,0.42777059241627563,0.5110503032935801,0.5160030202931476,0.46367863554592614,0.3734063029293163,0.25875839335358136,0.11406122715239958,-0.09373415443880354,-0.35213102110878575,-0.5040499455778829,-0.520518177527574,-0.47618565834012516,-0.41739836985937184,-0.36131768198485914,-0.31801784866003063,-0.29872692670199225,-0.291870084291109,-0.2785867433851394,-0.24117409358434158,-0.17870816083153937,-0.11104002088142996,-0.04839085946323502,0.027753310398421258,0.1162772687776752,0.2067332556932331,0.27444543766645,0.2911218365487784,0.2583906126946506,0.20370539338022686,0.16005077751364055,0.14554032777611567,0.16980136139543983,0.2286729699325381,0.29007975497810146,0.33513415627128823,0.373303299976808,0.41505471840292485,0.4558114117510093,0.4800562563155004,0.468243196127141,0.41103859068948134,0.32084046907613034,0.23301931954879576,0.19316446834436798,0.2099849119730131,0.26227407153368215,0.31369843280542287,0.31544394701568784,0.22779336768136504,0.07275998083310363,-0.08090634733474439,-0.18466628266577273,-0.25786103810073063,-0.3363230874261998,-0.4306812273332105,-0.5242821845036273,-0.5897115929134169,-0.6168137587401,-0.6056907455432039,-0.5648773178827814,-0.5064229561307948,-0.44405625380596886,-0.40080379348518463,-0.3894412541006706,-0.39625765682215236,-0.38446081625709905,-0.32265783583056656,-0.18741217083459283,0.04846755717645069,0.3558168371521787,0.6136121230597155,0.752197962943821,0.8065835160493626,0.818823937080304,0.812009657854408,0.794141284145779,0.7654413993922299,0.7183959144521924,0.6405216473363678,0.5161927324264334,0.34146281215922936,0.14081882231038764,-0.03119918920511861,-0.14675509128755015,-0.20603432716527398,-0.21954038719862187,-0.19359662834542968,-0.13066372585661923,-0.03959700210589663,0.056954610615240944,0.12978931048168876,0.14563383144319755,0.11221954998953079,0.06659822109695322,0.03730998170827449,0.03919046606587684,0.08571464552318755,0.16395873817190945,0.24683807671471417,0.3172615435627206,0.35790730626040007,0.3537201230081695,0.29912557676971,0.19124797072239913,0.04634361812389693,-0.08392732289877206,-0.15485043422373226,-0.18220252905915305,-0.2027036265907904,-0.23577515964093104,-0.2829782061104292,-0.33522772257065914,-0.3730665718834758,-0.383157979684329,-0.3706363431493413,-0.34717021433405554,-0.3318979627212562,-0.346954524269289,-0.4021302470216941,-0.49459604473357305,-0.5936474142205648,-0.668006197727838,-0.6945165350611876,-0.6669451584083133,-0.5898191428922942,-0.4926539193650326,-0.4053445603148169,-0.3319838930712646,-0.2567990500336742,-0.14825655341707325,-0.019568813848818617,0.09148349309464981,0.17976860315762688,0.2451626608035836,0.2846886365363311,0.2979536228777144,0.30353070200454496,0.3125794415096844,0.3238765906399244,0.3251078457652171,0.2936124391671078,0.19978807181905958,0.04864614731897784,-0.10655011139796423,-0.21703504986994146,-0.2728364586717067,-0.2827546687062067,-0.25928727525070433,-0.216387573915729,-0.1670841477834419,-0.11249752475148887,-0.058570831021957384,-0.009671792108044917,0.0495869968815522,0.1332944492458788,0.23986776698763657,0.3518144124155643,0.44310363920661483,0.4880417188103372,0.48027926057661924,0.42505962032022565,0.35233654711610674,0.2962383189962211,0.27289426150856627,0.29300762110546025,0.3571039763428901,0.4442999215447543,0.4954888338932028,0.47673568604834743
