0.2590796467424274,0.2873812156002951,0.24239045520268235,0.11311471983738622,-0.12758071034635693,-0.41424194675042647,-0.6042574468644548,-0.6623329684706177,-0.6083088873555097,-0.4386387282767782,-0.21818342420704315,-0.061952009933921096,-0.004366546541845559,-0.02581410396980967,-0.08867676938674787,-0.1421120356678335,-0.1581397413069851,-0.13957851912309524,-0.09729320383108055,-0.045125229788484655,-0.00415726005984963,0.0034242677330923615,-0.034799080329455015,-0.11884876038379091,-0.24832203653578774,-0.4197875958115276,-0.5906190476544755,-0.6796190073733698,-0.6782261106678946,-0.6437529042401643,-0.5986365241794336,-0.5421460812893812,-0.47134457732651136,-0.3770118319086997,-0.2374554934639541,-0.02266387518697872,0.22310070750929675,0.39485825654013346,0.4949608658313268,0.5612991303612447,0.6160189764100744,0.6717010518219035,0.73239044416354,0.7929193305882147,0.8346050798807038,0.8428002718032243,0.8103130020197332,0.7234912986247648,0.525687688522027,0.12090125114215908,-0.27912935282357343,-0.376848380708359,-0.27461000901034605,-0.019842312077866617,0.32364406294625847,0.4691594725596806,0.49364176871277937,0.5067520407574803,0.5205458071987461,0.5146652548081931,0.4194263202356555,0.13484216354314157,-0.12000947549984127,-0.12952578624393254,0.09984301903809166,0.42909518895553167,0.6121161984061226,0.6511761217901264,0.5979001303626063,0.4428253411693426,0.16501552280900225,-0.16157422122195136,-0.4103390049262773,-0.5551763423683973,-0.6307457584219438,-0.657835357139238,-0.6152088595607744,-0.49900562113491603,-0.3769249704538825,-0.29688223203224257,-0.2504156466171678,-0.21071532772906956,-0.14982222578984622,-0.04381208296815863,0.11497569924535393,0.29419590263964984,0.42781624454588313,0.5026399831498238,0.5380478100548204,0.5394912364003023,0.45843649194061514,0.26476580970755054,0.08015225871812795,-0.029675150279052938,-0.0843493331481786,-0.10287378172853047,-0.09763134231368098,-0.07887697333396354,-0.06000452524981188,-0.05375306803313024,-0.07755047820574419,-0.1607610475389447,-0.29055326846027835,-0.40280926977340564,-0.46036208860484445,-0.4704151922840423,-0.43476945289648716,-0.3440389391783446,-0.20570329664400744,-0.059743056394918774,0.057079303706566914,0.13614270055258818,0.1869071690626718,0.21055019011514423,0.19846197038544375,0.14862037298259317,0.07543922355796594,0.027824752596239188,0.02362912304679641,0.09460320949262759,0.20644819935675682,0.2767118901619757,0.3014226403143891,0.29501270585544836,0.2765721689809846,0.2549553287595748,0.22934520766611596,0.19625053535657497,0.16294490854890858,0.15266278879511816,0.15950875248015606,0.1728005595606036,0.17242408159098233,0.13733679408213245,0.0767871665728562,0.018190493718159288,-0.0252552518836584,-0.047242596815563,-0.0474186045840356,-0.025547939356872735,0.00985365421691449,0.04092128283878198,0.05872920406021637,0.06716440655830572,0.07359781821929827,0.08803330253127391,0.12557804488085483,0.21134336428687575,0.36268049457632273,0.4102056318897487,0.32876012537028404,0.2772181637176737,0.2538003995157752,0.24580607413498878,0.25099299297200345,0.26266741437859764,0.26717650249903335,0.24707184099587096,0.19322200022496555,0.11001691350908475,0.01202274539224861,-0.08756570471447944,-0.1881456708020533,-0.30814245832675563,-0.4902256348576905,-0.7329067627351153,-0.7829758088426492,-0.6970728010838689,-0.6346440987772629,-0.5783411536586561,-0.5001158934585411,-0.388138973351599,-0.22959933063001375,-0.04221665715884388,0.11369462337608725,0.20870407175221586,0.2462865842946601,0.23322480731642542,0.16748932777147385,0.05804517366139719,-0.05084405777112948,-0.12157268438742395,-0.15021723048166222,-0.15382287451711602,-0.15088601143679822,-0.15409856217387008,-0.17371362205965424,-0.20537634622093587,-0.2362421075735566,-0.24486729429908977,-0.22518047747240108,-0.17983631445355802,-0.1223701749304536,-0.062289494581296116,-0.016529718089908944,0.011161940116146919,0.027169289850265076,0.028502020539450095,0.011851941485335095,-0.02054145160102126,-0.05916564332814901,-0.08644640654989719,-0.06726739692297168,-0.04994927884033484,-0.03990883385366906,-0.02312851351938468,0.012218454689624798,0.06259318398359316,0.11275860203219319,0.14748933749322649,0.1689151917494769,0.18330726847932857,0.19463038390611498,0.20025967765490313,0.19320353391982034,0.16153254130745953,0.10415286407239358,0.036689686419572085,-0.013684503473824466,-0.042506481374876656,-0.06766808417219353,-0.10654804165467056,-0.17248655600621735,-0.270084407714957,-0.3885532268943329,-0.4989626276229126,-0.5436853494072991,-0.46203955083577464,-0.2926988238537323,-0.1314856136376965,-0.00876972429180467,0.07163553523272387,0.10622925011520022,0.09934927097809929,0.06516328111052823,0.03125075542323862,0.024168237720459455,0.06034372433932204,0.1422622379352236,0.26208386004016715,0.3300119341429071,0.18408074179959408,0.04428738389561891,-0.03413354996855642,-0.0817105307140084,-0.11019097150645395,-0.13066428486983903,-0.16237572882695162,-0.1052725024439885,0.043980532223609564,0.07757311378105465,0.09311011059527247,0.1010167494251819,0.10973278073895426,0.13064467178472014,0.18343010780253904,0.2893684331420191,0.3712485946692484,0.3233415626526246,0.2709379513102979,0.23939987776749588,0.20184018872798462,0.13449225322881755,0.04117020996666575,-0.03694588740948499,-0.07430678629667489,-0.07940113429127953,-0.0625939470811879,-0.02428831905281925,0.0482907438038168,0.16286440694232915,0.27065535147673675,0.23674231346773536,0.05719152511085187,-0.1310030756563619,-0.2572755779832772,-0.31485594143710305,-0.3187654736044697,-0.2853300688712624,-0.2330631729155555,-0.1736598905338487,-0.11398862783845307,-0.03296384542292675,0.08894787309843495,0.20833103503225608,0.2609953575707124,0.2756979910943757,0.2853820431015604,0.30897816391073135,0.3552584873858872,0.41483457900918214,0.47381372042943104,0.5210839160706288,0.553780352439171,0.5676250348205291,0.5793747499970253,0.6078032631820447,0.6590575677662058,0.6908023319651495,0.6842489163295689,0.6227715081279868,0.4568341179206266,0.020818325502351052,-0.3685429664377214,-0.44599388613432456,-0.41837367306322026,-0.3621486879779057,-0.31223225624807105,-0.2850900000701098,-0.27953626525982184,-0.2958312488779388,-0.33348555905088073,-0.3866505939942574,-0.44476917186513254,-0.4891095880346966,-0.5103703663280756,-0.516571027521882,-0.5108499460536333,-0.4760030767020034,-0.3873977193393979,-0.2541717659920728,-0.13773976711510114,-0.06345945981301901,-0.013116441593202027,0.031014307336634996,0.08089875344805358,0.12892552616784397,0.17309193675978266,0.20783256719742169,0.24567406137584197,0.30315661885226924,0.3872470693089483,0.424909785798256,0.40382621176510236,0.38739220738467667,0.3955725291525551,0.42671601771322343,0.4614477924525002,0.47266765052567905,0.4275394209122493,0.34556419237296276,0.28754316959339443,0.25646795057390837,0.22869323507289804,0.19592352874425026,0.1456754775997077,0.05956857457255469,-0.045598983705736076,-0.10326853258882286,-0.12586179711001794,-0.11940551721045219,-0.06808891982293641,0.03217926669373947,0.13649729646590905,0.19530334294719617,0.21324990745731362,0.21168660038952958,0.20086445244940046,0.18211659460250867,0.1541692260834014,0.11968127222134144,0.07046348080523561,-0.03230293050899655,-0.16314718650631954,-0.19639312227451375,-0.16374050426837333,-0.08715046249654201,0.022568361288705353,0.1360014765102314,0.20851132359500518,0.22131033274130663,0.1923964460044606,0.14264268478559985,0.07494827474447545,-0.017174950136775405,-0.11935863253036039,-0.193779709548892,-0.23439672564624836,-0.24775456893234826,-0.23022706609508345,-0.16453885607242982,-0.06016836792934368,0.01042695541476458,0.04103702589495916,0.05001868489635464,0.04839899490117559,0.038852592147392964,0.021468226715944352,-0.004366877031901938,-0.03543362015937371,-0.06984112745883184,-0.09347957522669285,-0.08418732346813868,-0.020362311876458362,0.0615113930781348,0.11118592164374562,0.13867960533385656,0.15981120613765074,0.17835506742379975,0.1935885825446278,0.20537274768069713,0.21108333991539155,0.20989640948245175,0.19881584758026855,0.1719259464513141,0.1229868260403664,0.04418252175552145,-0.06975919763336749,-0.19262517240746646,-0.27575890317135365,-0.30231399527999503,-0.3027275233811726,-0.3208107714542022,-0.3750214786592509,-0.448204755558169,-0.5032552709995584,-0.5155769427383833,-0.47866998035621505,-0.4004730011499179,-0.29293407886425554,-0.17286590569493337,-0.05677821458132787,0.03751685419511101,0.105564900894466,0.16450317376928164,0.21834570463435618,0.24350260853375855,0.22685102582428185,0.1900021919484486,0.14474854254199354,0.10340311899245405,0.08158500121348926,0.09031400695489071,0.13711020251860756,0.23072144191471516,0.37028707272940714,0.5240747857578847,0.5415196715565719,0.16005311824800372,-0.2671261910662058,-0.47035708084232525,-0.553981158553742,-0.5811718628948893,-0.5801467838283678,-0.5692728349928664,-0.5608717253076576,-0.5502958444836826,-0.5183916713782182,-0.4536847972180706,-0.3678540038160438,-0.2856977000580674,-0.2050745725565182,-0.12170923899405976,-0.028229915512603346,0.06952683005628134,0.15014835244357372,0.20137661056053832,0.22158764742966533,0.22334220031459218,0.21117034388410008,0.19131636748113653,0.16796913534305352,0.1408041515755772,0.10911146854579643,0.07506302849213022,0.04330858403360162,0.02384420764223215,0.028597623638259656,0.055095049148338245,0.0945696363794485,0.137293851057287,0.17880045905676095,0.222873248089653,0.27963343451644973,0.3550955214287034,0.40428643789538166,0.3344949085201167,0.21605374155960236,0.12015769061945725,0.054795806340900984,0.014953238905030319,-0.005882248186068876,-0.016751060153721728,-0.026687347954882756,-0.03864928337594253,-0.0487691545392358,-0.05218354141195488,-0.04424354462992385,-0.026400286064063295,-0.005674594319324243,-0.0041788017528039964,-0.05623261553999881,-0.18848964007976327,-0.3429367015420225,-0.4434596108430968,-0.48560294126804765,-0.4801099345780465,-0.4317271715695151,-0.3650591510610788,-0.3172521459222045,-0.2963795406848522,-0.28727950308981937,-0.2699157821820631,-0.22723695892003498,-0.1484012382673998,-0.04131001758846514,0.06822068072475122,0.16270988694170896,0.23708302420779764,0.27342599341596513,0.27929413491776384,0.2800175708706236,0.28984574497810084,0.31519178546894183,0.36426156365951556,0.4404065407711728,0.5368840092610011,0.6278471657318435,0.6818183130596699,0.6870271854337289,0.6244610178451023,0.5212104335703587,0.4323415928362303,0.38265016760491943,0.3833905592736,0.40936318496303836,0.4194023724472517,0.38939729802060424,0.3074044337158602,0.17744669662979087,0.013441723077716239,-0.1611828063542982,-0.2987620730407755,-0.35159458547630873,-0.31328199408903573,-0.21174396735538198,-0.0763307374425531,0.07481940280120003,0.1950474828548809,0.225945378039009,0.1817790503220582,0.11181549040149884,0.034857087586751954,-0.05129065528851791,-0.17440335073418553,-0.4059936271042561,-0.21525638152698434,-0.10111994750108887,-0.05680897919125234,-0.029827850936044537,-0.005289385281284821,0.01498868917514774,0.020408776869488728,-0.0028694844040467703,-0.059982844387580926,-0.13520333140432106,-0.20479712276866782,-0.25708450779751935,-0.3072418216372415,-0.37616958339215084,-0.4589821238967295,-0.48127901671938705,-0.40295528948818676,-0.23066134236965316,0.019313428764467188,0.24690138348671095,0.3553215729506505,0.34339797676783496,0.23102596856534297,0.04129415442620144,-0.12966666127857596,-0.19603289492280657,-0.1483075741572116,-0.04743191010173628,0.04982848289561738,0.12329682755274879,0.16765029536768344,0.18026765911659223,0.16180721669419074,0.11092863217488869,0.025453546460459053,-0.0768422201914465,-0.17435774734341775,-0.26745800547208776,-0.35339078050989614,-0.4086224938378104,-0.41154358279557907,-0.3564099756199784,-0.23913824378283258,-0.08763542721134054,0.06886381800308372,0.20763198104392472,0.31580238852145515,0.39995060966481577,0.46470605904117346,0.5084520427571416,0.525165107509727,0.5053221004224723,0.4433956287557889,0.3070306955176489,0.07760738707452619,-0.15224468167367472,-0.25111319495092077,-0.24709271108177042,-0.18351775231514852,-0.06019580756735164,0.12896107965945952,0.3378440987588906,0.4806375018081582,0.5436970713437631,0.5507269271190066,0.49511584531686703,0.35631467810991074,0.1884788114811763,0.08554714029281009,0.0782962111068697,0.16686964145771696,0.3207053693747338,0.425119104036526,0.41336394681590255,0.3266385451606232,0.19813148655336216,0.0498320795609763,-0.06078541285722684,-0.09207596890954721,-0.06915897336002082,-0.026028706373633425,0.026585200477400657,0.08352988915051386,0.1456502871609245,0.1964534256469309,0.21998956296316277,0.23359691647459055,0.24428901106561487,0.24367629154567239,0.2246492410546564,0.1810499018068674,0.09749007322294216,-0.06724241691011774,-0.34552289074101816,-0.6302329005981263,-0.778247623505064,-0.8168502077154379,-0.7779796164036663,-0.6612924347326069,-0.5114691039494575,-0.38527880725443614,-0.2952040533250029,-0.22858325085210196,-0.1792044609444617,-0.14497765094473578,-0.12305631180934323,-0.11247686437023048,-0.11375172061846368,-0.1246397762200142,-0.13225928267239576,-0.125904848764307,-0.0988709489512826,-0.04597933321692631,0.02962455364671898,0.1215630675256413,0.20832020869425916,0.26295628190957004,0.2812169090105238,0.2620461933723687,0.2074126442905348,0.12394257763075309,0.02363702601164786,-0.07313869456085292,-0.14673831323948905,-0.16925369239646418,-0.1356166868068803,-0.0560070623152064,0.05084181653930365,0.15387849839211512,0.2334489776163071,0.27440658325855505,0.2267183213807129,0.10840116869241474,0.044349372195339694,0.03632968212292216,0.05588900981581122,0.08216430568979369,0.10068661114358055,0.10773054207723799,0.11065704106445588,0.11230594583515487,0.11620736109916749,0.12678409796170784,0.15337690671284768,0.20918238644689116,0.32299830871807056,0.39810138125780503,0.17806420436325507,0.0889975316496278,0.04781946394570433,0.011406016063061823,-0.03777108194100018,-0.1142845305048422,-0.21679391379094679,-0.3219740875960887,-0.38356440116331136,-0.38057425057205096,-0.323093881074909,-0.23414330891453464,-0.13973528833836932,-0.061664878575828384,-0.004977639256140431,0.03918235948878957,0.08076059527224118,0.12104510170099836,0.15719030670072848,0.18470673486881328,0.20394866387196756,0.21854026227591652,0.22870892651991914,0.22837692352408054,0.21210912741033164,0.18673924183835217,0.1618999619833259,0.14288937728508086,0.13817208849414223,0.15486239516948386,0.19168211593174234,0.23325819875819395,0.26538131715439656,0.29011423816089166,0.3042630167396784,0.267003361522831,0.1176098510288981,-0.04485229247474071,-0.11918809940228586,-0.13429126388642273,-0.12823807304478008,-0.11789612328537429,-0.10733480312024397,-0.10167592798864122,-0.10809299012919915,-0.12465645059338061,-0.14632779818767885,-0.1679258006795842,-0.17440000268952377,-0.15226594081263414,-0.1120225336069398,-0.07405820903970521,-0.04709711920626115,-0.02429418597696386,0.004705028781943413,0.05232887728062891,0.13009612410982632,0.23009699794565355,0.3219226661010117,0.3883729482999903,0.42616815547511866,0.43535685012120473,0.4087581324373757,0.34358450315979894,0.2387412398755224,0.0944174668115378,-0.07900203028466866,-0.24315913469716172,-0.35707479681087007,-0.3368102549813058,-0.08895269907011748,0.11254531860697882,0.14487466899023196,0.09898776794552025,0.024535662477235202,-0.050510896708682286,-0.09830096122372312,-0.1015145653023269,-0.04830582323192773,0.06621474020225838,0.2242409668569838,0.38470820971884473,0.4826226149038716,0.49912319795058285,0.4600322406169881,0.38758033039347994,0.28238696794066825,0.14686901712155864,0.00319652533794947,-0.13481638561169118,-0.2628525646941143,-0.3761094797377179,-0.44264021702933415,-0.432094865834354,-0.3823709292438981,-0.3464102050397855,-0.3383451542377024,-0.35871727880388654,-0.38964457616983084,-0.4093488865926625,-0.40487069265235703,-0.3660326735463523,-0.2916924598719586,-0.19608935456367824,-0.09514590795657249,-0.004842144596363919,0.07375069052486512,0.14154475137820827,0.1994745102050552,0.2383572417598499,0.24955192856906314,0.22032995460786153,0.14139649641553262,0.021964409282801488,-0.09297672785842351,-0.14146118651502376,-0.10405328816032611,-0.012759354433050606,0.08462972494968478,0.1653474585856776,0.21202218127126746,0.20246028248756973,0.1019850884887851,-0.06129649471925988,-0.21183016895939388,-0.31930304908220586,-0.38500159917551274,-0.4133256733765316,-0.4054423351722374,-0.36702815728356614,-0.3090129088994471,-0.24650981517308598,-0.1766978766384753,-0.08247891922739506,0.041524637813517964,0.14963415499093216,0.19523515282710877,0.17301332900281471,0.08695543515008099,-0.06659830805587334,-0.21782531715381967,-0.2887673135832408,-0.2800676337812536,-0.2016667554418016,-0.08996142423339804,-0.0065470624681173316,0.024292409416450014,0.03295612743914137,0.05200382123687955,0.07322384666265734,0.06978108402932247,0.036031990809514414,-0.026266354921379922,-0.11593032041754246,-0.2258914853355704,-0.33955880902503094,-0.42492570424495274,-0.44651075607625507,-0.40834283511775216,-0.3528808460087322,-0.3072320764544945,-0.2745824997365948,-0.2471400017676402,-0.18841360162252305,-0.04476901936367376,0.02547583758372398,0.03956665802050737,0.04759504729061863,0.06971578535152052,0.10942766566830948,0.15769320551296268,0.19510591035158653,0.2136939846490299,0.2120215446833805,0.1902446164620497,0.1468731602387537,0.08793801752032825,0.04060434148607088,0.051167059660420164,0.12288497224192615,0.2014944081342459,0.25603343663066513,0.2780317609048117,0.275693804164602,0.2631067952544261,0.2551274814902305,0.2505861799044955,0.24506615275397992,0.23678795432667735,0.2261092493421764,0.20774346041470165,0.18944742322947272,0.1895275272097803,0.21997438265305358,0.23828015580057624,0.1875262837900427,0.1457814365868682,0.12619525568420276,0.11921599086640276,0.13149475902340846,0.1952749666902026,0.45432322434072053,0.687911006377394,0.37456746782809597,0.2668087990151708,0.21014675709711825,0.1602704344848926,0.08938333736363002,-0.04130738582608629,-0.2673010495853053,-0.5089581334842508,-0.6144331125147389,-0.6084550550519594,-0.5356784252155673,-0.4041180213472868,-0.23882563790720754,-0.08396507932753745,0.037637336681157756,0.13290210008262918,0.2061987698538191,0.25855482549173725,0.27055556562758476,0.23512527161716879,0.17070688359748615,0.11117034081712096,0.08069252061156179,0.08441970095439351,0.09530652168986989,0.08595865309176762,0.05004885691161303,-0.002774459332231067,-0.06475524889568539,-0.14120934691008852,-0.2420798847348248,-0.36949047864632467,-0.4850415147059017,-0.531146430875678,-0.4717907741070155,-0.2779720131344887,-0.006533365842752887,0.22298938687731729,0.37349826556348625,0.47201557876392586,0.5412194081322632,0.5854677476656281,0.5814122864217571,0.5262741252627753,0.45294246446476577,0.39569813087283806,0.3494609806632393,0.28835782049153663,0.19455856742779581,0.08178783956875628,-0.027631626913759307,-0.12343390154094569,-0.20036092999428456,-0.25422897553908813,-0.29289489939008434,-0.3266018089753587,-0.36364287381818916,-0.4146729476112586,-0.48300938416123873,-0.5441478159725169,-0.5505180657931468,-0.48075879994217785,-0.34472969804339726,-0.19945652485836168,-0.0805723625179217,-0.0030901634139620998,0.03726709293919333,0.05973687547567244,0.08600754564600431,0.11560995561672831,0.13639190735816323,0.1335863762883361,0.0799952379972523,-0.037730834695277646,-0.1558393049076339,-0.20939764436170566,-0.20973349244872527,-0.19204771453578842,-0.17557325629482798,-0.1634132147169463,-0.14725780220770573,-0.11737049908531583,-0.05227318108387941,0.08924472275920806,0.19534074610549018,0.23367863788437665,0.25592683642551195,0.2778700662221442,0.30067423361790546,0.3186825251959713,0.33227757437664257,0.33548370423773893,0.319615566162559,0.25231899503571903,0.09618434690058383,-0.07745077048003601,-0.1770347602688477,-0.20847981256371353,-0.18484866047807721,-0.10750509003067205,0.019897288495106576,0.19064494846850183,0.37274495682731573,0.40972997360638397,0.28228948677213517,0.16274460091284007,0.0876851044438076,0.0432731776152791,0.01849628992546654,0.005582871567102234,0.0013443281003190895,0.0029463218736578444,0.010157122994607096,0.024025046339602396,0.04192295321374415,0.05638310752453845,0.05630724877355964,0.03237432195366232,-0.009925210450352896,-0.053491972647377324,-0.08422741806808652,-0.08429441820097706,-0.03704385765633147,0.05663953442319413,0.17022261467917407,0.27337367719563493,0.3504193351479765,0.3998010779961868,0.4310948314048133,0.4606550477501445,0.49282932822192127,0.4763327374704108,0.38334240538448416,0.28333748360967886,0.21728398352145634,0.1818851205575114,0.16427419872243132,0.15930545824785053,0.1651633439613406,0.1810588712154925,0.1848843015695604,0.1314785190946166,0.05139704393218917,-0.012443817139375086,-0.0675262443558463,-0.12595761689162133,-0.1814544325650885,-0.22952118565105786,-0.28925453754674185,-0.41982864924096774,-0.6734100840042767,-0.8729421578872684,-0.7254775725873126,-0.5178328000906631,-0.369636210381112,-0.26705010768898724,-0.1972995710199825,-0.16130497324435894,-0.16653833864129644,-0.20827512561693184,-0.2786801747269975,-0.3653746415805104,-0.4451222703217117,-0.49332848138328206,-0.5066834711977111,-0.4936735365170826,-0.4725200118420939,-0.4495404297613201,-0.4327130329473486,-0.4246897204665416,-0.40939957677694294,-0.37482810923344945,-0.32011004295195744,-0.2667877502668375,-0.21902320820249005,-0.17053199228576132,-0.11353351613244989,-0.04469568432041437,0.031216453215582158,0.1199637483958127,0.20913737112431807,0.28868686759835926,0.345634201322917,0.3691143150939936,0.35355000763255245,0.3016298417076528,0.22335931902808892,0.1589678699197179,0.12165970664282,0.13431138385427532,0.14522148057719042,0.14019269451012167,0.1779256862489504,0.2483532370816731,0.3503587612270702,0.48405710078081265,0.5993947005250599,0.6035302660085475,0.5252012371247665,0.41441010078355717,0.297271330331109,0.1990849807734609,0.1445993950187027,0.15881505181939784,0.24209651166213852,0.37473581152108854,0.5078947113884273,0.5862203119168138,0.604165772390543,0.5997081637614003,0.591887914078439,0.5853715328801544,0.5609418963294582,0.49661059797317714,0.4032471786875498,0.3211920388400843,0.26619281793929067,0.22601198972791392,0.1892916746393154,0.1581018672220645,0.14991078731738794,0.1691459633356589,0.18369293396975606,0.13717395287973672,-0.004037258935918695,-0.19036873664170736,-0.3298786182621988,-0.3886907542374386,-0.3778782157296012,-0.32023285385504635,-0.2464473158191119,-0.1814716207076623,-0.13230872690854525,-0.09122869540460846,-0.0600762252231477,-0.031965257891670464,-0.0005127774339636823,0.025959555682729632,0.03446735089793791,0.017435286894759504,-0.019865848448862435,-0.07233468514562409,-0.13171968353709038,-0.17527906048488257,-0.1926600477170299,-0.19313867073338734,-0.18238084396247123,-0.16089220338656096,-0.12240219163353103,-0.0667179764125793,0.0007012365942112994,0.06352617535096264,0.11313950544278097,0.15761193001431956,0.2046423056920136,0.2497771259249768,0.2827689330057334,0.3029651831441808,0.33949196829046274,0.4020134491676188,0.4587936335306407,0.4974449059452871,0.5118789380465885,0.48377906107152646,0.3744663724137781,0.1384584946992135,-0.13214855900335057,-0.30817707824925017,-0.4104530735284543,-0.49455905014731333,-0.5715402380445638,-0.5558987189845054,-0.3961271758345362,-0.25736866549754,-0.1883835118036412,-0.16062278897882815,-0.14417332090883658,-0.12754675011085614,-0.12287477638718247,-0.1463096686589348,-0.2107692936438097,-0.2967098983830269,-0.37513083170106687,-0.4057429098833118,-0.3835310563778181,-0.3142036788229543,-0.20312636445173357,-0.06257455355103153,0.07304821933313686,0.16932379427856895,0.2248944678465967,0.2786625932527823,0.35137813255091527,0.40158883439508225,0.4132704570770184,0.42511780159069346,0.45694235011062784,0.49864744994544197,0.5092927402997398,0.43905367720871974,0.32598695895181484,0.24093662055694542,0.18188699724866306,0.10151295509709546,-0.0560494318359394,-0.21491585870230295,-0.2385210063695294,-0.19916163205914791,-0.13864335982322482,-0.07194244002139304,-0.006112160956044339,0.07203075014303238,0.23553214931968317,0.27344895973057687,0.1372606774153953,0.10138198685405338,0.09248594686502469,0.08881594726809615,0.07126640517172025,-0.0008344228010088231,-0.19342090003180246,-0.338064508666039,-0.35327232603658704,-0.35859418679545757,-0.37980490835457537,-0.4171492810651774,-0.4710815406586316,-0.5364560070242993,-0.6002002690202927,-0.626690387646209,-0.5618898476698602,-0.4054768759909057,-0.25554128760827133,-0.17035403108131128,-0.12645286044191825,-0.09119146075564485,-0.043353747228444345,0.007269175231443839,0.046008497198006294,0.07251955037486668,0.09794454072280648,0.1414220892349047,0.18533290637014285,0.20310088969973458,0.2276178745661547,0.2572482307748618,0.2658472593520083,0.2202035925131893,0.1342618699277289,0.055366740590577106,0.012989282329820476,0.030027798695586354,0.1330453691261083,0.31717739501419634,0.44358730905151417,0.4422934284194122,0.38094603654397335,0.30717224345219307,0.23757128455963245,0.18371946496062305,0.15057057256984066,0.1347979249443241,0.134551239010868,0.14723961245319,0.16879588268432721,0.1955742556493976,0.2200744432648259,0.24014546520383095,0.2538806333262763,0.2586700706971138,0.25309790352097744,0.23700889688171078,0.20840639381275244,0.1735953795651725,0.14306817051790732,0.13066639430738688,0.14228436203055006,0.1692856911915303,0.19279842922357085,0.1912210913430962,0.16904650295082235,0.144321778722187,0.12209259993271454,0.10025598039816136,0.07738775530382605,0.04979856932637086,0.010379242064356947,-0.04487545810155866,-0.11406855344324927,-0.19242362471883417,-0.2728098195566055,-0.3081451795469643,-0.2115545522334294,-0.06564605539433528,0.003973707969363957,0.005703604480413733,-0.030276675547101655,-0.07568771024125508,-0.11101313640786305,-0.12891615468875595,-0.13313920124570555,-0.14090699785530966,-0.1581392167393526,-0.17962601739093556,-0.1955811403523401,-0.2006067300940962,-0.1987676384651691,-0.19264854039072254,-0.18749769967917096,-0.18498883680097084,-0.18251047347778812,-0.17833417663868464,-0.17140993557930265,-0.16404274280620773,-0.16172342284434885,-0.17053530523613505,-0.19428342047440014,-0.23212222830138363,-0.27285692364377506,-0.2801475475337774,-0.22882497793716747,-0.1329756390288605,-0.022173681307859607,0.09347755771417722,0.20784294345168192,0.3123834573861729,0.38619990670310084,0.4030218888309429,0.3690772507115281,0.2969101842266664,0.1785520724712559,0.010147664326388042,-0.15766314760591962,-0.2389815346413958,-0.23093547664053177,-0.17805389451980266,-0.11082262093321762,-0.054773818546893574,-0.01851672990967239,0.0023632746064885905,0.02045702115179529,0.052146387797045786,0.10556036291668136,0.17221280954940094,0.23359739764834406,0.2760696051895981,0.2748910228010395,0.17625690742085096,-0.01903004025279133,-0.18265557544229347,-0.284591452786547,-0.3538846410211664,-0.4003184549015607,-0.41591111386838653,-0.3989899269987081,-0.34329643291970546,-0.23873890940573245,-0.12017194497312031,-0.039600161562900235,-0.0049911302341109,0.0011636887568720548,-0.009224963278923089,-0.029957791215025256,-0.05792540258505191,-0.0863926748622175,-0.10746407373486368,-0.11245896949552217,-0.09493322880081166,-0.04953676483853808,0.025624030483672906,0.13403542950761732,0.25776556416423163,0.36014723168777696,0.41612823963466333,0.42778992757150686,0.44197991948858745,0.4854796735309245,0.5328344342868075,0.5471047042390502,0.4852911480034187,0.29274357600637585,0.06950569905206737,-0.05659457189406354,-0.11536586986257545,-0.1546346397656857,-0.1997007980039224,-0.26668697741825065,-0.35893142892684315,-0.46042447110583395,-0.47528663957503836,-0.29780445907116826,-0.053056984741646926,0.13374845320607825,0.24277750805397186,0.29774059903571143,0.32699749212876483,0.35827860923216553,0.408254709702472,0.4836962260554859,0.5668157666236304,0.6352698070358742,0.6491256228570964,0.6135084634987801,0.5464488376619699,0.4684386281033305,0.4027391127883475,0.3846537679803801,0.4255882450976378,0.4813736319855316,0.5053921796093797,0.49148357671781534,0.4604995421772988,0.42887582448581196,0.39837645288822043,0.3538343756555972,0.2624007083789085,0.07323886097810646,-0.17749493715343967,-0.34231858937489523,-0.4105449418213388,-0.42929352846159863,-0.42844362879172554,-0.4117451114619096,-0.36986574902507807,-0.2843837564125635,-0.14897354420994624,-0.014580223000314588,0.06683527098803939,0.10314712652532171,0.1039996464334753,0.05383718708188952,-0.0873785909687248,-0.30292906601221836,-0.4356166617495514,-0.4405300479080011,-0.3821337093273916,-0.3034943238286329,-0.22066013791657493,-0.1444533070509491,-0.07727855854366836,0.0023253016238060607,0.16922338341418486,0.2525819980249184,0.2563209850959851,0.2748460958504541,0.2963636307553517,0.31112654986040034,0.3102117549556195,0.28087569117104466,0.2037339666676262,0.04465139880806074,-0.23510938283493768,-0.5433103750621334,-0.6742764391840045,-0.5483470092114198,-0.20861512370880428,0.043179399331154146,0.1300502223358487,0.12151186438662061,0.05678732431659225,-0.020591864969018138,-0.06914524627496856,-0.07885158625914641,-0.06707733952702837,-0.05528625772416736,-0.05820005168525842,-0.08145932457897238,-0.12327685166748222,-0.1770384344996658,-0.23388998468901964,-0.2566201876928827,-0.23398336105218617,-0.18958467591959172,-0.16560671269449578,-0.1567590582863068,-0.16128055367654484,-0.17724835522423726,-0.19200189672334494,-0.1864334149424022,-0.14887302122353882,-0.07321814550709502,0.0399283637901449,0.18185004115350004,0.3255732044120838,0.4437151813390631,0.5323565433390334,0.5099084067178079,0.2288870554173896,-0.06148119555515713,-0.23467053734811696,-0.3373609925967695,-0.4015552753486933,-0.44586235537111324,-0.4702305264382909,-0.42776023157430565,-0.077330676964947,0.3951588006504612,0.5754305120379751,0.6557195804269396,0.6935450818490291,0.6855445685245987,0.6511330066056863,0.6025707430726097,0.5290162114143871,0.4049318878093777,0.212191504389714,-0.008241108917636642,-0.18239251105664483,-0.28513278618886734,-0.32604090794733703,-0.3230254374544633,-0.28552602507137465,-0.22690415634805872,-0.15458465177473288,-0.07151850519749774,0.023918943639498754,0.10118586169267452,0.14143090789994256,0.15496634503693316,0.1614867127888894,0.17824438928906172,0.20519268218251416,0.22910104329763004,0.2362076748757862,0.21721067742985956,0.17373886492188054,0.11113224772843466,0.040137135484232284,-0.030596217632808228,-0.094495917362732,-0.14676084476731915,-0.1784428896054342,-0.18990682843349233,-0.18677780185274404,-0.17600068202321986,-0.15685566414058502,-0.12042632345779998,-0.04337654194714057,0.08270017602597925,0.19637909811709142,0.259076009930308,0.2892762578347598,0.29283379099190604,0.2579852207541326,0.17877270905107337,0.0879471123513391,0.015657564851199342,-0.031373827938318805,-0.05250897064744862,-0.04866218456807502,-0.014256138738554514,0.07880489322893675,0.09433730391363354,0.039790708655344224,-0.006939302679269285,-0.055767194912758306,-0.11166912022393029,-0.17670005659844273,-0.23969265391991454,-0.2763862213451292,-0.2825574591412364,-0.2631042252308834,-0.20208190206034057,-0.04480267841972156,0.150461792904638,0.24580706926484247,0.2970257383197109,0.3515235581864,0.4400659663440927,0.551571876815441,0.6152386273278443,0.6626847996268341,0.7361342885455934,0.7815349423534288,0.757149878540103,0.7065194459700244,0.6675546120817413,0.6267474651414325,0.5674674038379466,0.47446249533266943,0.32732028949471215,0.18697115339284603,0.11041219116482442,0.09353321839931793,0.11430072800985182,0.15132266919593693,0.18770227044147722,0.21040218493462218,0.20158125406886698,0.14388880880782026,0.038301524884383834,-0.08049339278609763,-0.17327665672598053,-0.22852365361750615,-0.2500720725903668,-0.2513505031424564,-0.24717365115728068,-0.25540279869340743,-0.2856189730170116,-0.33368634651820284,-0.38401762478326357,-0.4075087254290619,-0.38769672735786836,-0.3333895875144671,-0.2656329072529837,-0.20241880530881165,-0.1541838584353369,-0.1209633633806161,-0.1008322480433932,-0.08759767853435045,-0.06864231487803883,-0.030147718094895887,-0.014631123800263905,-0.03183476786996462,-0.06946169183620762,-0.11404017687871391,-0.146461661445385,-0.1502981090229394,-0.11390440497028366,-0.027121329915901833,0.09344315273732277,0.19742463345437955,0.2415425039152698,0.19428881926622554,0.04630982736504402,-0.14705023670197287,-0.3145915856014537,-0.4263018064838828,-0.4818265135960682,-0.48405089557571646,-0.4510953935914216,-0.40545482829411955,-0.35001015977411043,-0.2756021916817463,-0.177573975149165,-0.06852020227200734,0.02166205694079672,0.07188434420967464,0.09002900151899693,0.09191117278276632,0.09173930804646308,0.10251047974190272,0.14155673596517082,0.2081278117123041,0.28962637796016394,0.36585351688882256,0.4282118149785911,0.47854984196316086,0.5180936775949586,0.5476096181259646,0.5690282744514256,0.5788601427966112,0.574397465300303,0.5421468329981821,0.4706874303345027,0.37908328906097294,0.3212830429066186,0.3165351283106003,0.33874191878790555,0.3557283394983219,0.3476534114841066,0.3125040972727917,0.24828762156369996,0.15961086268509878,0.0757302767380902,0.0590031120901195,0.12224170098934911,0.2338368299046752,0.36141867032718555,0.4753409553520366,0.5481465335032568,0.5555107536872006,0.44986820683959167,0.02997193176202562,-0.5084051927948817,-0.6593927757251923,-0.6807415451792165,-0.6566261082926421,-0.605663679536557,-0.5425545718122651,-0.4871229984454714,-0.44531755317326005,-0.3957742109026558,-0.29622872303037445,-0.13536460764489414,0.02304401630919573,0.12721750364960951,0.16833182552841833,0.16391187864797355,0.12739290477201345,0.06955811581402631,-0.000710556820566658,-0.07794129322696491,-0.15287156614141525,-0.19497165724319926,-0.20113632289752975,-0.18670009108217614,-0.15729216866238618,-0.10289389683276323,-0.012480396834642523,0.11207508650906889,0.22963406095237274,0.291678779748352,0.2897299329166952,0.236170042893508,0.15126948266592827,0.052340260253192404,-0.047259744698836106,-0.1315351218949169,-0.1863811382112644,-0.21045195205402906,-0.2217143514808778,-0.21066150169151035,-0.18659301922101326,-0.1911532949409728,-0.24644349847339386,-0.31260242695708634,-0.3398203665001207,-0.3149043493696103,-0.2572048616994636,-0.1927788226766661,-0.12497428820831556,-0.05264006330491642,0.006630914726757689,0.01453909124647845,-0.028110045261836823,-0.08622857409386472,-0.1436988850742542,-0.19726626096300964,-0.23671121483540047,-0.24244855171984228,-0.20066470371219636,-0.12366748491396397,-0.032048272200834976,0.06005981700856719,0.13908643104265297,0.19533847320141068,0.2220525893882727,0.22806795740801922,0.22581205500733317,0.2175123772673157,0.20959238317212514,0.2128671114175632,0.223781647372606,0.2379419035809219,0.25372910753456324,0.28266982958109843,0.32223661673213333,0.3599834252092931,0.3948718131611373,0.4301580923194343,0.4596620566559094,0.4709536669600964,0.4455588163824542,0.37443001159020173,0.2712374951003542,0.17864421882105136,0.12819080922820755,0.12355740370246335,0.14867955734884755,0.1883637793562061,0.23661121159764728,0.2926585371396019,0.3462822633432919,0.3891494492336195,0.4023335169624551,0.37069065949054214,0.31548507493729167,0.2488110593165965,0.1815976945943753,0.12802675662237012,0.09304031693757683,0.07439722417606254,0.059506616666288245,0.0370783430597093,0.004971124465732921,-0.0388291769984404,-0.089655955643795,-0.13384739626346268,-0.16764621462274862,-0.19138104875390055,-0.21054658133435122,-0.2280010100790297,-0.24940622601072715,-0.28119930581337776,-0.32988631247068934,-0.358305838653149,-0.3246610690288491,-0.29795977536870893,-0.2880533299273792,-0.29141123074146397,-0.31277960492230206,-0.34514856386061366,-0.3786918132094699,-0.40537320135577354,-0.42139058255632383,-0.41678367510793435,-0.3780146658815013,-0.28297771472007843,-0.13835517238357706,-0.006761789717293021,0.06787560798471018,0.09330937377476388,0.0953436181003967,0.08953075078164431,0.07702563147873337,0.05385117949992594,0.0283867199533189,0.024087269654107166,0.05891593559826324,0.16891777276527592,0.3810011253564069,0.5684247538763887,0.6214139805790148,0.6168311481613341,0.592337368857634,0.5530033377543215,0.5230506138312006,0.5220371441896686,0.5325213464985903,0.5217586834631835,0.4689593034828338,0.33324575943808443,0.06595969837514087,-0.24057603445282758,-0.3873233279009865,-0.4007596133125567,-0.3605550203416682,-0.3126501003875525,-0.27777144221932276,-0.26585832340268556,-0.27166640976317513,-0.2859271486673985,-0.29389179848013375,-0.26272166107915584,-0.14242101372943092,0.03789702739375027,0.19212327774805885,0.3104033960886468,0.39606200222297105,0.43913227167645824,0.43745709175063474,0.4000481485199787,0.3350763365691261,0.24803287316867967,0.1576710304737547,0.06949426896661881,-0.02595395361176445,-0.14623589935346784,-0.2965857671875267,-0.31676349176213425,-0.1909946107211592,-0.09618949776744198,-0.050617554581321465,-0.052456666577892656,-0.07331782709251186,-0.08631269073209956,-0.08863678440019923,-0.08675749888056161,-0.08836644979526499,-0.11087406196676713,-0.22614798177351084,-0.3799608120588038,-0.1973568502465414,-0.1551464699667857,-0.1460606722021588,-0.1501230386164462,-0.162061529896919,-0.18069374055366721,-0.21132375494246355,-0.24718258402840954,-0.2343178225012548,-0.17811279673217773,-0.1195121522633311,-0.05528858580636216,0.018838679991914232,0.09849056693620903,0.16738153865025926,0.21704951294470748,0.2533453128876519,0.2886029646557988,0.33579652484665046,0.3985821044102201,0.46773073713883834,0.5376974634900834,0.613812492279232,0.6928552471649329,0.7273081632493441,0.6555155021269315,0.520591473202248,0.4043314594259042,0.3238024688021275,0.2630720516592684,0.21093849590285485,0.16016892914108874,0.11030513951055572,0.0727935198536768,0.05516391182848181,0.055020210959270247,0.06844047818497456,0.08420307628685561,0.09168094065030602,0.09638890548214678,0.1099580964800786,0.13483591726620978,0.16882510053569674,0.20507652522881284,0.2380849203740839,0.26543063853737425,0.2880833158539202,0.30442406481646916,0.3049380518526383,0.28530536919472294,0.2526843800033657,0.2050269056854565,0.15516212836647136,0.12327342413289245,0.11372186268440358,0.11828488939335562,0.1267242363397738,0.13548021062820811,0.1486117070880756,0.15916769123248928,0.14776112044676498,0.11086673952999555,0.045064180150186144,-0.05782440284008221,-0.15812002377779744,-0.19140114571532924,-0.18418116026198253,-0.15854007336063997,-0.12348770816842035,-0.08992980884152954,-0.0832876489728476,-0.12417196534884029,-0.19702328171766856,-0.26778963151831037,-0.31685951155913084,-0.345924158459497,-0.3839508293053628,-0.45568507426903204,-0.5297861186127529,-0.5448862282472711,-0.5049737328079033,-0.43545302398147323,-0.3554333310923587,-0.27366549741130164,-0.19890015888014836,-0.13154962305486953,-0.07223347368062545,-0.023359779875312577,0.0032386510497364996,-0.001299880273663082,-0.04481971429757892,-0.10798236034072134,-0.1674947427342614,-0.20912043962306134,-0.22164852076868102,-0.2032677528777673,-0.15382774032638824,-0.07316148436513861,0.0275174676191414,0.1174820902775056,0.17018135461005962,0.18703389188972921,0.18155556047202415,0.17254056638862447,0.18218961004668396,0.23384084973349994,0.3350458624476412,0.3572092065267534,0.2739392216457781,0.20348983940704243,0.1570340058410521,0.1287889674322715,0.12151922175645469,0.1348792988851882,0.15994980079991905,0.18083319907923226,0.18824343886974124,0.18210961612199703,0.16113034730701367,0.12012392884382024,0.05377714364886368,-0.039802254262243965,-0.1490206299943387,-0.24202225763574822,-0.2869724218747254,-0.24837591368685222,-0.05305758874648739,0.28690845329788445,0.4501034552291492,0.43386275651224393,0.34257295984511466,0.22063300546342254,0.10798677996022152,0.033689327641565195,0.003850110613760637,0.0139116369452454,0.06076561097045766,0.1356427173417277,0.19963121164187017,0.1769980146279497,0.029007491851371716,-0.1560294784451382,-0.27720507787610277,-0.3185947461793725,-0.2772173585832172,-0.12126161412659414,0.12540517901049464,0.30169686138192675,0.3732158130749161,0.3869460903387053,0.3537233720201706,0.25344264150253076,0.025348476321688886,-0.3250384795512795,-0.5696404694496526,-0.6712862990132887,-0.7229120225214029,-0.7636579452362149,-0.7936596335432979,-0.8078121109177357,-0.7939447864390472,-0.7207255987905609,-0.585799771790261,-0.4557415890128185,-0.37237297905622413,-0.3220153400376961,-0.27932748685691455,-0.2309861886133671,-0.1767617665756629,-0.12518354447167962,-0.09278771297843905,-0.07890000428704137,-0.07342722630464212,-0.06339269112023668,-0.035770558271251036,0.012430506337272811,0.07839186673681513,0.15310012213101767,0.22067661415446413,0.2556134950091174,0.2523143255315425,0.21850434306929242,0.1775387643022693,0.14031394227429167,0.10684110750682055,0.0797717669890427,0.05950506106628011,0.04929191816670433,0.05222066001515977,0.07553681860140009,0.13937760180187503,0.2867757121820487,0.5663179904700045,0.7435910564311053,0.5805363876572569,0.3714710387224335,0.23005299892423633,0.14758506183286568,0.10854413429029983,0.10044273136995911,0.12432978774994731,0.18732718351701114,0.309208851204203,0.47608638694286437,0.5955417073194991,0.6137561992281726,0.540737120029437,0.4146416129729901,0.2716220448661059,0.14080194604645127,0.04883435275779552,0.011678587206533864,0.031740179248505966,0.10519389584103633,0.22159190709632506,0.3124894045345291,0.2920061213164438,0.2264618889982338,0.18059146701468884,0.1659140778924623,0.18395944867759317,0.23310290839232556,0.2925798604673202,0.32822169587434524,0.28821051169193374,0.1418298273068943,-0.06209508189062588,-0.21745448029849432,-0.25590734888319117,-0.2048724626680971,-0.13099566673349705,-0.07841334508530784,-0.05640556649617722,-0.060481404077955124,-0.08654099727712573,-0.13692573356345888,-0.23576972182392295,-0.39027258796594555,-0.1768514914189684,-0.035681479754413416,0.03614940263427479,0.08654008429525804,0.12397076884976775,0.1479572530831898,0.1507522064179956,0.11784649727285848,0.024817378469236415,-0.14631851075097388,-0.32403730850380835,-0.3995628759627645,-0.37313134764287903,-0.2849592926594321,-0.17898080188320956,-0.08886247181252971,-0.025451744417103878,0.013681806301285303,0.036927821567331535,0.05910241273281227,0.08909142998352494,0.1302092759311756,0.17415122226250537,0.1975488704332245,0.17332819713198952,0.12130703418920274,0.07987735627103774,0.058900268327346295,0.051855266925458755,0.0495323231625111,0.034841192308467016,0.0031213084955805342,-0.03280244739149061,-0.056576308140833864,-0.054479197645995785,-0.035855677666092135,-0.011706167062443928,0.007375475760937825,0.014918754221618917,0.02526598886330753,0.08944618393176233,0.15167534089300452,0.1395388658379406,0.12402927646461995,0.1112377958459614,0.10068683106769677,0.09737941787312808,0.11135312271869839,0.14622548656531772,0.17128485386948905,0.12685472181922278,0.009552496372050667,-0.1274299103290418,-0.2424852607950796,-0.3263798660297307,-0.3958872189236238,-0.4684840614742674,-0.5370799904934203,-0.5775650874643724,-0.5714573442045576,-0.5198242581778021,-0.4297743367315145,-0.30821138987436103,-0.17267517134112295,-0.06646022049563269,-0.012397509028879079,0.002308202063835486,0.004614914969191439,0.006893199868099997,0.009362947654400718,0.01048556324824995,0.0063598058547827165,-0.00862171365850645,-0.038615615185367075,-0.08859824547011595,-0.16687404823076812,-0.2634463281324584,-0.3364173076619808,-0.3356493141774454,-0.25536496787981977,-0.1562732448243402,-0.09169068069176806,-0.06120020219853131,-0.04821960575858346,-0.038859027450092856,-0.03140183093037458,-0.03014544326062925,-0.02816275729530593,-0.005428935038027447,0.04375345359932822,0.09590750904275973,0.13618066463367612,0.1648531780855935,0.18329028182117163,0.18919221453163115,0.19073317687711605,0.2019654293617134,0.2289618573057573,0.25983352748891314,0.2735062008431158,0.25450801044596605,0.18750422877749345,0.06899257821920882,-0.07227444196213223,-0.18265283141289368,-0.22392990260741627,-0.20103425837339345,-0.1597960047882303,-0.1451132590439099,-0.1607892524305674,-0.17924854874797058,-0.16860271014537506,-0.11256596622310733,-0.024107866312248635,0.07100254917685418,0.15671026128725302,0.22811336249165773,0.28625497682853734,0.3300358415275691,0.3557776476592399,0.3502073600330863,0.2781145824305386,0.06787401621349642,-0.2711354420055992,-0.48856581621814477,-0.46422679012530144,-0.23548825172794619,-0.031056560075137796,0.07137193853126994,0.09341400606759177,0.03127239070851145,-0.11805230259874123,-0.2857080253889691,-0.37738790142966533,-0.4058231103545633,-0.4080550876349632,-0.3933720873305717,-0.3466807293151857,-0.24312945450805054,-0.06900262194532662,0.15237496946817616,0.3489897050377835,0.47790338774809926,0.5436644788357717,0.5658535295373167,0.5571330873533784,0.5271165268471437,0.4740957253876525,0.36591632588650436,0.14664271149353555,-0.07365123429721408,-0.12467340755207586,-0.07771278888559181,-0.008795753358477204,0.028134156008124255,0.024397264846420814,0.002569013635648534,-0.014359609415327918,-0.0176261371337052,-0.009818401254820622,0.011189413795373682,0.04987385352527433,0.11158524644263257,0.20614106281424566,0.33383555205616583,0.46682452910404554,0.5405866507643832,0.4849618979124515,0.23630123582345408,-0.09178754950122085,-0.2759350110531407,-0.3454285833640688,-0.33718342275849883,-0.240944997547002,-0.1360034516183465,-0.1033462917817534,-0.1404111693477647,-0.24932756416609705,-0.38672181984447573,-0.3679344887137429,-0.2790610096302592,-0.19231090416480207,-0.11252791734532418,-0.04039811552873933,0.01883672596593194,0.058982287401640285,0.07757258169308863,0.07412989988094239,0.05592908898194974,0.035653909378892235,0.020766347294168677,0.014045938127383799,0.01737470764896919,0.04806356629160668,0.14313404096023932,0.29824844938175127,0.31913925947240296,0.24507355063707478,0.13736117046877747,0.011033469949675542,-0.09601946625465836,-0.14886578610790518,-0.10421762121375606,0.006723448066438848,0.09537937966545096,0.12894809516039846,0.12079657663735181,0.07968792430780938,0.0014549294567680142,-0.10611421627257342,-0.18006573087851616,-0.16203172046392444,-0.0971944607209901,-0.033943167300187316,0.009001567311391269,0.029075042277760102,0.025631849746111143,-0.0008808541763290066,-0.048731585522501134,-0.11966078198177284,-0.21184591304589953,-0.3149748185918719,-0.3843357620316778,-0.3633814868800915,-0.25646526474389425,-0.1104856326482542,0.03469140122888929,0.15575169577601194,0.24007473230199228,0.2757986801842685,0.2633038610605426,0.20904773987280614,0.15908484963377909,0.1415047979885206,0.1498492994223086,0.15765558307436306,0.15855388673226342,0.13798234203089985,0.08451724472627495,0.0061343949568722035,-0.061227840886579704,-0.08355615814669737,-0.04264117286708865,0.03217495962533979,0.08933114042709037,0.09553535129153809,0.06474751652048169,0.00593631871312128,-0.07834327284412035,-0.2049979839512368,-0.34155977952507055,-0.4089120107603297,-0.36728104592007277,-0.24505495714123393,-0.11730099152694605,-0.024049826797237977,0.03630081088202344,0.07310050080594839,0.0838498727754671,0.056795910969603625,-0.026013789577317,-0.17545115634529793,-0.3096661402496088,-0.29550816211743147,-0.0953550454889814,0.18599525194380218,0.3887631402593588,0.48734605464572955,0.520859994367682,0.500794455540918,0.4112921020296544,0.2536757009530409,0.040625268657659544,-0.2098284378526209,-0.432093808167333,-0.5638482514192119,-0.5837804598589785,-0.4876582159806902,-0.2620621276616941,0.0392005682431418,0.2166663067659252,0.28128432663055,0.31453920645572025,0.36619222882717,0.4612243935511242,0.5686198659209816,0.6117599791657112,0.5548803372676792,0.43641632751620246,0.30431156296473727,0.1882628088346327,0.10803282960207693,0.060795165953372816,0.03906855468791621,0.03519427840561332,0.04298323481009199,0.06621315337940198,0.09747457449474162,0.13672740371946324,0.17393230201511606,0.20124416580415247,0.22453984385565187,0.25916680630059774,0.3196101121703215,0.38035919568374454,0.27220285277366724,0.15414674245196394,0.06329826469427928,-0.026507467600936578,-0.11253458516696598,-0.18549879200470848,-0.23831118951130104,-0.2639796101051176,-0.2615733881908005,-0.2396598355791544,-0.209186871378714,-0.1793806278354888,-0.15563670566060753,-0.13806544087489495,-0.12320108009593916,-0.10725517310094111,-0.08729493736104357,-0.05513026125883184,-0.0011195357583993367,0.06946998808802507,0.12676032609347787,0.14348209950763105,0.12720487257782473,0.09466455080791555,0.05952181593762709,0.026479516511879853,-7.842514636175027e-05,-0.012822618896477334,0.01151590302022401,0.1743053772803389,0.2744264479187873,0.26819574899877796,0.27993144366901657,0.29782503540587224,0.3108520310023817,0.30659198378182523,0.27126959584695287,0.17361443740106747,0.013049225741235572,-0.13276130126448057,-0.24481083155373037,-0.3347062791843614,-0.38247564919553595,-0.3986574497718787,-0.4055045934864137,-0.40991937241273263,-0.40979019379888687,-0.3964473598896258,-0.36829626153032885,-0.3197030177719366,-0.25895190008056795,-0.1999145276445093,-0.14004946482457942,-0.07613037270888809,-0.010982218920338948,0.05447096559625318,0.13014928208150905,0.2185019322850974,0.30704822036761364,0.37715537299532387,0.42044454767069284,0.4340030864645476,0.4189827410055056,0.36720982182217027,0.26159223418585414,0.1268048886043064,0.03627290851742542,0.02506127439800213,0.07011856336552104,0.13232810524957597,0.2127887024921834,0.3051143672810023,0.38427491278347287,0.4194553455305548,0.41732631848513113,0.384485478291525,0.308203198467159,0.1488036451416158,-0.07950682963430125,-0.2759651390840955,-0.3563790759665551,-0.3190970779169839,-0.20133021736562853,-0.07492005126694223,0.013824818551652652,0.06991261716796315,0.1071134018982504,0.13604786797278717,0.1720452743719754,0.2267419654484257,0.2976479772616248,0.37833602303499103,0.4440968845917684,0.460905915780854,0.4299906595576288,0.39029154778299335,0.3760442748850324,0.3773329010763258,0.36426103071158344,0.2589521945029611,0.008988730904795976,-0.22614844967505052,-0.337148687589779,-0.3713470988550002,-0.36523384909684803,-0.33857196870071643,-0.30199210379353086,-0.2651590412920103,-0.23866237777543536,-0.22547875232127523,-0.22036067788326866,-0.2162273901575063,-0.2050108355874096,-0.1833207066873451,-0.1506353179890374,-0.10891352765766799,-0.06317730364588152,-0.01646363309213489,0.03314896438468577,0.08913236609515172,0.14820617501834543,0.194473587130287,0.20217125749192866,0.18143801836927784,0.1747560590359873,0.19003314018824466,0.21162726908004525,0.22822848753075603,0.2287161270770298,0.21106880110609066,0.18921492915910046,0.1737950995700182,0.16928047850814165,0.17393183178893112,0.1747186647168852,0.16646819683929912,0.15377471926943131,0.14288488859981677,0.15261246688313582,0.186090677117488,0.23686555397636538,0.28906274165269336,0.3282426867900866,0.34502442623351637,0.33902651225159985,0.3106538550518716,0.26249752824648875,0.19451651591583397,0.1054426501820642,-0.00973343408678784,-0.11913351075034466,-0.1812487032535348,-0.19055807163420874,-0.16284363261883877,-0.11820142672193779,-0.0968948086557957,-0.16348471111753293,-0.33569876644502705,-0.4787648747198259,-0.5092300733896741,-0.4611005929440024,-0.32797536851091097,-0.08330314193187367,0.17787716825297528,0.2863033632855285,0.23146741987626207,0.06997678275050939,-0.14421857328842433,-0.3587086080314815,-0.5140167377987342,-0.582817044267309,-0.5780427800575507,-0.5295816869397402,-0.4517437291680479,-0.3452416947281641,-0.23229391589339143,-0.15233321127828311,-0.12023889798182374,-0.12383106685481135,-0.14445991980563713,-0.1659061723841908,-0.1770936820333922,-0.17694066194389554,-0.16229813623260297,-0.13772106326001834,-0.10890246743385869,-0.08353397946124191,-0.06545857327441267,-0.049960998885970706,-0.017914599093532386,0.04588993444485003,0.14208807120785846,0.25657828795414256,0.354480535649281,0.42358474782835914,0.4801482125535856,0.5511125109033611,0.6438809114844849,0.7390997501865031,0.7989544472582643,0.7769294204901123,0.6499895248948785,0.4619142206319351,0.2837934214695017,0.15621934582482322,0.07928320714365673,0.044261535843452174,0.043100981027127734,0.06535701834218102,0.09451427699273092,0.12167651452513709,0.1422948274680551,0.15131509735002188,0.14702106474985704,0.13046495009158576,0.10366428641546216,0.07141203121620061,0.04274073674772781,0.02429290469412823,0.015872555777459774,0.02210980202254633,0.043882248740370215,0.0824672939375785,0.14041370937307918,0.21449427735330484,0.26168134394159415,0.24538622377382727,0.21329340897870108,0.18552644219564685,0.15930446200268433,0.13079433459689296,0.09600202094391408,0.06294190611111673,0.04995169795606231,0.06135030451763578,0.08262022903540069,0.09391000111430454,0.08560421549085122,0.07559592974550447,0.07431006605833924,0.07798188578668064,0.08282408384039919,0.08260041824734798,0.07334394810468804,0.05173294934278999,0.017848662742587305,-0.0229650700441671,-0.06107861723727618,-0.08394529704639385,-0.08009980821475192,-0.04645021460914744,0.009897461757982113,0.07685724196404106,0.11948301577170713,0.031080813674192753,-0.17278588509415516,-0.3080958946627095,-0.36369858728461324,-0.3731606489773816,-0.3467655809017051,-0.2902902389238345,-0.21475180815633638,-0.14246513706554761,-0.09525723878266455,-0.08218376444805693,-0.09838728473430636,-0.13321277788361643,-0.17765271124126153,-0.22687246209067255,-0.274300081808118,-0.3106116355583128,-0.32568028987334385,-0.3142635549264923,-0.2681846409837289,-0.18700431031186351,-0.08430313915627285,0.014897184434673423,0.09865175587938553,0.1676088050670809,0.22333920023502007,0.26410945480291914,0.2806578457151203,0.27768309793194607,0.26514973856821994,0.2504433854704747,0.23297364282383567,0.21825586738134212,0.21434572640203428,0.22328961701423525,0.22878455041820187,0.22008502545544545,0.19024257831447322,0.14533923417130734,0.10466716444304086,0.07926415455443671,0.0706787857169358,0.07393556471627588,0.07718631014532454,0.0740437170567347,0.06833416927773485,0.06306229195938846,0.05990630282264199,0.05912774889362498,0.06891920225899993,0.09820372552757183,0.14870203378368715,0.21171305604136095,0.2693450908016524,0.29507585226019756,0.293925847744064,0.30225854318105405,0.3354535063432072,0.3874351945309666,0.4409897847926049,0.48590818141535225,0.5072399655274905,0.49678325981190824,0.44805720195878934,0.3799446984729142,0.3151531390849547,0.23324877001129812,0.043496970130405134,-0.2860949514712728,-0.40085914470042566,-0.37430652882319276,-0.3340225501293765,-0.30630698004921275,-0.2915874665841186,-0.28519373574259077,-0.2840494649533486,-0.28865636343973017,-0.30887965850638605,-0.34739646455007506,-0.2224619617522231,-0.07913823257351972,-0.0424269692685027,-0.044103517696733104,-0.058396649259902525,-0.06549447602289282,-0.04447926471348047,0.002594393772031609,0.03773664012677501,0.04229791403714902,0.031710898051099945,0.024965193424446516,0.03913039694687517,0.08743856230298046,0.1717143250176737,0.2765844239656855,0.37169061559650224,0.4435869201951338,0.4952410572547466,0.526005221659348,0.5235278386797545,0.45071443463951744,0.2130931140203289,-0.03129383312325804,-0.1659601875957637,-0.22816037720537105,-0.24855611621287244,-0.23484001024634688,-0.2007703576168563,-0.17063433086879481,-0.1606433153897469,-0.17431710266390754,-0.21400543558498275,-0.2399662002359977,-0.17153588388770408,-0.10823062738731946,-0.07133776209524696,-0.040798366345224345,-0.003427097719146601,0.045103157016501715,0.11776414868165715,0.24655767554488697,0.45189314854040175,0.5618414713349859,0.5121975297907707,0.4511949083374553,0.3964611527892797,0.31436580011479076,0.16213395852121182,-0.05080947599134016,-0.24021214592794388,-0.3536170740595583,-0.3930088480007984,-0.367786062033747,-0.28855631753481964,-0.1763808737638469,-0.057733649255378064,0.052620640827349956,0.14147838461072587,0.19432788568610954,0.20188692603647768,0.14732522620565813,0.0463279002555831,0.040709117793129766,0.17402739964318834,0.36876721203389207,0.532703596963385,0.6226146197746866,0.6197391167029386,0.48812821791077726,0.16460920045387353,-0.20102195361848613,-0.3840568968694893,-0.3982599510382667,-0.29081794551276446,-0.1023619049061874,0.051592345212735,0.11328064617841002,0.11970079576873024,0.09787076829117511,0.05758328126172855,0.0032212411059008446,-0.06315330986587592,-0.13994221445337882,-0.22673255829884395,-0.3210288083775131,-0.40258880484251075,-0.42075209960022675,-0.37574445992263683,-0.29391776607824077,-0.1964002299271151,-0.0835361115978023,0.023687666809896923,0.10359338194297528,0.14227860131841302,0.15481385847134457,0.1581667823480332,0.1586989157277477,0.16088270477451078,0.1591286363179457,0.14680272206757608,0.11908864844686501,0.07834134751840255,0.030627261135130476,-0.012505734036311921,-0.04117133112235589,-0.051697265378803814,-0.04201420672233528,-0.012832933124274724,0.03622697859570039,0.10230548144744323,0.18190050585785253,0.26217028234862044,0.32817013018747204,0.36303803289883235,0.3547738649669351,0.27427251771975,0.037463666778938066,-0.3700154091547592,-0.5571118041302803,-0.548753276375017,-0.47977444134703057,-0.3819470669422465,-0.2705804808389719,-0.17042414395413197,-0.09008084629641086,-0.024834768295493147,0.03199511536683078,0.08665049321380756,0.14308464380652747,0.20679313766103907,0.27593600529897444,0.35135026789879364,0.4178771849455941,0.46515009124719264,0.4854717570742323,0.48389941636309414,0.46894234715054045,0.44754754038927574,0.4183948052514766,0.37129731518979986,0.30404735347963224,0.21974740101638318,0.12897920696362908,0.04159028878783489,-0.030356593792817552,-0.0775015293265474,-0.09711018401375081,-0.09163428824056637,-0.06741370651304673,-0.03745311704049288,-0.013482717290598169,-0.004518688825007538,-0.021911962800255695,-0.06626701571196596,-0.1155443629831387,-0.12959540514766216,-0.1023813464264956,-0.07004393318604173,-0.05782064202303058,-0.07110221258380282,-0.10299398530804532,-0.14700270716313898,-0.18319282988236166,-0.18310724890980606,-0.133093456896911,-0.057605824309942405,0.009580630567639557,0.04324282813843846,0.042099829282246454,0.016551627142913326,-0.0069689549896681,-0.011706862793984736,0.0038983694533803416,0.031093770426537107,0.05879039102860911,0.07530916959581278,0.06900271173918408,0.04347958201937761,0.006404296092100268,-0.03887904910897707,-0.08931508629827131,-0.14175298287381968,-0.1910318323625625,-0.22665810562854843,-0.22791947933605586,-0.18769483685620902,-0.1179321639532269,-0.05035284028535422,0.0017495234022558215,0.060026484370224675,0.1277182278490874,0.18877437442952127,0.23506243387598638,0.2587785569837459,0.25844850821354903,0.22427752818658997,0.14982126525071038,0.03700024403440126,-0.10438261547416071,-0.2277577743768367,-0.29761858993520185,-0.31539190905719,-0.27663768614278367,-0.20214380378068986,-0.1388372837260571,-0.12239126567596956,-0.158206050169723,-0.23712120960323751,-0.327557339820943,-0.39175456530310837,-0.41016657619693425,-0.3733898556479623,-0.28837261028278116,-0.1900946859324516,-0.11404375470765718,-0.08017209130177352,-0.08709702768908517,-0.1128888942707461,-0.1169313053232014,-0.07418656087881183,0.030353328617479906,0.21985083578494286,0.44279920065929945,0.4937876260981627,0.4390603323042911,0.37764906096692025,0.32222017032228045,0.2611922412258212,0.1840874409249678,0.09023305926659467,-0.011957394083284358,-0.1026534044095762,-0.1684564491278568,-0.21240838313237098,-0.23718034345751854,-0.24210561209047152,-0.24519177929313107,-0.2553184139989271,-0.28474708829749923,-0.31851914452836794,-0.33139795354523777,-0.307279151889319,-0.23568913451203719,-0.1391144362351936,-0.035860499533900525,0.05900195566235381,0.1328820863526976,0.1740922480947187,0.18462258152794767,0.18195501133232497,0.18182771311351656,0.18189367924048944,0.182399053652544,0.18128823784378625,0.17024720008512528,0.13686651444338965,0.08390543420454151,0.03185017322608822,-0.000950043354876124,0.000679574334854181,0.04194994429131906,0.11519048341385585,0.19897055555635534,0.26407060185509335,0.2828568302917958,0.23228705089596294,0.10973199757765648,-0.03840566871148181,-0.14211723718775243,-0.16649060767469595,-0.1164169226207639,-0.009303067560540978,0.12215474823822806,0.25054199571303165,0.3664425374152261,0.4630523010370211,0.5289688344513794,0.5645992604959995,0.5796279804367575,0.5828681224620538,0.5570775497627766,0.4254852199355088,0.09159355699490715,-0.23040632688527726,-0.3860742076573513,-0.44135952649171967,-0.44653548488744405,-0.4241808867609117,-0.38859491065526813,-0.3535052084834851,-0.32743356052025413,-0.3104730168777863,-0.29384338333723364,-0.26045969600963226,-0.19336366478831007,-0.09830673690671311,-0.013613850387679935,0.03127893376327033,0.018835642598815084,-0.05190927570013328,-0.13158353636881973,-0.18892915360895843,-0.23546305483277324,-0.2838293658566757,-0.3204998931729596,-0.2902659760720651,-0.17648409778222676,-0.07177772419151571,-0.00036720689241506846,0.049312727594243794,0.08767466903416862,0.12428265787724677,0.16707727235573747,0.21715401993807334,0.22303178035972437,0.12438240073634602,0.05534052274026,0.03704844542352106,0.041491533735289486,0.051788803467503426,0.06616004703307773,0.08950444612995323,0.12799062563688737,0.19694894552863557,0.30559322099075664,0.42513435235171665,0.4889265955128011,0.45737971499480345,0.3710037711099314,0.27848594081205974,0.20159112929239073,0.14174114549727862,0.09201618429717506,0.0434036315496613,-0.017356237004568377,-0.13237562693346244,-0.13586718303231776,-0.05483148890257663,-0.02115033769043908,-0.012142668593308885,-0.02225287489172048,-0.05001779077660036,-0.08667258562685538,-0.10289930173912414,-0.041724864883974845,0.09627437441824614,0.23270310164605687,0.30716015330754987,0.3008464481634139,0.22201852531211302,0.10099960300673647,-0.021618871249072625,-0.1082349376751411,-0.15247641791839311,-0.16319640485037878,-0.1484541587109181,-0.11998083794456538,-0.08700596527411308,-0.04722749507668419,0.010483401386198885,0.08802245816804483,0.17571593949376108,0.25334825197526334,0.3176687821472122,0.3714139300431071,0.4224884792942467,0.4637779036826192,0.49174808346747767,0.5055541540093066,0.4929774281302644,0.4443577263999282,0.3651671564937858,0.26735082926625425,0.15927497514176353,0.04955417237929664,-0.04183036532521137,-0.10225725465519216,-0.12358088412732658,-0.09925136451239731,-0.03601170691764164,0.03635824180932279,0.0896449124446504,0.10685827689311247,0.08291203519134106,0.04129753125244885,0.01730351950917662,0.044342645320149976,0.0962921884238989,0.10057169718519594,-0.006855053471331694,-0.24485518555189514,-0.46030800482371337,-0.551390432736677,-0.5737878353465413,-0.5694213275846756,-0.544976150452124,-0.502049809230822,-0.44350202866081495,-0.3709240005178041,-0.29710032661179453,-0.2422024673909266,-0.2110260433968211,-0.1865434653978298,-0.13257272141240944,-0.044074454651121066,0.053618197664080845,0.15595285140330456,0.2521632068161642,0.32883926507331224,0.36435478112063824,0.3332096972553148,0.15051053752620194,-0.26909691385036266,-0.3877114233523907,-0.3843942415669356,-0.37628372754491196,-0.3731125335056677,-0.36914799810466287,-0.35002890880321197,-0.29520186645912894,-0.16214570915812448,0.08869535928317548,0.27506751274033786,0.33037018101103166,0.3411242054827502,0.3263681475516147,0.2678368658534338,0.15356556469984206,0.03829204803815912,-0.00681412056728898,0.021473522566642454,0.07814951245871632,0.130069635235523,0.1765521272100275,0.22667935674572687,0.29978985172503825,0.41390029086223107,0.5772042247205108,0.7357868337171634,0.7645046362449256,0.681453832261965,0.571575376137703,0.464678561732247,0.37094040319418253,0.3124355400516735,0.30164522429897017,0.33418916092138123,0.3783626637737969,0.4144019035581189,0.43235754255965014,0.43321651061268523,0.4157704101416995,0.38129165316016084,0.34737438142036514,0.3133669695428248,0.2717786315104271,0.211279701430268,0.11188137856975175,-0.04269611852221193,-0.21612072383586042,-0.3488058690779639,-0.4229374152827398,-0.4435705032574617,-0.42527169518613483,-0.38496121466049554,-0.3472052455351337,-0.3448945564369758,-0.39093279437725686,-0.4700945929557953,-0.5516076116905776,-0.6095718606126612,-0.6063131190570734,-0.5158481059962333,-0.3615073538916112,-0.20550047664352405,-0.08891049137522151,-0.02435843295305378,-0.0169866331841483,-0.0626696862909232,-0.12883896614239643,-0.19085199286666205,-0.22336541173146846,-0.21350820729083925,-0.1689785752858242,-0.12193059432325265,-0.09378718674730044,-0.08490826017017072,-0.0795273182337021,-0.059212634059971514,0.005553857229038822,0.09479943642718743,0.08726033660484764,0.04960952329289289,0.00989286951562231,-0.02033213035694429,-0.03411145984135479,-0.02706630537526955,-0.0026387066486620635,0.02857881797675487,0.05158375743520295,0.06619564176082508,0.08424271592388942,0.12052683593465831,0.1760816670504621,0.2444621868392136,0.31769144982307307,0.3843977834687036,0.43700381751897244,0.4730670978227373,0.4966519732643297,0.5216479719253826,0.5549443914827342,0.5889693024928525,0.6111754244681262,0.614460328195996,0.6060278228544844,0.5986142334432301,0.5927324417638454,0.564289710729035,0.4701426239933615,0.24312319937356333,-0.1290838065501517,-0.4308282267848299,-0.5581996410262335,-0.5805948657423796,-0.546468590511335,-0.4849232125036929,-0.43369410619567145,-0.4174128671507932,-0.43752799967903927,-0.4713490143558592,-0.49672417933810104,-0.5091577280574671,-0.5069804185738331,-0.47284981528169584,-0.38465502319280187,-0.25133979336965095,-0.12855633491280974,-0.055188178451896344,-0.02929009000432299,-0.036212983195135974,-0.054047075993628665,-0.055790134850613654,-0.014815948790001957,0.07383188093783657,0.1863336515681094,0.2986495443954309,0.4054186896421374,0.509024573200486,0.61220498896909,0.6894866098871366,0.649511098821994,0.4562901762565763,0.2358739271265665,0.07619395451494584,-0.020354686133529594,-0.07326162715188379,-0.09270253420771199,-0.08720657486424031,-0.0674972879782091,-0.03838471315051127,-0.004195463416229085,0.020703330586349596,0.0322729871145899,0.028605086072049236,0.015621953448433232,-0.0020598965176970023,-0.011716930873428169,0.00781705701351381,0.06377413902310448,0.12241965189032637,0.15141313022899283,0.1499629503230003,0.120013927404755,0.09995419438279843,0.0622587236775904,0.006171841041190134,-0.04248487626880602,-0.0876960163864176,-0.12214730382455961,-0.14526752026162118,-0.15762975723633826,-0.16104441602670452,-0.158113761755672,-0.1542334146456517,-0.15420368316921884,-0.16161450118090032,-0.1761053232706943,-0.19312325115308296,-0.1963465485974409,-0.1368132346556937,0.07205856427010887,0.3317531445501632,0.48041615209468996,0.5544248421446333,0.6009549453707335,0.6401867276555983,0.6448897670367755,0.5683783769563688,0.42853021790655027,0.2882177192626315,0.1778885613379477,0.10419524247779077,0.061759168643890416,0.03425717323736691,0.003368458699615965,-0.033981460412393916,-0.0624392416872424,-0.06215408824499994,-0.03109020548502887,0.017207353739985845,0.06560452654845964,0.09314398004142606,0.09192392434662733,0.07285549047451488,0.05561471784250107,0.057816239052749276,0.08013016981450213,0.11376927301685816,0.14560214441149927,0.1652575269480703,0.16273003128659957,0.12483587184080167,0.024075794831277884,-0.13054808520890807,-0.20744649850654506,-0.2147475784629328,-0.2108919576018993,-0.2180151165692916,-0.22513060007503824,-0.1767740773139994,-0.06359027237976717,0.013426139402603,0.02961193427389613,-0.023563647864401665,-0.1532905610970621,-0.34061256602382983,-0.5062959714205937,-0.5830586854733762,-0.5426016213004612,-0.37271006090280046,-0.13805114873812352,0.05113994212923213,0.15463324812352347,0.18775702059381333,0.17930901231027394,0.1474700235044423,0.09660769888124403,0.03891543185567195,-0.018193606257213283,-0.06648619576740647,-0.09141835441997682,-0.08983818146738963,-0.07009871942234468,-0.04135521138947609,-0.010128102169888931,0.016055604751405442,0.03187448759334633,0.031182074798741966,0.013895615299450837,-0.006915466047995783,-0.012350100763635834,0.003516530804561795,0.032895989493693885,0.05804442236160557,0.07120987794548944,0.07906179752751226,0.091068672941025,0.10679302491873109,0.11162376047709012,0.07554129339258478,-0.02818914694970883,-0.13801356004405477,-0.17696088991010778,-0.17048040628151984,-0.12880438973983294,-0.057138052721338865,0.007040418428008439,0.04461422623010254,0.056455415270490306,0.05282877581579831,0.05281098654665652,0.07653455312630189,0.12604143593412304,0.18310577462289435,0.23844523640989035,0.2829662157853631,0.3120807599074936,0.32381141518914913,0.3183794517677672,0.31472537882071827,0.33345387138019156,0.36956341764185524,0.40837495110189537,0.4526160640302479,0.5052387795918473,0.5501505085199094,0.5662456152651039,0.5569242885853927,0.535160147078488,0.4996991993371674,0.41932861730969334,0.21846023297554543,-0.25510556953235275,-0.628871478922097,-0.7106992548770349,-0.7456283433519205,-0.7910027073878567,-0.8262853696039723,-0.7669297358146411,-0.600945082363921,-0.4396212121405694,-0.3232599643291061,-0.24259869210367485,-0.19329786706554994,-0.1798511078921462,-0.21956329587571927,-0.31429895082910514,-0.4299701629559408,-0.5274438039357731,-0.5866967116998237,-0.6083601050736722,-0.5866036952101551,-0.5223895623948525,-0.4055465226343102,-0.22737095247721756,-0.04640308700668517,0.04912776623217234,0.06059825989519237,0.028826689475566887,-0.018460805015554915,-0.06592521620901257,-0.09767793657701172,-0.11343828331547225,-0.11654407345321052,-0.11306296534165493,-0.10804229438500089,-0.10062915586170817,-0.09573737761754504,-0.10084474726295087,-0.12158273760883664,-0.15172015782382106,-0.18501198289090393,-0.2074772917677003,-0.21198195006028073,-0.1868116839910504,-0.1362492950890587,-0.0823454921495207,-0.03639116953329361,0.001754090147282773,0.0401823303797522,0.0850432352690111,0.13625452851305378,0.1908212569329992,0.23833868332961938,0.2736562819430248,0.29818285853932264,0.319354780475768,0.3414119142957297,0.35702549172236,0.3661994763773338,0.364924026788678,0.34310856732865386,0.2995087361755205,0.23767506268867075,0.1670822837840014,0.09997320252191876,0.0535984045593133,0.045771840677095214,0.07956749438369203,0.13039525926053883,0.17577566637876116,0.2065316079729822,0.21902088670774614,0.21296168203388055,0.19113296385497172,0.15356007158799398,0.10543202298719213,0.06216705869107225,0.0427151485608598,0.05515380808390241,0.11363091502527839,0.20602055025025734,0.29365265940547103,0.34922967354525175,0.3693419033109342,0.3492133790584373,0.2894088414369547,0.21044749351336234,0.1501859601553811,0.13356196562058728,0.16737258567562233,0.2279462106375045,0.269481361369237,0.2684023937432434,0.2196222085609256,0.137339914887467,0.04633285918367903,-0.029990541013027956,-0.07107280622800663,-0.07171437658032072,-0.036725436269140696,0.03045220146992231,0.12570462954597564,0.23226658006127002,0.3207535702325916,0.35081974974629765,0.27501988180399295,0.06695284851870217,-0.17217589502367875,-0.338742465087445,-0.43692857598665313,-0.49236350128114537,-0.51069052572369,-0.4892925632343327,-0.4405980427977747,-0.38277825295574813,-0.32914335901739167,-0.2790768343995634,-0.22208003216527267,-0.1495875204864001,-0.05865407465996325,0.04985951434580197,0.1646948403484001,0.26515797018407583,0.3067354835568643,0.2443155531502494,0.08086638772342751,-0.11588625787788734,-0.2799562654832798,-0.39793200756928887,-0.46547014364361083,-0.47893612055231344,-0.44807265232720306,-0.3907432168218163,-0.3244696744908927,-0.26280781919424373,-0.21628191474636058,-0.18521737182382036,-0.16781597074288926,-0.14588935046568763,-0.11620510809613288,-0.05372725992821872,0.10195484005777158,0.2824039045538141,0.47647680089092687,0.6162615105267855,0.5940912160713746,0.5393873290286958,0.5023810826573681,0.48034441207754447,0.46636988383273403,0.4478342316666669,0.4051058411523576,0.29335863429821113,-0.0012862454072487893,-0.4906002081761862,-0.7520178851157393,-0.8205470606756187,-0.8421802779907458,-0.837997420014899,-0.7854110153529603,-0.6577912208288739,-0.4999912319869518,-0.3707102870127126,-0.27170734763094595,-0.18314684520310676,-0.11718215658499403,-0.07932296264810912,-0.05416862292773639,-0.024906177958265014,0.012152394187884856,0.04311363037055898,0.043640048575550226,-0.0011843287989544108,-0.06866643020742699,-0.12036796413968286,-0.11645825880600258,-0.0713231776396626,-0.012957636238166535,0.0421970521413459,0.08672204626790153,0.11516120802729607,0.12322532565509073,0.11490128170146933,0.0967365298244346,0.07504590245754462,0.06386664056570752,0.08561607778555971,0.15932267189982185,0.2692703049982798,0.38216554347797066,0.46128605683961915,0.5125899246833947,0.5352258045650579,0.5011933468001981,0.3666414520438367,0.16042837442249117,-0.02521319277560234,-0.1314337637533756,-0.14358045020533622,-0.09130273346296876,-0.04075329783677549,-0.0283184538458298,-0.04523793803780604,-0.06810453699588687,-0.07513708434289074,-0.06456084929962043,-0.04239551661061663,-0.015010791690568598,0.011551615031008124,0.03312912697113397,0.047710996645672195,0.057676469588783905,0.06550877286666523,0.06843840978509778,0.06494359008374302,0.0469835108469126,0.03790585532932307,0.03323715212848262,0.025236308612847005,0.0313510829979812,0.06030969772981162,0.10538592575994699,0.14437783953749442,0.16846589827060218,0.17886072891393923,0.1744965379543865,0.16082516906286895,0.1492289812754398,0.14886956976191087,0.15962492962889777,0.18181874559676606,0.2102179374598056,0.23445050602037998,0.2513999686512794,0.2604430434330795,0.26172418593895935,0.2569396868489294,0.24436552681195203,0.2182718056931432,0.17419037258216047,0.11978283343150384,0.05490822068557263,-0.03127871668911495,-0.15740301924025904,-0.3393044216376264,-0.5614835729573018,-0.718409244033433,-0.7333937074470155,-0.6877162679756196,-0.6388830342435469,-0.5910415293344151,-0.5361189296525753,-0.4635245186007416,-0.3744068900810117,-0.28640976023093867,-0.2166684441725781,-0.1759311967306266,-0.16403892038263843,-0.1830211908526559,-0.25375077802609575,-0.30346837031072543,-0.2312461315888411,-0.17699712978322424,-0.1600155888805792,-0.1787378623001621,-0.22498329459997657,-0.28412646051226464,-0.32999417830061106,-0.3437521767245647,-0.3217162434049005,-0.26675776256444167,-0.19042912466298798,-0.10595103955203448,-0.033402879958925366,0.014545638324525925,0.03945758809036399,0.05125442513366614,0.05517904596648985,0.05742549465469787,0.06675057033404876,0.05791701987430335,0.057689347328540405,0.06855532318003547,0.08646712225067875,0.11791453296719671,0.18026468750831784,0.308260541239502,0.5228912702500963,0.5208716783068911,0.43679544384087443,0.41272761871719743,0.45560395606584114,0.5704159720517928,0.6728718787434232,0.6577808260283389,0.6151797192653469,0.5859299607499323,0.5554978925942178,0.5110375198885102,0.45088911437178275,0.3737556531113478,0.2704791533880012,0.14596143054312763,0.04756731982459158,0.0012418629427566308,-0.0066695823606098045,-0.0056986328581913855,-0.03047871176714907,-0.10213093405187752,-0.22127439523985662,-0.3489745601184779,-0.4294269011727075,-0.4315139761667954,-0.367174796674501,-0.2788859975202669,-0.2074460779491857,-0.1711675076016803,-0.16585343668126917,-0.18338704419759813,-0.21051138393888022,-0.22811864802821,-0.2276212578951334,-0.21670534029767718,-0.2021151335429025,-0.18574936992220212,-0.15514644023174554,-0.10536323537983071,-0.029159599383203724,0.08167174244804332,0.20413481543243162,0.28341445352478933,0.29428945544840773,0.25271378229611496,0.18385522670323193,0.11091692729329869,0.0561130731601552,0.02296540045114817,0.01011375447830844,0.014912098513515078,0.03524927164308121,0.06784500090025933,0.11074501226063897,0.1530361787026396,0.17009217747733582,0.15298878598966936,0.11988104387795642,0.0887142691862608,0.056319946472876345,0.0186010864632384,-0.02063210542544352,-0.053503813687142535,-0.07703078218262052,-0.09055634586359501,-0.09430939547037431,-0.08790194825477393,-0.0754443044143072,-0.06148880147135055,-0.05387175405161776,-0.06236721437790434,-0.09365042871138751,-0.15209239002116975,-0.23075627475010346,-0.3120924141360732,-0.37583105295782343,-0.4009047915417418,-0.3627461027295189,-0.27002003053359486,-0.1696300914830348,-0.08892804450409114,-0.039674751592708994,-0.018943833491478705,-0.014955378098197502,-0.014053124625257138,-0.008501736664876138,0.004770681621619686,0.025855545742758734,0.05380539251161638,0.08105312977298976,0.09952962217527546,0.10720292562728449,0.10667730725840846,0.1004921043647994,0.09486378006619527,0.09698844343510524,0.11370552297754744,0.14344531743384967,0.18145522810187503,0.22676310310804323,0.27839384980487414,0.3316067812820446,0.3766925309255207,0.41064169506420434,0.4291454471561783,0.4245435037088514,0.38997833670173954,0.3220811708196327,0.23114367364535676,0.13961305823943784,0.07772083051513838,0.07061163067568697,0.1264971894600294,0.22573664481468084,0.3325561793130215,0.4124073615320851,0.43719264064123137,0.39938406744091304,0.3056873667849538,0.15544813096223103,-0.07667633683315428,-0.40615745049651364,-0.7061593611013245,-0.8393166707666903,-0.8593018274476321,-0.8353830994721154,-0.7912229877232363,-0.7217783331547657,-0.6317771741167294,-0.5505240274611611,-0.4915796175965252,-0.4441896036832356,-0.379874376015498,-0.2827986036803544,-0.1653948523817249,-0.058847929867557325,0.01548579107537827,0.048773022168679354,0.05466836298886209,0.04286217617788658,0.02346094631025731,0.00503968625111012,-0.0051772902010973594,-0.001472035926761845,0.007425815315690429,0.005625004692924858,-0.014296608562359349,-0.030611325394628276,-0.02407467482585836,0.017940659231287407,0.092752293327702,0.2029354166061868,0.36053970201538266,0.570564397026736,0.778252385717115,0.9131211176832613,0.958546744327917,0.9517063638665294,0.9234564261459871,0.8929704919652554,0.8689137862727478,0.8497986243566189,0.8059905553493332,0.35021483692817734,-0.2722025204516291,-0.3848723246057621,-0.3756946126070571,-0.30448509765801574,-0.17308268557255915,0.029289588969722658,0.27831103658907963,0.46031127608020156,0.5186237508037477,0.44723304228505073,0.25902306166781774,0.042100465849075425,-0.12006048437974083,-0.21147692328757137,-0.24849359467217347,-0.24121103334438432,-0.20477386571171852,-0.17668877177693312,-0.20781942053601146,-0.31907793541111146,-0.4742533370873412,-0.6047334478869374,-0.6842604512977648,-0.7172866778741274,-0.7143099137419973,-0.6840015304209395,-0.632285176627322,-0.5694699053498801,-0.4972657702597363,-0.4102447732369117,-0.30440063460251837,-0.19606359643080917,-0.12669876765344065,-0.10491558371306539,-0.12224132204047418,-0.17653486616272168,-0.2566990573924494,-0.3557045536831251,-0.4770905837824119,-0.5982271169070015,-0.6287022638449669,-0.5715943095863021,-0.5129382820600698,-0.4523248684968694,-0.3760208260006707,-0.29311730979314193,-0.20440762334074317,-0.1212459576962337,-0.05158196638181099,0.0011568219346545139,0.03702985033273873,0.060072883718103924,0.08311228318739798,0.1097635494955135,0.14415054867471,0.1936176413952372,0.25830364966384906,0.3316589815317436,0.4223075277919915,0.5082325719782825,0.5267539396010924,0.481879592715837,0.4322293738637558,0.3879215278802491,0.3445911917818642,0.3050539259305471,0.27243177591124673,0.2545809468968529,0.2454429862023722,0.23491659142100846,0.21267223442705954,0.18304923772099482,0.16681241843174113,0.2357293254230732,0.2530307358361675,0.230651953701866,0.22691383243100186,0.21665794879203124,0.1829321206258017,0.12054388621301766,0.03712725694789469,-0.055121303100038634,-0.1440204704839792,-0.23084279260921378,-0.31897337307801593,-0.4041019220011552,-0.447267376079624,-0.3781934830333077,-0.2385443406774591,-0.12460759227508743,-0.04806602252076235,0.007444227180986427,0.05456458480473715,0.09628885370307749,0.12650439659497667,0.13659199717325554,0.11891548585650141,0.06857357025741152,-0.006449397820811212,-0.08161660293862115,-0.12894032117031715,-0.12534399323148387,-0.08236481259299964,-0.06555911639251814,-0.10713041394313691,-0.1702246277984619,-0.18812575957662075,-0.14623625489998265,-0.08065486993658627,-0.008333010004791959
