0.3721677683802226,0.3059050828482172,0.25623830755027155,0.21842540915694791,0.1775097907604732,0.11065692944592972,0.009313029731278795,-0.10348080240272214,-0.16816757252509915,-0.13279278433451197,0.008044757864806597,0.20757199672891108,0.38764332321511347,0.49968891206167815,0.5563298309060061,0.5929339999217247,0.6381175235709883,0.6955529221327519,0.7452377091099037,0.760782404576957,0.7344043979810881,0.6630131941093307,0.5575991988498921,0.455147128698694,0.38968583670347434,0.34270129228453705,0.2487436198059894,0.07014314365901338,-0.1120550644903894,-0.23096009763217928,-0.2880108637208771,-0.29913324955015974,-0.2883320809107875,-0.29200680301926246,-0.33275795642951017,-0.37102287137535034,-0.39039117935249423,-0.4217559812357191,-0.48162388382774385,-0.5567134994256397,-0.6151195268631152,-0.611992539952514,-0.5401584102721849,-0.41539439271293926,-0.25035651905549894,-0.057954795936650684,0.07315710073723067,0.013213395122711056,-0.20764279705390498,-0.39341215804215907,-0.4615431357225469,-0.4436470807786629,-0.38912569458041446,-0.34690293897958546,-0.3481225245362284,-0.3968894785213455,-0.4820717016411208,-0.5770960818519397,-0.6626843182766363,-0.7342447065293626,-0.779020983455779,-0.7806816104035516,-0.691719054198315,-0.41572853357283857,-0.08904953098037548,0.0504917605630668,0.007555234510451857,-0.1997978593191678,-0.47066845379204186,-0.6119136920187342,-0.6327124057111109,-0.5747084566378238,-0.4103831960774887,-0.06500646683552641,0.3961897581109281,0.6796315187692308,0.7648884844669377,0.7541021620636092,0.7028035362606707,0.6431219574407172,0.5890682381992941,0.543960273361167,0.5125992390342569,0.5024925910165626,0.5107448767083839,0.519583986504455,0.5110222077976371,0.4731577042376772,0.38148061088391894,0.10763447721907528,-0.4747344731331244,-0.8300843154330642,-0.9164872799840479,-0.928854588590282,-0.9145673229631925,-0.8849677396456458,-0.8495478856736426,-0.8085660478504323,-0.7342928637089243,-0.5634434277857004,-0.2136178399812946,0.23328938936568763,0.5099775194312225,0.6072496738608352,0.6272929061639051,0.6159065065343924,0.5792074337241969,0.49777161980779583,0.3592995125642889,0.2379664933091706,0.21026372391634576,0.2456534373818831,0.300796254279557,0.3443470384102152,0.3673080383551544,0.37055071535439177,0.3536677923840147,0.32018714731093667,0.2845166514965305,0.26451721446489523,0.26537610712123394,0.27668336169172253,0.27952536685043294,0.2499821579777392,0.1806455322982596,0.05551148312995219,-0.13955057752768735,-0.4094309542837963,-0.6342920517966961,-0.7314957537248399,-0.7451384340329122,-0.7114418147761191,-0.633945857049407,-0.47884967949386004,-0.15579427170250995,0.34786997917502277,0.7215750305188439,0.8819880168957335,0.9437740479167902,0.9663545996725571,0.9678879039284225,0.9454840316633704,0.8445113275476512,0.4345387538554184,-0.22941524883376954,-0.5638937526610869,-0.679479935479846,-0.6708428135280912,-0.5669385534136332,-0.43431203037102495,-0.33564627089901716,-0.2913800883320323,-0.26911159639791565,-0.2394782466077641,-0.1907245169874045,-0.1197801922056034,-0.024278452857418763,0.09121785685632675,0.22326598480515886,0.3520322149792184,0.449115106749929,0.5009675196510571,0.5043230475941918,0.45128586932351716,0.3178068376064374,0.046104226699718656,-0.35158870997576486,-0.6188833131899405,-0.6928684077406576,-0.6805566366016977,-0.6311691717276604,-0.5618880505163796,-0.4697603661772652,-0.36869164098103635,-0.45059538403312605,-0.7553310364237615,-0.820796966850535,-0.7853805878064138,-0.7581504717653273,-0.7434047391575487,-0.7194604514081985,-0.598910594871749,-0.337003349127223,-0.13131593558196933,-0.040301414505341505,0.010082846843049043,0.0715170639119434,0.16773796577847852,0.2631129792400262,0.3008574857491695,0.26681623093014256,0.1971147820668942,0.130927286287141,0.08557754619404241,0.07307999361385302,0.09628356030214806,0.15062389384382005,0.1936696259642357,0.16354570162949952,0.011217699663655845,-0.1937774989133389,-0.3242372385568664,-0.3644922535317693,-0.3161271724217571,-0.17046053681569143,0.08013046389025275,0.3452418240054068,0.46655974925033383,0.42494908219977895,0.3335687775268781,0.2750745773674819,0.2753294896829112,0.3275995352059407,0.402973581437583,0.45522511903625384,0.47740721165044764,0.490878042385255,0.5098053961907474,0.5297957153048165,0.5401610110401975,0.5352499239949516,0.5161822711997678,0.4730686178921934,0.35009851912860246,0.04058331294720373,-0.32960308832529445,-0.5703446929279627,-0.7081157284285836,-0.7858109893624582,-0.8269663768442257,-0.8378273065497023,-0.8034403020016045,-0.6965273911223977,-0.5360903132499594,-0.39212415266164036,-0.27411864889190357,-0.17457413305992134,-0.12737553700237472,-0.17232252411962745,-0.3039837485833329,-0.4599923339042634,-0.5395488506575014,-0.4642991272380665,-0.23656615309369558,0.02819134890487379,0.22520394633694635,0.33321647460419407,0.3631533118627385,0.35098653706524496,0.3405372716862774,0.3646053433506033,0.4487222795504703,0.576124921090885,0.686670608261352,0.7433729958874591,0.7600879474260072,0.751954489184463,0.7289704688248881,0.6913320311159566,0.6090083337943804,0.39492140479909926,0.10028655548417408,-0.07917388948850458,-0.16307119925618702,-0.18419319210555504,-0.13845755291618955,-0.06523282198481636,0.0018527777656059102,0.07261564519394302,0.14522840439392073,0.16712024965892391,0.015736587117859295,-0.3797646613937405,-0.6998000435411857,-0.8066565706351223,-0.8195649578951107,-0.7791515742634824,-0.6716747414430593,-0.43625132997658017,-0.013777952035343181,0.42700528565842527,0.689846727466251,0.8114703489487889,0.8627858541547028,0.866828627306442,0.8170668361122972,0.6909771020659784,0.49276106875469927,0.2938424525807294,0.15348288246151306,0.06868962361670111,0.0012538843735880626,-0.08098645200826057,-0.18398145804111993,-0.2453677723857948,-0.15909184418016825,0.15186659442001768,0.38223254798182826,0.4546043186572804,0.4107076333966744,0.20507933621701024,-0.2122410396849002,-0.5698002308351858,-0.6763771279667752,-0.6334286957309893,-0.48312562478838716,-0.2662296731853805,-0.06920931123920668,0.045492629578749604,0.0750116733960409,0.04727027419459979,-0.0007308290322360072,-0.039940369911638324,-0.061914213821886534,-0.0641449314295048,-0.03734167336261161,0.0197823929782513,0.09463633176992753,0.15351003169942154,0.19073404552481546,0.22309893889187773,0.2833904293256842,0.38170257669569385,0.46393549878875956,0.4482197720357159,0.22786103922151937,-0.18965800463459653,-0.5139054498728967,-0.6408246073230918,-0.6344483199968272,-0.48417629384937244,-0.18413677154968355,0.0930948380329856,0.2235084170186613,0.22594232222405408,0.146056333334801,0.0356469314744951,-0.08357159825035562,-0.20592959137578584,-0.31013014042317344,-0.3692628104010436,-0.38152483542110904,-0.3742629749189881,-0.374666385138709,-0.384206793859914,-0.40307130081633286,-0.4327108681253731,-0.47236932790281894,-0.5020208710635237,-0.5004858852679601,-0.4532476746396447,-0.3605482381351943,-0.2583903446607375,-0.19421793847899946,-0.17480440406293674,-0.180920303442971,-0.17142863912895295,-0.09739567291861267,0.07220608755986993,0.30477570848279273,0.49857756135366504,0.622032742457779,0.703394686105949,0.7613716188744281,0.7959530919990504,0.7964357617762974,0.770199923455805,0.7383607176990543,0.7162346718916281,0.7030756434898896,0.6880752364601609,0.6713078527610638,0.6503945877815571,0.6277764533538036,0.6077245306628071,0.590199660345185,0.5586928717999612,0.42029669695728417,0.16968601044210074,0.06437352532835632,0.03457603522376772,0.01042573676626556,-0.024218049580007797,-0.06143685208067654,-0.08806013176981134,-0.09363465586731266,-0.025950187708955824,0.1594577604180559,0.1816249907298377,0.18899944734267832,0.18781456979198052,0.1802039649801983,0.1607971119906019,0.11671266465426668,0.026221157995279805,-0.11759974277198587,-0.29115864261584123,-0.45980993434708917,-0.6000352185790042,-0.7131297028374549,-0.7978189838244834,-0.8171704747725174,-0.7368045875496143,-0.6321579765913874,-0.5476683446575327,-0.4874440747041525,-0.470487592786622,-0.5346079438756404,-0.7153033719541436,-0.8551608247527103,-0.6994731428835357,-0.5318775051249528,-0.42703443368544,-0.3515316854124811,-0.2602104425136018,-0.06876232558446373,0.21690828403094747,0.3216330868002799,0.3370163067483449,0.3400469533842186,0.3628268519528128,0.4250483639684967,0.5193068924910307,0.6033483150716082,0.6434950882682606,0.6263307297845507,0.5448478231097234,0.381311632813933,0.15564230903225165,-0.026792985068901074,-0.11165882619606372,-0.12742976990898622,-0.11039624427415418,-0.08108127650640838,-0.03726454170654302,0.03878252361435259,0.16726076648082547,0.3332750048864109,0.4841461469610965,0.5793513574616161,0.6261470806526949,0.6519657862451083,0.6926347738174026,0.7691549932076378,0.8533298096210383,0.905828404103141,0.9269271607369339,0.9274283526116991,0.8944316701594521,0.7080453074896835,-0.0037775700184872656,-0.5393064279268552,-0.6793239556875301,-0.7005213636108956,-0.6545344115432138,-0.49139150085799604,-0.2049994452292911,0.10812765661993269,0.37290471703736466,0.5320793768236022,0.5408571725154289,0.3378582838375962,-0.09781881494435327,-0.49865930331125974,-0.6987899213785731,-0.7771665077027688,-0.7943677451898143,-0.7432786393003531,-0.41178907454895536,0.4269752761406886,0.7053578590234121,0.7475930290523458,0.7309814004214262,0.682764744010547,0.5909564495797088,0.43487111368089365,0.30289017877781954,0.2542010629810161,0.2471994064772074,0.24904098154852053,0.25447959717699475,0.29623241472053885,0.4506444893228841,0.3787898316732384,0.280537405657889,0.2560042848678687,0.247120713420121,0.22861451058637855,0.18641085298233775,0.11878307851280737,0.09310649567618814,0.18850870351044843,0.267136424088021,0.13849500613229057,-0.37155534185128974,-0.7527745974645126,-0.8451595568195694,-0.8499472870844299,-0.8178395603980508,-0.7581416685704999,-0.6798086843477383,-0.5991409645463609,-0.5385729510780423,-0.519197458544622,-0.549166003038981,-0.602379473155447,-0.6527358456767213,-0.6847875347292312,-0.6914959345780556,-0.6792761460466334,-0.6503967613464435,-0.5999022586400267,-0.5186909047497344,-0.3835853487926822,-0.18598517259677083,0.0033552699579576578,0.0485354760895531,-0.09738876108904851,-0.33511674202592046,-0.5034000937982224,-0.5604519715756863,-0.510296693104517,-0.31939241222735465,0.021179404823028228,0.34007501625993386,0.535937409641034,0.6647781860626587,0.7637291148448427,0.839326910083365,0.8767698393723405,0.8567659430060057,0.7945567117099733,0.7341390930162448,0.7048542076526263,0.7121942324489873,0.7456674974105303,0.7848932584106637,0.808628485311737,0.8089762953116331,0.7934684224006708,0.7713081591879765,0.7525495781568772,0.7441027820255032,0.7442295350010534,0.7398241188365564,0.701757726977347,0.536347109125331,0.13119401553935295,-0.22087444272473178,-0.37553781499626604,-0.44577721922050484,-0.49279620864400814,-0.5427741464298039,-0.6034322263247756,-0.6685704104613421,-0.6048465627062455,-0.36181089096800034,-0.20506865969432173,-0.1390468224719397,-0.10479428977917497,-0.07400383611229423,-0.047414973123726174,-0.038323228109188645,-0.060177415899209157,-0.11181611471188219,-0.18721154920662356,-0.2505767267945533,-0.19847264183167357,0.042075253229716024,0.32407783882700514,0.49992675653462265,0.5800199259211927,0.5539104733569058,0.33675309438669154,-0.19268830235245527,-0.6597913771591697,-0.8306201857001911,-0.8861106248276505,-0.9025071870918587,-0.8968715033092743,-0.861557428160249,-0.7427420641954829,-0.34625227718325335,0.28493471003512233,0.5651867455787772,0.6109939423140539,0.5348775266953719,0.3527488043849707,0.09136776386478532,-0.13264108583694548,-0.2238818935120261,-0.18027935559336875,-0.07911203042216605,-0.010267667990629392,-0.006444989266786768,-0.03643210489120358,-0.057952096518943126,-0.05661674626925143,-0.03876846268703957,-0.00525156104897021,0.06873018846555186,0.22490952344849963,0.4437990168183567,0.6432669429752104,0.7708216999012059,0.8293946259455478,0.832152603171834,0.7693071544654952,0.6039523134979078,0.3284305593977387,0.09161559435202042,0.003801020564197678,0.01620876565863749,0.04947839634857717,0.06511487147009298,0.07151958793128947,0.10078107619773058,0.18738784298322328,0.3154728178041874,0.4288393154255095,0.4960802596596148,0.5314997133072702,0.5614787024237806,0.5890752238262699,0.5939044709914882,0.5629674378478469,0.5233140351346599,0.4951397980811026,0.461492607695247,0.37402659490174384,0.19902252066921294,-0.026674413717508273,-0.2390939772273203,-0.4044928944885186,-0.4867523615461233,-0.4715408750279589,-0.3688261986962635,-0.2223442584118306,-0.11223734595573291,-0.07182971865962663,-0.07583921070807902,-0.10373321661632502,-0.15261041049681945,-0.2074064481340623,-0.24080455812942708,-0.24226186761850724,-0.19079126678576766,-0.005892629933340809,0.45933489005632167,0.7572498748834449,0.804670784738894,0.7870956787585549,0.5579287505488897,-0.8414980161226964,-0.9431333113391537,-0.9274876850002066,-0.8811440475253132,-0.7601011976627977,-0.45943724647259293,-0.00750481156294138,0.3115558561210522,0.444623184670346,0.43364731069731427,0.1768343448159724,-0.3013848912252879,-0.4867081475062492,-0.497277891439473,-0.46722285163821675,-0.4437639255794551,-0.45056060226761424,-0.45559605221591215,-0.4057810354665244,-0.2807975923646207,-0.07265597686036218,0.18040773769771806,0.3744108216440503,0.4851859300374471,0.566077634115464,0.6577584699265198,0.7283480464619754,0.7514837882717036,0.7479578219856783,0.7352462815085622,0.719204890492094,0.6953300713277399,0.654902197734587,0.5803013869691662,0.43362996051550046,0.17312175455919848,-0.16496909595121576,-0.4082023490363983,-0.5108547403902443,-0.5764042893586806,-0.6330018951515949,-0.6591507418780774,-0.6671578868233374,-0.6665583192694995,-0.6594466315579968,-0.6358966593760402,-0.5190352053860641,-0.043251609092342304,0.31300916511337656,0.40030486274972515,0.4035147829500468,0.3562307098163186,0.22662186862445624,-0.02448092185146336,-0.3398440925465155,-0.5846512757347709,-0.7019508985756285,-0.7290723224270207,-0.6890751286717226,-0.6027235654080534,-0.49312213683342204,-0.3705556919440889,-0.22892795565887508,-0.051499527639980565,0.1429489292262186,0.3113802764371251,0.4365309991693263,0.5257589959221408,0.5816570663756956,0.589613912514327,0.534267393449378,0.43690542690166495,0.3701050312973942,0.394885055416885,0.4715725997065491,0.5185839372624956,0.4993027575270843,0.4190095229817558,0.3054284122710065,0.23401093320918664,0.24482284775398566,0.26466357540383695,0.24596179458904296,0.19111550472803962,0.11442626554810002,0.012138727057499153,-0.1874763158434873,-0.574605209185416,-0.4878902344735758,-0.34102273470494854,-0.22860277280967145,-0.11369840192448152,0.024676126398151553,0.19476880403579622,0.3705040862617506,0.49553219249660607,0.5143652928992171,0.3962039952137566,0.11312407176974518,-0.267368343304826,-0.5484792891998138,-0.6944887052988855,-0.7665583215321732,-0.7926360902833153,-0.7875362160616316,-0.7575993891866588,-0.7024164593247535,-0.6091916507483874,-0.4496407206332765,-0.1730476860685208,0.23933203496477265,0.632247439687798,0.8451583259466964,0.9222519535174323,0.9399934109863436,0.9267022792322301,0.8754385661196409,0.7354560374121156,0.39353933847368994,-0.10653701088681966,-0.4496390675400509,-0.5717732047035525,-0.549716615311319,-0.44017163154034405,-0.291133178578513,-0.12255512167399578,0.05433164090435105,0.21360773936624156,0.30086333783676583,0.30876834032608624,0.30397752654307586,0.3321540298639353,0.40465040027932075,0.49121915653580206,0.5467742574777947,0.5554572609353836,0.5243637376129182,0.45796932424620523,0.353432841207139,0.21489477224183096,0.06676498959018652,-0.06427634129712123,-0.15406567689936715,-0.18717024023762638,-0.15664338274596604,-0.06585316686510033,0.0811252625829181,0.25554922809340513,0.40478902664711963,0.48686705658342955,0.49869198764892503,0.4693467382096253,0.4300103927544842,0.41443492136840865,0.43515367779233705,0.4780970626523669,0.5172206827186281,0.5586059122906406,0.615857302749738,0.6797950880427691,0.7298362715488277,0.7406187380911406,0.6774958033682184,0.4874482743128338,0.14767716321555957,-0.14842402751762254,-0.28444174321726295,-0.32050226482601774,-0.30380521196030325,-0.2579868762648765,-0.22108562369104295,-0.21074498979336512,-0.2220518540628878,-0.24656824560077537,-0.27549228973627254,-0.2935620442379076,-0.29290229292410974,-0.28202731084911237,-0.2738520785577477,-0.27601104110845637,-0.30087177270233395,-0.36071224658814266,-0.46405683487701505,-0.5861996858315854,-0.6462256104244363,-0.5675015588182765,-0.34989104182295383,-0.05493188792400222,0.21760436209370773,0.4216825852605562,0.5605355964694928,0.6453769327521547,0.6631404044058677,0.5101848386390875,0.04539359309514211,-0.3412597327489721,-0.5117331420393142,-0.5826727925312811,-0.5966699596098651,-0.5465943869979853,-0.35946282984635886,-0.03825039108489028,0.12723782137265569,0.12979520483187273,0.05011783351492992,-0.07208474916310109,-0.18433041415974738,-0.25870341172338096,-0.2960640231765595,-0.287845901353031,-0.2177458868719453,-0.07770166511313603,0.09333889763425784,0.24832124152469284,0.3638889861660828,0.4163447813621225,0.39719331324705487,0.3122079464837016,0.17691564306889404,0.003963483775407656,-0.16743279808691847,-0.268125427672594,-0.25873209941712844,-0.13535683228174317,0.055326717388018316,0.21278466723814557,0.27932497469360484,0.252302814579318,0.12300799514333056,-0.10731810434418679,-0.3507926280774345,-0.4623799698444114,-0.43724484972935185,-0.31550330784343367,-0.10427785597463923,0.16176988521639027,0.3597159797227048,0.4044579114711144,0.2927573696982962,0.029693087454043032,-0.2546037472398113,-0.34226971106678744,-0.2071189645126305,0.05324736374220085,0.2846364869685412,0.4124199903487814,0.4510788795762022,0.42592248168440844,0.3511165773288892,0.24912328787995855,0.1456843587766141,0.049519753190967436,-0.0313931056408271,-0.07942085564895021,-0.08138666649563069,-0.0643266506627168,-0.043207641220646714,-0.026525549947514496,-0.02135073436930938,-0.03457150961282054,-0.07748368987198488,-0.1303087030061982,-0.1889066842335728,-0.26199846458266834,-0.34279088532599145,-0.40776153236603346,-0.4413178025379266,-0.44669821495544715,-0.4139564050102313,-0.343232566381015,-0.26500425729680127,-0.23593637856145971,-0.27884489541813556,-0.35718997728964574,-0.4287583890357012,-0.4680232215925251,-0.4514737930329757,-0.3450532493016914,-0.07658677711810191,0.3256719050408737,0.6010901350615445,0.6852908386348734,0.6528415786733391,0.6055306968980212,0.6301887998853739,0.7023358510010098,0.7669706839261227,0.8018176621401478,0.8076820105189952,0.7936655994595031,0.7724131228632245,0.7599663096929299,0.7660717602410918,0.7879105116068371,0.8176186821445004,0.8431569852651744,0.8549600490877246,0.8463023448701076,0.8139657118176448,0.7439768858617284,0.5558091976085813,-0.12838793582113497,-0.8076151158603507,-0.9320962098511122,-0.9545480661116079,-0.9539981852794159,-0.9404832011338814,-0.9134561387764184,-0.8688525401040297,-0.8062160631250406,-0.7421120334954094,-0.7287397153983497,-0.8123806463876188,-0.7424230944585114,-0.4354273774680262,-0.23928929329923182,-0.1195048215958203,-0.03108960595546358,0.050686223845589434,0.14792951721588068,0.30878111172207556,0.48251832356880076,0.5836052804543621,0.6970645951181869,0.7976759013127986,0.8565882220764576,0.8917887765535107,0.9131662857556828,0.9213948390429262,0.9166096004652052,0.8999253341526752,0.8623993197338643,0.7673053947961123,0.5036704551918606,-0.04099724682186889,-0.4726682869487582,-0.640074515226487,-0.6775250518655849,-0.6559630015151161,-0.6060407793157225,-0.5350940447792295,-0.4360668651108,-0.3121220778668651,-0.18368067814493802,-0.0758521604540595,0.011844271600906063,0.10534771246662172,0.235488550042336,0.39617982520961653,0.4437822029226948,0.04712318427752124,-0.3373538981326961,-0.4997849150110907,-0.5630506629597711,-0.552142400423322,-0.41153769480164576,0.2599749818320465,0.785723140478788,0.7896010717611751,0.8038203407811814,0.8392023996172651,0.8442699652898765,0.7255175395706419,0.40344195474302735,-0.03292412921649029,-0.33583527369537375,-0.46463162527646623,-0.47922280610639234,-0.38955259570288764,-0.050377839621622206,0.5754219245585003,0.6982521701515177,0.6803699097170437,0.6588554690137599,0.639849567592027,0.6107267668623028,0.5450390483683434,0.4079721092094022,0.21266943522274442,0.037207889459253615,-0.048152724913782675,-0.011156740851424728,0.144958687529619,0.35643893158515444,0.5312552869106957,0.6401779576718383,0.6935942976268555,0.6951892156932116,0.5954151471447142,0.0638364858479872,-0.68766023299162,-0.8388948756550857,-0.8659938261272241,-0.8659854603526517,-0.8533674483770722,-0.8313417936805025,-0.8003521797751347,-0.7538295216433906,-0.6427538782924743,-0.34876665603387635,-0.009288730962815012,0.1714113251708976,0.23977581087450717,0.23420612827086093,0.14205211775963075,-0.03255059807635472,-0.18153067180724572,-0.21029064019430457,-0.1202257978826637,0.07720284321454106,0.2961113496147632,0.40465058220388134,0.4305028522962557,0.4424329933393056,0.4603200652385746,0.4694800541665732,0.42872980858018167,0.34485612535644,0.24339151288463626,0.13614506945262783,0.016225793993344406,-0.11049379322338285,-0.21469686618067937,-0.25360832209642353,-0.183369998886754,0.0036743341813904604,0.21237204522260097,0.3478499213870235,0.41077667180744,0.4331362884049437,0.4321592440545929,0.41537872115171104,0.37299917574571373,0.2936357665818221,0.17418380515212795,0.028966359972555276,-0.10251823667348642,-0.1844080594867885,-0.20714202068029333,-0.18952492629123568,-0.14274380832567488,-0.09143069914811866,-0.047523087211740624,-0.022430693175303017,-0.003720394228452739,0.033915375491513834,0.11793607338176156,0.24702892555077705,0.3882488081076921,0.501517094218816,0.5813116041567334,0.6317088605028469,0.6488938508114024,0.6286284261712818,0.5510507449081707,0.36908928085867937,0.1694059373874209,0.06405161985775325,0.02660134191248111,0.02023547315956062,0.0340662831918372,0.07514973388516347,0.1645467467400524,0.12113596613446675,0.08172715803693321,0.07248471298011488,0.07802333419361143,0.09668477149894895,0.13403556324576604,0.20638475328403524,0.29861384789525436,0.2663223725296132,0.22112329445050316,0.17811258070681513,0.1172634544572788,0.03222202651024223,-0.017125711675727257,0.07442951893049007,0.15653557289738157,0.23835468719057815,0.32071005202349634,0.3819532560386684,0.27881289281965227,-0.6987249382755387,-0.8967267856573782,-0.9153075446008665,-0.910989426826999,-0.8752143894190688,-0.7960438252074687,-0.6994543716140886,-0.6501900408973674,-0.6522523752479321,-0.6700022641752293,-0.6816708942183463,-0.6756693496993256,-0.6432882237744335,-0.5923899224812776,-0.5511056666022733,-0.5331455031305501,-0.5308581146000123,-0.5145378923534518,-0.4457918053122501,-0.297045918342384,-0.08594029487745337,0.09388155543666922,0.12045247401744254,-0.08120906083505988,-0.36140505119955824,-0.5050186818103526,-0.5374097411967652,-0.5057163364121722,-0.4171066982179504,-0.25743194255343493,-0.033590364919597444,0.14007057521639846,0.1300465649269926,-0.006905517928900428,-0.09352407426035451,-0.0838424225866622,0.0668014997037317,0.4118162394810245,0.7428368424018015,0.8554984994364285,0.8530462044462627,0.7778497069759845,0.5657857624896879,0.18765270359062677,-0.11317408290499287,-0.20602641092188206,-0.14479027736420125,0.035728964547966646,0.27553100973658734,0.4827558691255248,0.6150419754483694,0.6798355881130583,0.6984637602280777,0.6906590432202161,0.668573859915703,0.6379304133548839,0.607546563137253,0.5845547194240244,0.5679975560362306,0.5635153106300652,0.572705038770253,0.5855574090296654,0.5937700798538114,0.5856340010032574,0.5432407693576133,0.46925966513573836,0.39803227900493904,0.3521315189944504,0.3317469864479889,0.33615244011113093,0.36680977948760235,0.406933927114169,0.4229144476697436,0.391913518541385,0.3151564542810143,0.21421931552781306,0.11928829476086611,0.062375704811335635,0.10008834910676528,0.3154566936467665,0.6360656811667009,0.7172402083845086,0.6403124783886025,0.5132055494272524,0.3592863599334195,0.17629066849640068,-0.024908950614233302,-0.19848599056468041,-0.31815696813009436,-0.39082675196159206,-0.4119693475864128,-0.38757857760632436,-0.3452952314219296,-0.30563352370847435,-0.28268499566734234,-0.2912667109895925,-0.33702695087396833,-0.39665376429609395,-0.43438658684603526,-0.4425401811662536,-0.43018416102100954,-0.40491573679159254,-0.37401844387977207,-0.3472598674068925,-0.33274777431336977,-0.33954767880034925,-0.3442388818848681,-0.311748928295928,-0.22252559211646078,-0.04244538325141631,0.22261327457189803,0.4391501758021482,0.5588005767367916,0.6364030460707769,0.6892436270945048,0.6926840477928919,0.65006334682475,0.6161503082449102,0.6457378695129707,0.7039594198218061,0.6800586142369756,0.45258385910109605,0.0540857516570141,-0.2977456336437584,-0.5110542680050078,-0.6185693815106986,-0.6485837139216348,-0.5956474763980522,-0.4788951710126907,-0.373407957622326,-0.32653497906594514,-0.32053656988472884,-0.31639979715172545,-0.2803144421044604,-0.20431834561044138,-0.11762939388225385,-0.0687818357384515,-0.07538680742780253,-0.12032455279930962,-0.160396734416613,-0.15957849530087756,-0.11024196035293964,-0.031225168852286652,0.027255889987610048,0.0457505360476899,0.042215292470987216,0.05023891089821972,0.08209902420259448,0.12951469134774085,0.17405564180742433,0.2060767292391146,0.2295605454843631,0.23817402702584398,0.11980818900226298,-0.21773873340982272,-0.4591427732979117,-0.5160018869479825,-0.49146941360679836,-0.4280359237669819,-0.3473013194589454,-0.24099078962561202,-0.07070286739575307,0.13557847703431372,0.27162389532662456,0.3608240882713371,0.42882441707000163,0.4779682054915117,0.5041158480115654,0.5056212396580634,0.47966804779211886,0.43401328472350464,0.4502592395334339,0.6047400545301898,0.7966152385500597,0.8898373478454185,0.902322459934731,0.8694279860062719,0.7754319466982217,0.5287774562751488,-0.016720594468778213,-0.5438515450542649,-0.760592490932203,-0.8296756936375638,-0.8473161318804888,-0.8423111566246787,-0.8215441834892541,-0.7857694073087507,-0.7412764119903189,-0.6913266158641465,-0.6317633679984602,-0.540890659514952,-0.39745723765161556,-0.1953646450434469,0.03215533450118986,0.20527067956925088,0.2887706033502014,0.2634520165507244,0.10025928357776963,-0.13147085515177642,-0.26073574970862884,-0.25063203357597896,-0.2132292290744265,-0.2819924778821224,-0.4973249736551731,-0.7238644768596032,-0.8469657613265495,-0.8897939892837086,-0.8724433112748537,-0.7574799406539052,-0.4109130089473492,0.1456437278523116,0.5149653346615297,0.6893563865136736,0.7911575297355358,0.8568190318552484,0.8908520866096208,0.9002658162922378,0.8958634566424847,0.8829195517017703,0.859095561565332,0.8153152358251181,0.7349734684626948,0.591703099294756,0.3724117392592094,0.14494282556445956,0.02210154590770315,0.02344831477551353,0.13839761171784673,0.28698544080654087,0.38035960073340086,0.4347786263172986,0.4760877716603425,0.5031991479597833,0.508824917059347,0.47156306213756505,0.33778801915175616,-0.016859003265750187,-0.5436002299219441,-0.7819841192821857,-0.825064969284502,-0.8331203618810515,-0.8543842629716596,-0.884293269828093,-0.9061553266669844,-0.9103331159368321,-0.8951282443951756,-0.8894095113549637,-0.9284279492528947,-0.9515795016059097,-0.933993883242441,-0.8988715309744406,-0.8353954715885319,-0.69872374519357,-0.43762805824828194,-0.10647400241539491,0.1745264026227774,0.3676333736686694,0.4729792100560982,0.4835513716639914,0.38131608326458477,0.181140075153895,-0.0035451037620265625,-0.07039139287146455,0.010563320222996378,0.2389606945095662,0.5017656667562881,0.6710620860022646,0.7512412181460573,0.7882813217899695,0.8150005931443032,0.8317384257964419,0.8075975970180355,0.6864577380375797,0.3829732944316247,0.04511894036812289,-0.08185303912739735,-0.09550534879596727,-0.0996291099724071,-0.11779811291223764,-0.12465522174241705,-0.07594068878359118,0.09167730849492628,0.3948311573694132,0.5962636255401251,0.6206840514177919,0.5736100541189586,0.5163333096352918,0.4622117342609093,0.4159892283808519,0.3991811247381723,0.42802000102614735,0.4846177262875566,0.5416318545900363,0.5793780929791068,0.5905030139468426,0.5777949558288094,0.540493501088194,0.4827436217817454,0.3929294067715636,0.2764636565570599,0.2530275191399864,0.43728324426472587,0.7066071416204126,0.8577719827196298,0.910345139663076,0.9255242752783019,0.9256773999808315,0.9123093344464549,0.8643166011690129,0.6422060317365115,-0.5691038383828962,-0.9621109751195388,-0.990067500203609,-0.9926584029050608,-0.9918860720769112,-0.9896342631667782,-0.9866664596940861,-0.9827352917636554,-0.976819665562233,-0.9671691084937155,-0.9455227543483659,-0.8703235128151604,-0.5295614231142868,0.21965138185798103,0.6205743046681479,0.7487015017525633,0.7903795056790791,0.7842431518650318,0.7300681130202642,0.6457699695641342,0.5630693421493972,0.4913033415877454,0.42174151049194325,0.3508333434314577,0.3193065863428379,0.36186219770851874,0.44788583985233477,0.5099046077494369,0.4747149679271065,0.24075134937332274,-0.13844692927679464,-0.37847223884014275,-0.48369183592315906,-0.5232256868585464,-0.5306253319264785,-0.5322372617512388,-0.5381870614070697,-0.5493934984880553,-0.569841649242686,-0.599073726220459,-0.5961716879489359,-0.4813215256835835,-0.3243364139339378,-0.19930627511079205,-0.08513278709763121,0.04464135063091873,0.2241102651247212,0.5267534336770695,0.8494913744783017,0.9392962767004294,0.9310444072077411,0.8933609805545132,0.8521214726618275,0.8324525173433741,0.840034921464331,0.8630413636398592,0.8863821789094125,0.8746354768923595,0.6511722819990526,-0.05807108539044709,-0.5559491178300126,-0.7458838285831371,-0.8043318527876068,-0.7893502141812869,-0.7092922391034119,-0.5154206758783659,-0.04078897539953101,0.5453336952103599,0.696341477492937,0.6785763384373572,0.6298378975538026,0.5755656309522245,0.5189122489086228,0.46506460325912174,0.4322677270591353,0.43144054203578847,0.45613683080624073,0.4863726276293618,0.5117194431014732,0.526076703858612,0.5276787971852293,0.5105265466164709,0.4611909879620239,0.35838854099975903,0.15591587958249922,-0.19433216410618842,-0.5934730354404042,-0.8213009309882509,-0.8698611659946891,-0.857626431217488,-0.8528942569542776,-0.8756462334886433,-0.9172766423020706,-0.9500887152456228,-0.9657356171060592,-0.9713052622804665,-0.9689172805357272,-0.9536239886492065,-0.8959364887047739,-0.6440983672693997,-0.21789982319719822,-0.0333530171646388,-0.008182765072594321,-0.04714454729905518,-0.12224367459062808,-0.2246998345846618,-0.361002085010114,-0.5024154167067113,-0.3385318203715053,-0.03382451545247424,0.1735684860026055,0.332300790019759,0.46283223228793435,0.5667918553530413,0.6453068113588959,0.7025744328938572,0.7425453602493836,0.7699836036862272,0.797725914570309,0.8160963459694932,0.8056042762892995,0.7608108219059555,0.661583428676592,0.425427081878935,-0.04867290565054553,-0.41029163879762787,-0.534511156973926,-0.53264747235336,-0.41859476895918757,-0.1794575350480847,0.08683421720551103,0.2781469680349559,0.42022997097946013,0.5448236750463294,0.6277127092451399,0.5974515341953724,0.4910956361126321,0.4116367747780539,0.41358361091203627,0.5116446505388949,0.675782107492741,0.8319214168977095,0.9231338825136389,0.9587714733972427,0.9661286842387111,0.9532711031109933,0.8884957730045063,0.5382417960612214,-0.37295269943262843,-0.7422890924528172,-0.8333204512487565,-0.8586415463157329,-0.8507530802763146,-0.7868238245128094,-0.5696690866843613,-0.16036695379633148,0.12391167086647618,0.2140634884978335,0.19851291898371845,0.11234509834588205,-0.05328476996139927,-0.2949637872851927,-0.5270701333212053,-0.688367671630624,-0.7944359156743264,-0.8730168795868425,-0.9266342112647706,-0.9356578985559239,-0.8873687747223463,-0.8167353670799288,-0.7591274998867575,-0.7147910213732819,-0.6753966782231735,-0.6369664481594467,-0.5878237387601526,-0.5068231893869274,-0.4111547837178114,-0.3907680586401525,-0.39623989783325153,-0.37033836484995336,-0.31608588821650335,-0.27771172718239223,-0.3015185392214909,-0.4187292966875758,-0.5915745429009527,-0.7076497083959874,-0.7204151132227227,-0.6488911489128457,-0.5282188220152109,-0.40995086924596186,-0.33800782658480993,-0.3149502044062166,-0.3102013448891912,-0.2971840307655326,-0.2588978144002405,-0.20337316057730823,-0.143620681314304,-0.09846818701178485,-0.0816136232794851,-0.07814447022922515,-0.0598479458579354,-0.02122691326904789,0.03076661103277687,0.1062280665232127,0.20992697771943206,0.3297952150469808,0.43127371487271093,0.489954214900958,0.5171009632011307,0.5296854550602229,0.5597540948956296,0.6318404754880307,0.7154587677913992,0.7764542142266987,0.8140297521376914,0.8376246948442251,0.8530858103385366,0.8561272063011659,0.8436530562878074,0.8125497909816329,0.7666420770022757,0.7209866537713928,0.6941334505762439,0.6909130967526695,0.6847054449076315,0.6626788542905178,0.6286573654999691,0.5886124327308789,0.5503143204028357,0.5108431737769416,0.4733483172418835,0.4522760722324846,0.44339723238745105,0.4326767054723932,0.414695326994251,0.37585564328525484,0.30388113509238934,0.20736205900602728,0.11035033564595251,0.026474741019528125,-0.031141161831632444,-0.04124267187267074,-0.029079435092287626,-0.039336521088579934,-0.06783628699114398,-0.09992717099729154,-0.12997893764085058,-0.1492433582619519,-0.1388953705195973,-0.09599497822597527,-0.0537882215401537,-0.0412725858372268,-0.06771329605392802,-0.12787649704902798,-0.17153304704020217,-0.1148914075879624,0.10048218726218718,0.3082756513867009,0.413149701019609,0.45964762692036304,0.47406704323208304,0.4469533399664747,0.37186630278787924,0.27358853495950364,0.15896960591080211,0.01683002230573522,-0.13552458923627994,-0.2745051079551825,-0.38679173906318853,-0.4583306802228899,-0.4865596230106445,-0.4760953888051485,-0.42239779739241284,-0.3104358511661252,-0.1504838350689263,-0.04048404870895892,-0.06978500781626265,-0.24708091436734023,-0.4651345614436523,-0.6107575421241749,-0.6811386358594185,-0.7138105373321576,-0.7267197326725948,-0.7028813505693708,-0.6048100572475628,-0.40419059096417614,-0.13028599220787893,0.1878794946560394,0.5638775607002269,0.8407757466295973,0.8108691656239106,0.6324086814558758,0.431442121617763,0.24641132346003572,0.124020371987672,0.12677113082484381,0.2428555664434568,0.33812736248511155,0.3149041946680798,0.17863428007527055,0.018780361986830387,-0.016592437978040595,0.13731503607126755,0.41098532581380987,0.633758371375903,0.750839401651236,0.8033221274896721,0.8248534160173375,0.8242027087987864,0.7904028321496542,0.6930911454276284,0.4643600984634016,-0.006538236223346449,-0.5369219690754664,-0.8023401670694061,-0.897911135385234,-0.9306579214550595,-0.939853748185387,-0.9408325404007318,-0.9430316194382488,-0.9470660656730057,-0.9442941477926496,-0.9288211285082193,-0.9037555899644721,-0.8680552763544973,-0.7787627479256243,-0.5060290836985881,0.0049160718420989255,0.42783370404921034,0.6296534664672444,0.7096201394180257,0.7432208187809201,0.7647822126779292,0.7781826029272106,0.7790547556588997,0.7694209600034034,0.7506761858475629,0.7321552682608523,0.7140463495158341,0.6752373507355842,0.5831393274420731,0.4685351624127853,0.4020144424027227,0.3694793589171673,0.28321786159804363,0.06180575321479279,-0.22805713274280123,-0.4377790334322475,-0.535412188692597,-0.5527928263352966,-0.5086080360735957,-0.41095778705939545,-0.3016129944273683,-0.24776361460588758,-0.27370954374458173,-0.3111802526994329,-0.28246040216812907,-0.17461383320566026,-0.015061587563675493,0.1567703519156411,0.3201451506637906,0.4529087875125655,0.5321326968752369,0.5620619220372964,0.5382372049539937,0.4533460984175007,0.3002905675734798,0.12036980498158015,0.013764186025692094,0.020013527048226988,0.1282174622676871,0.32587261567446624,0.5344085742177974,0.6454731980715517,0.6873836035420403,0.7074680904764072,0.7042615745706043,0.6559703665491332,0.5333876044085112,0.34441073259893734,0.1526076374523532,0.008585347815449668,-0.05977009875372195,-0.04822820893894714,0.017498237294193874,0.09106513138839548,0.14715971209598733,0.19396085053087572,0.2673252650521932,0.3945595923541219,0.5505279626862126,0.6901498638039788,0.7935466170051279,0.8633252960831499,0.908461422873888,0.933086794074345,0.9373388034080611,0.9020053612198314,0.740769784917937,0.30596384033348034,-0.09083464979185944,-0.22019167054011618,-0.1969817683514972,-0.1186132716842268,-0.07328877126377714,-0.10295028876197448,-0.19050177171038843,-0.29212236373249895,-0.3752660941892193,-0.43714133276743644,-0.4803062391259417,-0.5108619141603631,-0.5261451358184691,-0.5131559691441929,-0.46940871635031395,-0.4041030905338987,-0.34336976298541994,-0.33661187193614595,-0.39462238049095094,-0.49474258206697447,-0.5786487158549305,-0.6119113276978337,-0.5882078661993815,-0.5177170257634218,-0.46346267697111293,-0.4708717841112652,-0.5225043951460422,-0.575985854949495,-0.6046989651559538,-0.5955534345897401,-0.5399421996360998,-0.4281208369389187,-0.2671353728954482,-0.11590665683587743,-0.04882552761350222,-0.10097429407747513,-0.21598560717892584,-0.29508651462365404,-0.22879229796232362,-0.019939939132094072,0.1547800715277473,0.2871817914640875,0.4069903559579101,0.4579658279185211,0.17710952120977005,-0.36128284419999407,-0.5352638130377815,-0.5573025713434447,-0.4967834988515541,-0.3302887668907655,-0.031387545249081786,0.29087528190951156,0.4706794213499179,0.5060963660714541,0.438895731434076,0.32502402149512943,0.23437577471998122,0.2104168279768581,0.24919599415323823,0.3267636115875236,0.4176588574451733,0.5166671177221424,0.6236262318481929,0.7121545039992678,0.7485711816002266,0.7336497399014651,0.703800041836259,0.6775397102795111,0.6544318446645925,0.6320542508803045,0.5996633613620473,0.5171100259768451,0.30468505469214363,-0.06315837469951023,-0.3837919753431381,-0.5173474693609559,-0.4768197097163622,-0.3243038492502206,-0.16986066002075587,-0.1552900533169302,-0.4343943585907249,-0.8310699481975001,-0.9553419369608671,-0.9752257387194556,-0.9794347034390316,-0.9805416978945622,-0.9791619159327248,-0.9734651613960238,-0.956074620933983,-0.8985357673823291,-0.7188654476435155,-0.40223155141290373,-0.1840988481107755,-0.12404294299252493,-0.10359547522764337,-0.03450627542671918,0.07368381897053633,0.17655016802245027,0.23433978573084893,0.23074694351605085,0.20006612604759139,0.19425644433868589,0.2797121355900492,0.5129575422671012,0.7354922669340096,0.7747709169681003,0.7585809540954062,0.7547261858445424,0.7604441337045094,0.7653288124597947,0.7725834007755864,0.7805505917209854,0.7769322011452799,0.7572698542744722,0.7329316428908579,0.6982912467576357,0.6243723901878215,0.43307455380090754,0.11679615691482977,-0.18389821702348882,-0.3894813158192973,-0.4955927094507546,-0.47982205732633376,-0.29466142151738045,0.043383087760911,0.35957339880337363,0.572679967992716,0.7415570277615182,0.8833280303279089,0.9538649669384772,0.955546974757492,0.9291292622210702,0.8970507994728744,0.8700242292571424,0.8529876249847832,0.8220809078683797,0.5281016530921142,-0.19440922820918685,-0.4745413777365807,-0.5375325777588684,-0.5332888288772643,-0.5011870646667497,-0.44831881682114844,-0.3105762625749699,0.011234885180550536,0.2586673159932755,0.3718840097639849,0.4007729757024194,0.3671773722060162,0.30392005684914436,0.22844195408970758,0.10969630198801643,-0.17017312056261955,-0.4328465083578943,-0.47135976120124135,-0.4556312834671666,-0.42032067272457757,-0.3602219616319932,-0.26792104861962357,-0.14887894164505497,-0.033789875811204524,0.04894639379658763,0.08142343255520473,0.04496887711396104,-0.025933306888867087,-0.07103149806821055,-0.060681340423480314,-0.01606200981372407,0.0493167186108456,0.13061257377558852,0.1998830226387601,0.22395118990017074,0.18565691978202378,0.07927818762360216,-0.1270133500980574,-0.41691737685166297,-0.6752319725640137,-0.818737841109986,-0.8692723651415954,-0.8674621451199365,-0.8232565251150918,-0.7245953158093194,-0.5422695120596787,-0.29375591612170554,-0.06536965592896876,0.11086568877166607,0.2636871660323659,0.40295590388617836,0.49903714279505473,0.5060203696271134,0.3950751356408965,0.21450799379624014,0.07329564399473003,0.039087378288162035,0.12842267680965663,0.3062860161240724,0.4887902371767499,0.5978494893694969,0.6221896593906264,0.5362459696426478,0.2534919743311201,-0.18757605023505275,-0.46872578480192906,-0.5638252718575651,-0.5737832420254606,-0.5320505946724176,-0.4308987562233015,-0.27073391907619915,-0.08615029876291408,0.06260460673807271,0.09878664851979971,-0.03729951065490267,-0.2780002717627277,-0.4336898188659695,-0.43696395858603077,-0.3149207142420707,-0.12424302247654812,0.04697777433111735,0.1505224876101935,0.20923542740962792,0.2630085326467552,0.33456542448329224,0.41646853351789237,0.48849834071331366,0.5351182494214412,0.551134972258556,0.5325578330790155,0.47456819696755115,0.3781840313759376,0.2575229906052377,0.13637544562556214,0.03139647690323355,-0.042411792333845275,-0.0855617028342385,-0.11530631505683461,-0.14569721545235606,-0.18333652658948515,-0.21073660652365533,-0.1844118057320172,-0.11115045493809196,-0.040601112454813286,0.008953739799074257,0.042042954224638704,0.062189343367280346,0.07675272591269856,0.09956078289567058,0.16533288069111257,0.27508773136000847,0.1435408096717178,0.07512238238950344,0.012499377656122922,-0.061898030066474756,-0.13206022603064477,-0.15838085269362512,-0.07851473096992322,0.1199439547652161,0.30083818770754384,0.3381290107118031,0.19788995382446864,-0.08543959063994169,-0.35045474813203004,-0.48295655972416307,-0.49878049604399183,-0.4379012553031036,-0.333684070911316,-0.21921037008928576,-0.11592040453585145,-0.028554390914554306,0.026912611434086516,0.050560726091677555,0.049405606087456366,0.026598214951602656,-0.021372876352578146,-0.08352847879715525,-0.13107330929761293,-0.13757239260613233,-0.10649296517638505,-0.05551598978182532,-0.003662397800797374,0.038186667892826626,0.053915292479696716,0.03631692063132387,-0.006354336713684656,-0.03677154298573471,-0.025979972204170254,0.02213003133043824,0.07743744181041344,0.10471633809783072,0.0866395746990372,0.0330057048223999,-0.02160317994926169,-0.04206328858000717,-0.013532099191077557,0.07120687850739088,0.1813895352088486,0.2896124042978002,0.3776571610791086,0.4373808915755481,0.47052802511574066,0.48738145176400915,0.49608719375362376,0.5014542149773066,0.5146248968730408,0.539745373617032,0.5619079352940717,0.5450504184204296,0.4203556918815196,-0.02100229290682437,-0.6622395474821914,-0.883023812699936,-0.9320965980737903,-0.935032298694318,-0.9068761814817915,-0.8205334998758699,-0.5990461344260011,-0.23711051811778577,0.050415873309670414,0.18413836967799263,0.2214692173702305,0.2215545067363677,0.20270030101070927,0.16836195964248643,0.11837161076653285,0.031995976397397895,-0.1289697719606307,-0.3677929813441698,-0.6123758587332749,-0.6864831334368077,-0.5911501962422007,-0.38677380752296836,-0.0667440671465075,0.2722792046906996,0.49654547501331925,0.6142300731064594,0.6669317270457688,0.6779567909223988,0.6589126220099103,0.6191036607992658,0.5622631296429227,0.4777638115860016,0.35408301285915067,0.18714784679987073,0.029502909299918303,-0.06294492418991116,-0.08181195758696863,-0.04206807510393788,0.04313987129558121,0.16160350392561168,0.29162320984118245,0.39324014236384897,0.4429135520846769,0.44627157492225206,0.43077479339410535,0.4267991620545748,0.43472971664831583,0.4374006634618531,0.4223972803190945,0.4133217895479482,0.416951309942947,0.4029415880647822,0.3015188448298112,0.1753620088609219,0.17821340076681627,0.2886850173961992,0.45531073083167023,0.6061494200691774,0.689159586595712,0.7043471873532123,0.6629446254761686,0.5472144115708442,0.2566395871841444,-0.2516039682142576,-0.6040142845176814,-0.7478602231639858,-0.8026038323627758,-0.7832103084116248,-0.628852359017862,-0.30296133297009326,0.04620595529264749,0.2961349757441531,0.4620327279831049,0.5658649860199334,0.6014964018272746,0.538149973681559,0.3428721940001162,0.029002619379946176,-0.3227447649957973,-0.5947720953683382,-0.7339116561380112,-0.7918688009226692,-0.8086815109453875,-0.7971183661728695,-0.7505530328018618,-0.604675799810576,0.053916255021125285,0.6131142209263792,0.6315143626247082,0.5809671986461092,0.5183471710293752,0.4509818395841205,0.37924192188901473,0.30771242774886903,0.2384226674227014,0.15738882436507887,0.020464638107441088,-0.20421977245449408,-0.4263138595980329,-0.5399985620649395,-0.5788047185498758,-0.5812518613749411,-0.5260589135670314,-0.34740040161327856,-0.03439730363585357,0.21555168371859768,0.34123112417424395,0.3900149567991421,0.40787384063670273,0.4180420691762923,0.4377067175335822,0.45164438912833993,0.4101927487765532,0.29903975666868426,0.13639815413496298,-0.04835690660261217,-0.2162170351832945,-0.32175839003417755,-0.3277825935698453,-0.19217058186581035,0.12182332143604202,0.502445608892147,0.7326781723677466,0.8160116026244146,0.8213192974429928,0.76572937955954,0.5972065135566433,0.2158506684002694,-0.2265969412558877,-0.4526904210573847,-0.5150566043357534,-0.5059279500350653,-0.4643778911197933,-0.3824878431254451,-0.21520192027999854,0.09749800678721206,0.45011113282812504,0.672076194060516,0.7754273263162095,0.8122379208624216,0.8116038227100938,0.775051108724086,0.6881076610810453,0.5405127517077747,0.3572164084971119,0.20236016661086734,0.10757573255341224,0.07926374125108794,0.08702636947571143,0.0966635769723864,0.0899447654258113,0.08048630427945531,0.09011747063972343,0.1333725791670982,0.20938643056151304,0.30346946462612373,0.3865186280811279,0.41543207695932016,0.372252148849456,0.24924480413120884,0.037783133544330355,-0.23086304033662178,-0.472786731495324,-0.6293151202539927,-0.7026117391341724,-0.7040372048151432,-0.6396691477014279,-0.4899789980376015,-0.25431593585126994,0.0012548220023979573,0.20542460867276138,0.34739526957229394,0.4492827165148994,0.52869252043665,0.5797083775777071,0.5954958750541821,0.5724582162433944,0.5184531716710858,0.4921666258854827,0.5048261309169598,0.4926131090570758,0.4270609539833477,0.35218087106180146,0.26939787133808407,0.15575908217695542,-0.0030337695611672598,-0.20879265597046023,-0.40044891501633734,-0.5104034549407681,-0.5271460241465782,-0.48705334654600935,-0.43537910373050315,-0.4206987258017452,-0.47522016199188916,-0.5666952188341703,-0.650389569510106,-0.7009952560442971,-0.7183883974450845,-0.6965916405705647,-0.6204417575494638,-0.46224345373952225,-0.2358226634712515,-0.03868874021157307,0.06495243961882696,0.08269146667748266,0.05966702945922857,0.059379628596089966,0.1277678640432726,0.26057059276241357,0.3857162725402669,0.45794645791120786,0.4476624100664446,0.2990327799949993,0.002952083983010567,-0.20567170475145588,-0.2610097247884025,-0.21729958867153595,-0.06939924445921879,0.22246428421731343,0.5439470006249147,0.7074221249571085,0.736236251913786,0.6670546040729636,0.5265692221486549,0.37272845973624025,0.2731468949294929,0.26444157214944886,0.37405784073594633,0.5453117346595961,0.6159224373770995,0.615889514915381,0.5571616884470346,0.34609875582021826,-0.12211098889651666,-0.47417835409378706,-0.5741752697272068,-0.5665646911222267,-0.5090698656823942,-0.45675879562902055,-0.5007097891701181,-0.6445824704580406,-0.7724404979505457,-0.8326059607219053,-0.8353614191212075,-0.7746821488724587,-0.580844613732759,-0.13310622694745305,0.3610285756817738,0.598890397360167,0.6688044918852436,0.6657562727990674,0.6308798991242582,0.5917860522697468,0.5757085510207173,0.5912576902106927,0.6288849918928492,0.6698938305018141,0.7010495950399634,0.7064209297711574,0.6513645121994888,0.46360062570868416,0.10424674016626106,-0.19155745045959485,-0.3073004563196968,-0.30179194580358193,-0.23146681352742143,-0.1267954579111359,0.002246048037213663,0.1482008009937969,0.2992695932876745,0.4297200108464193,0.5186650167293043,0.5485417708353821,0.5097072020056576,0.40854837431469965,0.3001709104489673,0.26227680042364043,0.2996097832969065,0.3722662580455404,0.4327337240757841,0.46485075756899535,0.4631616450959218,0.42498549187729884,0.33781500513547175,0.1891719042373481,-0.020556211733231484,-0.2520269461489584,-0.4446024826346944,-0.5688955010663992,-0.6278877203532668,-0.6397091020943055,-0.6155119626037249,-0.5528736780315449,-0.42952535798870356,-0.20417127092444104,0.10023722932975383,0.2763318660578208,0.2555649176774417,0.08152384477423642,-0.2082887156668374,-0.49554083450379993,-0.6794010899996655,-0.7683086570923682,-0.8060516146011477,-0.8185822897819465,-0.813304488807425,-0.7760329112632047,-0.6396886457330526,-0.25860569602839223,0.21215218644494588,0.42568864517231414,0.45101778275204607,0.4040770976905067,0.3761430568682981,0.392788653671279,0.43830373647226734,0.48165023381919814,0.4987930913873731,0.4825957678415566,0.4418671650926103,0.39257538644413287,0.3486290768000157,0.319556374826242,0.31236717139687054,0.31379601430509924,0.2992023990843338,0.25480736068648857,0.19158211388481877,0.17286738952136946,0.24840449766379757,0.3890958790326974,0.49813548812735975,0.5476274927938236,0.545502354688949,0.4888137094614938,0.3538368428945929,0.14026304621626326,-0.08371670402079229,-0.21816997339966537,-0.21886597629027202,-0.09157778662194785,0.0498494507580288,0.10829617249239637,0.09579063181273095,0.0391844450757944,-0.03191265418377471,-0.08076695915307772,-0.11831700922632382,-0.1705606100350562,-0.22692219292280943,-0.2867323193594944,-0.3628507410437494,-0.4432608894827112,-0.5048337710322074,-0.5372929012109541,-0.5454986968741761,-0.522783366916385,-0.45793407528954294,-0.34481282730826057,-0.2107223497741649,-0.08571454325613813,0.014309508348063934,0.09393676603820812,0.1919702448231421,0.3492495173050877,0.5488625326637872,0.7097181576522608,0.790745499188713,0.817019867253888,0.8166153583756137,0.8073347314913869,0.7927683733906862,0.7491267416529965,0.5176917621990467,-0.12843288758629742,-0.4687366732941703,-0.5679527615049199,-0.594705595582133,-0.5896023655985005,-0.5639109104838205,-0.5281658586910088,-0.491806691022635,-0.4507002116811957,-0.39366614638491926,-0.30724619781903445,-0.1990335562697298,-0.09572979500338857,-0.02085233582912656,0.021979879880405933,0.022781798827641923,-0.034602857827603715,-0.14021835013125797,-0.19942597145787475,-0.11515980555129554,0.09832091221842011,0.3395812060819428,0.524932215130165,0.6423222764843708,0.7043535045879247,0.7082673915490508,0.64061485630004,0.4731278784146505,0.19635033013681222,-0.11184347263830843,-0.3266351628162239,-0.39757019456095916,-0.32581009813136436,-0.12231582554894856,0.15827069565549967,0.39250779005678055,0.5220349584434698,0.5696405233889602,0.559326226698431,0.5128883032930096,0.42362526462414246,0.25530401911218437,0.04479746888577591,-0.09452281781553491,-0.16228625770730573,-0.20562216399699285,-0.2579838043320388,-0.354743579791182,-0.5808726373802269,-0.7510170336622474,-0.40240998794237204,-0.23133762519584533,-0.1496040057303556,-0.1108861907060064,-0.11399449426852991,-0.18732479168919852,-0.30900470869144053,-0.3818598611458285,-0.38338790573616743,-0.35676069654011755,-0.335276813759513,-0.3322380325726091,-0.33262764181757076,-0.268106683528022,-0.17750769427426302,-0.11074182065737662,-0.014078334728467755,0.1445603184718284,0.2979358012313712,0.39151400823857135,0.43914409770640156,0.45775733417837067,0.429470114689799,0.3370892459755237,0.21609343492965366,0.11428678258277389,0.04710749244663113,0.010066515247402593,-0.004359720558410106,0.00907711402924984,0.06036580732970565,0.14473535523108175,0.24282559095378745,0.3159610075780855,0.3506973024628864,0.35778724534614076,0.33491491325421296,0.2818521451790218,0.1883936434303754,0.054001442065271715,-0.07547191899360621,-0.14112883610046234,-0.13298306078275265,-0.06644496291980624,0.03985951472290387,0.1849784707175523,0.3651621800923448,0.5148190950595982,0.5151871391700034,0.3806808266241299,0.2055990189951835,0.008180317629163275,-0.2096739931112384,-0.36073850528080675,-0.3823172050567957,-0.33004028549339376,-0.22513060853026798,-0.05891497311527791,0.1418405446966934,0.2847324976486388,0.34330195086583143,0.3554526717574412,0.3642923859404328,0.40010382882752676,0.4633162207625053,0.5399058614987334,0.6354347301180309,0.7527951849550447,0.8539334247201886,0.9103536775501285,0.9413687166001226,0.9557749590794299,0.9513165566313927,0.9088885776663388,0.7267176734090501,0.1809043486018622,-0.31165906082067546,-0.5095337386734197,-0.6127036444010119,-0.7150462668919745,-0.8107693999205385,-0.873872718801736,-0.9072765598428904,-0.9220689414932713,-0.9235000158291242,-0.9016304704028065,-0.7812828149542227,-0.06777332037803084,0.6372342533097825,0.7413467044733199,0.5606705243905287,0.05868878369829412,-0.25445642945561614,-0.3037736404658686,-0.15922682824121237,0.13117925077958018,0.3250211177801197,0.3533138815846203,0.24971335319860025,0.02548184051312709,-0.26154866689322953,-0.4725339534545827,-0.5433241619495266,-0.5213478060994391,-0.4274917601886767,-0.22174482995194877,0.1494734318486412,0.5076997331557137,0.667952036294417,0.7147344369356223,0.7307141312507337,0.7483458248296301,0.7737828255336524,0.7949495165282164,0.8012596748930731,0.7835025603454655,0.7260904575653231,0.5436913217772528,0.03051828699507876,-0.3816158639166,-0.499312031725961,-0.5225964403126441,-0.501433735477441,-0.3975050872302984,-0.23376687499971396,-0.11253992866697855,-0.08110175465726202,-0.15603271621134268,-0.35171461648416896,-0.574019359693707,-0.7090778002006515,-0.7656957408474281,-0.7770044635111224,-0.7498336329363066,-0.6554154496094282,-0.4563221640976627,-0.22592172911671896,-0.15210894677047931,-0.29855162185673567,-0.4445217109764555,-0.49812349619868085,-0.4978508214905787,-0.4705696941615309,-0.42345502877638974,-0.35891078941438004,-0.2732089063585978,-0.16523590575375305,-0.024459131471790314,0.14956915294996007,0.33854212348931567,0.49169208822137683,0.5627235296301636,0.578626895637305,0.570043905621329,0.549387553765888,0.5285553733535642,0.516823887666523,0.5138529499567177,0.4986457805996686,0.4284227680411707,0.22741012065650965,-0.061668529237651974,-0.20184267272869072,-0.1600194902015866,-0.002783317215018628,0.21186762109757862,0.405010924458018,0.5295326009435328,0.5849360212544196,0.5758173959872221,0.48696655216513773,0.352578685754788,0.22822933318538507,0.1390021776810028,0.09748388266021035,0.11028773118748242,0.16668566344488137,0.22527723138191125,0.2322844006987174,0.19487488682880452,0.1466033533955758,0.10759646350473949,0.10265223479985838,0.14391549282818636,0.1970787687096046,0.21577288145789014,0.17287861577633096,0.07106387724031471,-0.05870571637217803,-0.1628949339189786,-0.19372246038017485,-0.09240993933409515,0.2189943955384,0.535912487018541,0.6423984933542829,0.6464953760522018,0.5956660566711279,0.46876668527859755,0.16769906190353717,-0.2969148853326117,-0.542853904903329,-0.599486593967413,-0.5808625349834396,-0.4980519766328705,-0.30984482681311015,-0.00754503308976969,0.2715829759819951,0.4112236431044266,0.4434101937892798,0.4082600839447058,0.3099733398666792,0.15384750902946226,-0.003972376412150604,-0.08121645851368599,-0.04649180577691065,0.08464430218626685,0.2576741365804575,0.39672523204082777,0.45256551893295116,0.42281071336658194,0.33298179773412667,0.23180298662865878,0.15024516727455764,0.07296535838560866,-0.034138100469447465,-0.17533875396153012,-0.30685322525184366,-0.38275177938190325,-0.4236954011970482,-0.4970179634347314,-0.6067870559426639,-0.66913568203054,-0.6775399379447004,-0.6457095992673323,-0.5811066389471068,-0.4846044034781394,-0.36096971475466083,-0.2184509433355117,-0.06105414031663973,0.09128536275441818,0.202733291390438,0.24234300551990168,0.1947542875636512,0.03516527384737001,-0.22897453734707748,-0.44855073761210046,-0.516475966802272,-0.4774369029784863,-0.376235093100004,-0.23584519903760234,-0.08829680257607314,0.03713672400233627,0.13310294275954965,0.19444495111691532,0.20383866796654024,0.15549916504520686,0.05135213313822845,-0.09948122719157708,-0.26696981437778283,-0.3780377155342385,-0.4050075204185807,-0.4152217506855841,-0.45992097316217445,-0.5549700017947634,-0.6669841235749892,-0.7324082825107161,-0.7320594930032273,-0.69754477175653,-0.6542396577150447,-0.627713083230489,-0.6230568352809301,-0.6120860467510622,-0.568379021518368,-0.4870114139559716,-0.329005503347361,-0.01062224988620303,0.4879368215839311,0.7821440134427986,0.8350523188552501,0.8292372405312246,0.8119037379462491,0.7901508175710666,0.7685259459478457,0.7458047930852773,0.7282207343538567,0.7181943467685641,0.7137561933597015,0.6994030221467616,0.6339252180124109,0.4028366171491103,-0.08973722477234759,-0.48397342895652873,-0.6755820814503255,-0.7897401316733952,-0.8578451500287683,-0.8864924915658826,-0.8823139447544595,-0.828578293944124,-0.6551098174954427,-0.2535202051379739,0.20894901144565528,0.47269557707707044,0.5714521636864028,0.563356419364576,0.4607410065309815,0.3260357897566849,0.2735893801579825,0.3176782705348654,0.3831961199919415,0.38430684892649386,0.23633113446917384,-0.17975329112690805,-0.6276380606008647,-0.7903845782170853,-0.8040800430306233,-0.7376405941525863,-0.5931566016820305,-0.3487800463336529,-0.0358061268945602,0.2296356400422332,0.3993238263181479,0.5106179436905705,0.5758299255803824,0.6117331472571138,0.6403452792702826,0.6713166086389603,0.7006423901001642,0.7182731490102109,0.7299958326398425,0.7496810161141768,0.7835538866616206,0.8047154386742772,0.696665893680306,0.4122729555202398,0.1714799293764244,0.026048264106324437,-0.07380041353975746,-0.17438204177895944,-0.33001366924050973,-0.5675731965772287,-0.4225359075776464,-0.21719770214426942,-0.08599938286954487,0.05628623712159108,0.285618534575332,0.5620011205254498,0.6427578240297713,0.6339140344420034,0.6404786392118362,0.6305235005809227,0.5424657392152791,0.3468924068937731,0.13257074520736115,0.013282970309690736,0.004779565422082286,0.11605396508762668,0.3589562756270258,0.6541993862182112,0.824587405703395,0.8819393623874717,0.8886430447532717,0.8670217110313126,0.8138270378586998,0.6944701230920076,0.37175199551171717,-0.2776945092850398,-0.6916678702844781,-0.8266206152930602,-0.8705854138005237,-0.8839472428334612,-0.8853671442306814,-0.8785286098361494,-0.846703393629232,-0.7098662471440487,-0.35707561047885433,-0.016898490995904382,0.15625241399072431,0.23749758452921169,0.2754773239790213,0.27512939532233976,0.2229516250758052,0.11689910730007334,-0.004102752069002305,-0.06005540632451889,-0.018823771451196663,0.0882906338510548,0.19558651817536502,0.25172502576782235,0.24831801335821277,0.1765522655481212,0.020273988428253623,-0.20629677766137797,-0.4021188386661862,-0.4921675888331507,-0.46350323581297465,-0.29308037368699325,0.010106060800137913,0.28031123756301707,0.4649815023858347,0.5989350420762922,0.6884202946976818,0.714030522662579,0.6938041161569568,0.6676121057212607,0.6342794129773488,0.5426499748087651,0.30521018841587355,-0.1051942498040432,-0.46188895202038094,-0.6415557676565747,-0.7135301406142363,-0.7302055584964657,-0.7121036427508611,-0.6646911075488802,-0.5806146107546798,-0.4461598588609213,-0.28602405587387003,-0.17142513740655316,-0.1580643015151773,-0.2196566342336748,-0.3078028193499471,-0.3955242778119133,-0.46227977566444606,-0.47684613831477296,-0.4152344726255643,-0.2763873751855355,-0.09846720191601846,0.06008490872217428,0.16583143680136067,0.24053806226481683,0.3152198504819566,0.4019168739755767,0.4898097897955305,0.5624237507720495,0.6037618819221263,0.58448613594993,0.4519151262340571,0.1696129414860414,-0.14376143578920694,-0.34975767528277113,-0.43284197710541367,-0.4012476281654761,-0.22238308091773526,0.09030788772060021,0.33737506932281464,0.4043666081705293,0.18901517711193289,-0.03470351201623802,-0.11388589942349826,-0.12305982811006234,-0.09654994635652314,-0.03883167731034988,0.08554481571037754,0.3420821708194593,0.2514934994500423,0.1425982368809941,0.07394496614606734,0.02394860961206767,-0.015625872221863804,-0.0442188630866529,-0.058888712451744846,-0.0573811835663427,-0.04866355977554294,-0.040946413760659765,-0.037257531141401935,-0.03542275253394668,-0.02879488745244163,-0.012429722875186875,0.02680186943925771,0.10804192812081487,0.22261824973377892,0.33787229160490484,0.43571839229055426,0.5112912356218777,0.5606464280166866,0.583555162866495,0.5833804100892092,0.5543393404930267,0.48354575842096914,0.366782631094457,0.22852708544800443,0.09374112622664148,0.0018741300662844605,-0.022706386178229742,0.043069594960043915,0.2237779181660834,0.5223200603462173,0.7903202504912491,0.8716746436672159,0.8268327617918179,0.7341879556709726,0.5988681117777106,0.38717008582560414,0.15566073588416388,0.0016154543968362573,-0.09125579525506286,-0.18697693033953472,-0.33142983502653234,-0.47880777156252535,-0.5608219727655062,-0.5766307832744546,-0.5352299312994634,-0.43473957717677303,-0.27021793356420587,-0.0666790448145584,0.0835082237390345,0.13196453414782677,0.09657015223484088,-0.003376941927565589,-0.15750074781081108,-0.34231475859762023,-0.49350751805778076,-0.5763199009205762,-0.585883031920655,-0.5396099111037794,-0.47532260653455427,-0.46288810194240904,-0.5694442175633552,-0.6990956514084963,-0.7519612867483616,-0.7567301508159654,-0.7133071649015694,-0.4318254162902438,0.6688435691462582,0.8646971598134928,0.878928509099151,0.8744008161256834,0.8508134159593488,0.7779021883569676,0.5881353874691639,0.2260226952220069,-0.1888697446313114,-0.5102658861258234,-0.7244488812980955,-0.8277724825867547,-0.8554142272627393,-0.831709418946059,-0.734061109900283,-0.5064523029434929,-0.24804524292109909,-0.13029330983251058,-0.14430810338659814,-0.22021937555017398,-0.2913168508318503,-0.30238010859516407,-0.23528060230626857,-0.07939889707160104,0.15325117971816082,0.37918985353074797,0.4973713666560711,0.5436302016909293,0.5746795111103407,0.6006907252705317,0.6256983066782292,0.6487981709797812,0.6667751913251945,0.6784934796251406,0.6885891248060254,0.6997859029633993,0.7068306392473336,0.7061789405991568,0.7094772913204294,0.7133122474031295,0.7046544394012721,0.6565240190598017,0.5113803693325147,0.1351429394878439,-0.28781580348061475,-0.44822017161516414,-0.4633728465873276,-0.36811776298796045,-0.07438257476134506,0.36601876244507703,0.6035693498472506,0.6697508488638714,0.6330429564593705,0.46290300632149567,0.20393121521738786,0.019154980851244018,-0.04302012365481862,0.028725468682223775,0.19823823310744063,0.3305067852683194,0.3772623871388257,0.3544146718456554,0.26153121488221065,0.06315160662430841,-0.22917573143760314,-0.4624095456077371,-0.5762835368032617,-0.6264608727891254,-0.6511152707596037,-0.6588067883542413,-0.6584148232632707,-0.6699906164952165,-0.7005643603840359,-0.7450188295899628,-0.7906563512449851,-0.8159193968986358,-0.794106215626054,-0.670950635433588,-0.3785801623816244,-0.07044386898970538,0.09451441132086681,0.1342168885921183,0.0887950428194499,0.002992932470181568,-0.09758940797653311,-0.19248559788936484,-0.2464374471183533,-0.23746690188032857,-0.17291656260933977,-0.07178162471977083,0.034807830135174696,0.12308931507913982,0.18170799796221201,0.23205824388270777,0.30998935152261886,0.4187291434100114,0.5309950418581634,0.6223969672719182,0.6809610595885064,0.7158185665634431,0.7280635541242111,0.6994094177044584,0.5614539672096314,0.1643150601030111,-0.32322973590082693,-0.5985293849652449,-0.7643697097295835,-0.8977361931680499,-0.9247797828654424,-0.7358531569793229,-0.4782359670712141,-0.2767819353444085,-0.14192554587317938,-0.07883419895171534,-0.12797557367445314,-0.36157035750443434,-0.5545535271226477,-0.48486701821641986,-0.395944604113207,-0.3379734728253042,-0.3041616521968256,-0.28407270012452973,-0.25095911413682936,-0.1600921298604292,0.006587702309177791,0.15924918223836484,0.23673576085074582,0.25909118121406877,0.25680599851357055,0.25518135692610594,0.26597802147318056,0.2955270138657312,0.33515885826416514,0.36651040069920937,0.37271126529623677,0.35100214065348845,0.3200920308477908,0.3165288556462311,0.3495795059335747,0.41223564203517343,0.4850207043936736,0.5346588753696399,0.5005325744637296,0.3394400879748747,0.11968734736076783,-0.10188545825115544,-0.296771344440661,-0.36743156065291854,-0.21718219579472237,-0.02353554484087086,0.1419388245971947,0.30376708430272964,0.47729829216640113,0.6292941488772382,0.7019518309804089,0.7134002078148644,0.6930448879575716,0.6587785433276945,0.6367613308030552,0.6215013361549953,0.6046554276420466,0.5833027175515844,0.548390420163329,0.49230715439755857,0.40468060309628495,0.2707401899861495,0.08804694987114554,-0.10036293631665297,-0.23184627393178858,-0.2857016497796868,-0.2798565873669209,-0.2551682551686937,-0.24305443336671245,-0.27022853552202925,-0.3058471364270409,-0.25941334232549534,-0.15766377636010473,-0.031692695036015656,0.13818624534293164,0.34005914977570073,0.5060389322732274,0.5945865963612486,0.6141533304674726,0.5862634626716814,0.5343393799529736,0.49432188878482847,0.5123042745012711,0.6020241111850358,0.717914459798315,0.8102520589153871,0.8650518658599539,0.8667182281155025,0.6430062659726388,-0.32849138252112764,-0.7980562815566269,-0.9126480456634006,-0.9562311287913328,-0.9744163950646882,-0.973955300832447,-0.9520050294094105,-0.8954970524856177,-0.7770828297300197,-0.6053772384111368,-0.5798700740692232,-0.6722062561901916,-0.7461902478205014,-0.7924669736844516,-0.8195361238957479,-0.8302891132807552,-0.8217873289784574,-0.7879658542484391,-0.7180726429358194,-0.6031917042579737,-0.45399480452804764,-0.3042225396946554,-0.18317474889401317,-0.07498239500665088,0.057632036507236487,0.22814968479413256,0.41669257025650364,0.6122692508776375,0.7825137517000944,0.89640873348597,0.9424057299163537,0.9419674502675315,0.9301414958620565,0.9272985740999551,0.9335012154553017,0.9329203336399406,0.8957965394441822,0.8297792470953195,0.8173660933740917,0.8915683565136917,0.9443226071430121,0.9229071953718987,0.9022220156615594,0.8968709136317929,0.8931325881523551,0.8779627523598338,0.8428342750772139,0.7834052285815336,0.6979563875294533,0.5747684936969784,0.39082082960709924,0.1761021546685708,0.052714731573264284,0.09813991222153279,0.2817178036658257,0.5091036539035299,0.6754161548347841,0.7478740494434092,0.7419052347382047,0.6798729012446452,0.5953439389376808,0.513606146758001,0.4450207771406087,0.37729163573089636,0.31589444315825044,0.2787452465751211,0.276219167853413,0.3185072242064915,0.3854644339819778,0.4285258160942247,0.42885297328428235,0.40435279392245793,0.3728825685581129,0.3433417648134312,0.3119861099141654,0.27435269935095996,0.22433662204280955,0.17949606374786173,0.1809332745553225,0.21777660400787166,0.17489509581490953,0.030710470560044827,-0.14841184646411706,-0.30288948115229164,-0.42642320559338714,-0.5407986960989541,-0.6058284284180504,-0.6106201197841307,-0.5859639326307367,-0.5406809387264937,-0.4533327095679874,-0.26907065493335597,0.1463432049156383,0.5713101851352894,0.676258187411741,0.686610627259703,0.6659112539690986,0.5940288733406378,0.40753576311747464,0.0013771081741776523,-0.4591585630864485,-0.652217824984012,-0.6934991054698157,-0.6901615662906039,-0.6811708898041837,-0.6830265922266026,-0.6904953131891454,-0.6901645410213824,-0.6749788815894585,-0.6460369175113707,-0.617702807723081,-0.6107271161212475,-0.6221010603982173,-0.6410236333527013,-0.6553768069005265,-0.6678960792298123,-0.6749353904455017,-0.6739416373006313,-0.6666740032648408,-0.6481726277780526,-0.5872550041539125,-0.46077439428695505,-0.2576385820093156,0.015905119291599053,0.28785396391794504,0.43850098253597236,0.4776544647428029,0.47658928210200874,0.4645382061225817,0.43813561991267547,0.4054913689507082,0.37016906684075795,0.3275184503699579,0.26642862890360275,0.18601183513164307,0.08521778132025803,-0.028787332049146564,-0.14021413297951044,-0.22580231658600994,-0.27201136399193465,-0.28106664320275404,-0.25304360056054903,-0.1697357428665294,-0.023327999790256786,0.1643153340111488,0.32889795588763293,0.4224959721307359,0.46869696731091537,0.4966262685871901,0.5319757156628008,0.623797438900902,0.6731158190256027,0.3479621900471249,0.16462491571660093,0.06294154781954397,-0.044593473651850186,-0.22445580840116666,-0.5593901134231081,-0.8714715411391899,-0.8313750372187351,-0.713196639905227,-0.6235264033405739,-0.5749624992435772,-0.5898492915399378,-0.6742681571307151,-0.7424373936067388,-0.7195764956105904,-0.6095312008220185,-0.43195092914967625,-0.2528189720620322,-0.12096205578114926,-0.042784292416997986,-0.005187745220500501,0.021583384105716228,0.08719872149385094,0.21254955797988143,0.2295748681652016,0.260349796008954,0.32031063200533294,0.4148922754752664,0.5400326879864259,0.674301871964262,0.7930282041475867,0.8842317092724862,0.9297518145814341,0.7875100591492016,0.22588363149621857,-0.24166985903304766,-0.46979069208479063,-0.601623645197833,-0.7017095060485605,-0.7925551288579099,-0.8578622885144563,-0.8615593852311881,-0.8077780880799907,-0.7158569067621392,-0.5765674411187677,-0.3931987906554199,-0.21230028064979262,-0.08310225515812548,-0.02537989359757528,-0.013524658234131832,-0.003669768952236953,0.0767959880591682,0.2832798970492392,0.5967193439285595,0.8375219316024205,0.9162615583213477,0.9142957498863437,0.8886228131353076,0.8540306769042383,0.8043538607547568,0.6909156174124679,0.2542826866355293,-0.6042994349719069,-0.8623884454813259,-0.9074507835990683,-0.8965201592389985,-0.8308941770834591,-0.6461081533370954,-0.25235445025089254,0.16015473728121019,0.3707767156310867,0.43534284206225643,0.4310930482077591,0.41770630877338755,0.43577436171339073,0.4998882226705164,0.5873613969118135,0.6521066391898511,0.6752663296807773,0.6510438980077764,0.5624166053692344,0.36047993443945325,-0.0007882911331830179,-0.3507308080555352,-0.5014727244476,-0.5247385053821048,-0.48819944037506685,-0.4127945028665602,-0.3501630125873194,-0.4215779886324411,-0.5919007464661145,-0.6994419470498394,-0.736728065720026,-0.7188372183492987,-0.6532373656044781,-0.5441155406124469,-0.4139457136917131,-0.26344679923967435,-0.05745241333047013,0.2181813885235398,0.47172247461373157,0.6268532971997175,0.6913490693400317,0.6748609207904949,0.5483594517961454,0.24468520026992507,-0.12789755448045004,-0.3408157974737804,-0.3960292061678731,-0.34238859116398485,-0.23777114399965613,-0.24875327113518023,-0.4886483128981126,-0.702767159547782,-0.7772406286779956,-0.7906175737067912,-0.7737942413574347,-0.7213612568725533,-0.6209452956612349,-0.49113036566028545,-0.4169943204884528,-0.4147961845393544,-0.414451429406557,-0.37442294351439637,-0.2833491710963797,-0.1339535134839683,0.08203175643343696,0.34017059956259116,0.5804999620053524,0.7490344259148175,0.8409396480766451,0.8733036239937404,0.8464863696164681,0.7079019339090801,0.3451204638848182,-0.0506156626435183,-0.17465098854753364,-0.041844190517164634,0.24640876876347945,0.5104738995904007,0.6503412835079785,0.6984789394905573,0.6861849005578232,0.6151037088423013,0.45037418604039237,0.22356160524000573,0.08105912183018663,0.06487631298148941,0.1473229667039609,0.274973007003101,0.3936017296370625,0.4631190270695903,0.49531421312413115,0.5332005402827972,0.6014073917354502,0.6759838741754859,0.715974053471437,0.7032522072417906,0.6334034505294731,0.47898146075262416,0.15939970640622775,-0.4349751280163001,-0.7844571928752371,-0.7529090137645702,-0.6875454258787894,-0.6421048642785221,-0.6001254177958874,-0.5312989907926119,-0.37326413544554027,-0.06373615932867742,0.2876997899135276,0.5160423294262,0.6132383672663998,0.6215168640212192,0.5663596494425394,0.4577034190074312,0.294899610096217,0.1073185564342024,-0.03791350326572632,-0.11962314685883325,-0.15496942779320486,-0.1584916961344269,-0.14438864254083825,-0.13216374482508522,-0.12653129466523722,-0.13095187961600013,-0.1764115554464152,-0.2828683276749022,-0.40403405456096825,-0.4964988924119428,-0.5594083827964892,-0.6095004553195201,-0.6630021501527379,-0.6880736973141941,-0.39785609315867754,0.04503738794719346,0.28076853451396144,0.4229654198662354,0.5280780475935571,0.5970840912792632,0.5967523370647039,0.48290343802086394,0.24113814760916247,-0.06748086352568816,-0.3107153376416743,-0.4193517299589587,-0.4287339308833235,-0.3729417496896291,-0.25707130016279567,-0.07451636071290704,0.16153779217860578,0.3888763765956852,0.548629853821563,0.6296237178293294,0.646512833629484,0.6251113987417268,0.6000413570080813,0.5671040471232275,0.42638133359255026,-0.05554360235270668,-0.5895393554529014,-0.798326019748627,-0.880663108995279,-0.9206326546176048,-0.9201645081559005,-0.8086466862984593,-0.4837411782183751,-0.10931968243989058,0.1280696445630413,0.2574401359581387,0.3287721774242447,0.3772946812173621,0.41423863512977627,0.43813040879043663,0.44845020450527945,0.44718624391707257,0.4409944360043545,0.4380483250432499,0.4502812868356121,0.4868893067572145,0.5486075345113067,0.6202695616106508,0.6807761888074623,0.7161290804833419,0.7177439043143585,0.649391036294302,0.29772008053207777,-0.6700899615035313,-0.9295265002139153,-0.9466184391329747,-0.938478917297396,-0.9253923710996903,-0.9070241164580615,-0.8748573777729596,-0.8116195403120117,-0.6854283704831579,-0.49160987791318134,-0.3322213271784288,-0.2449810864157026,-0.17546814074037045,-0.0757337198597769,0.07858827908841959,0.2561822218573499,0.3709557284390914,0.37447166612124155,0.2479640799826547,0.05898890019194099,-0.06673971869293199,-0.11859266940874139,-0.12661955030023037,-0.12283123606239128,-0.11844090705270867,-0.11186808550360716,-0.09632301584630408,-0.05870099478900326,0.010233044034168774,0.12784195718277905,0.28603325511996763,0.42752281693483857,0.5221615600059226,0.587925436508659,0.6461593075954385,0.7006982130324618,0.7364922570309473,0.7345133685657066,0.6765582641994494,0.5223292942365716,0.2217934941320835,-0.11756682070078603,-0.3344987876906736,-0.43306974263769327,-0.466626360199093,-0.45234888633789994,-0.3864688495316785,-0.24998979968636975,-0.04541425001661521,0.1672466067458463,0.34385165749766333,0.47713200748665846,0.5777015675862958,0.6494846065543608,0.6847843940748611,0.6810620379180468,0.6493402595936816,0.6061299350377263,0.5648984050983427,0.5401158174290068,0.5475363501438464,0.5876709065688996,0.6383316518337006,0.6581181700607651,0.6034048117142874,0.4313953369514338,0.18271370344213167,-0.015966640420936637,-0.1206253215772849,-0.1615757864504079,-0.16580311586614557,0.04044840961519641,0.12220062227603129,0.13297411352873656,0.14575295806878263,0.1623634947057802,0.17344509273980702,0.15912728326912293,0.08473307417633165,-0.10065840787141055,-0.4047489163745301,-0.6577070507872063,-0.7751904202910824,-0.8262579852500216,-0.8543638284482824,-0.8687090809201331,-0.8615788404290358,-0.7993935272908228,-0.6314278753513197,-0.359294226568428,-0.04584432560404249,0.17309506652096304,0.22306224699735386,0.17096344718635706,0.1186910108330498,0.12334225731743641,0.17955911648076975,0.25128952123260745,0.2937068722277531,0.2715649426671651,0.16248166805588557,-0.030849262431557164,-0.2244021915914849,-0.3196879406060873,-0.33483838216196915,-0.32466555313145784,-0.319720988638459,-0.33187289479965737,-0.3540865698016435,-0.3655259902224459,-0.3436140500356855,-0.2850711116104206,-0.23155042400697978,-0.22228298389223544,-0.2602552298413471,-0.30255905578902864,-0.3028714394014391,-0.22747830195938398,-0.0672616419535603,0.1195384098179684,0.23312374691509952,0.23012057301611205,0.15469910430462716,0.12647999033165525,0.25476375104192894,0.4834044707402247,0.642686122860106,0.7155307668597852,0.7430282322123851,0.7464760949998714,0.7242178206200912,0.6932815501663152,0.6731123693694671,0.6604741276551839,0.6351580716725472,0.5871076416350346,0.5136654031923722,0.42918238160045763,0.34988135980821694,0.289606845600823,0.26509272577733617,0.2821402999397348,0.33416631665471713,0.38602061996124265,0.37529797673995235,0.21510983080228246,-0.11725530578253746,-0.410052084233968,-0.5751827106954749,-0.6625894814814848,-0.7047737153296417,-0.7022994410538209,-0.6184140678740591,-0.38439056300675684,-0.001796301845942287,0.347288565557802,0.538944147922305,0.6196140535785467,0.6486559208011364,0.6575130960697363,0.6570020324872056,0.647110575645182,0.6094641650162917,0.5200603330535606,0.39449844119051086,0.3209088369132338,0.3287891325140344,0.38240797021962886,0.4464969450733751,0.513588889179794,0.5858225997540203,0.6590712857221668,0.7296215058757967,0.787619499215733,0.8189682065072845,0.7927163980602465,0.5174637607118416,-0.5476977376654154,-0.875983199343793,-0.9264717592886279,-0.9336143586915662,-0.9176062015262043,-0.8535765019993508,-0.6361676819218683,-0.19147075454433357,0.09903964263972288,0.13172192991044493,0.052163681265424124,-0.06837070935212154,-0.18867961422783247,-0.2402184933335417,-0.23397109896083007,-0.19674166486645722,-0.14233292654199753,-0.09633119992514848,-0.09619620391472546,-0.18686087398098097,-0.4376522767737831,-0.8106347168856901,-0.5837596252506081,-0.3732239374754969,-0.26056636076361095,-0.18576666857488663,-0.10919821061167251,0.020897569069302485,0.20225847131934258,0.3391903079538302,0.40190228836556713,0.41809232196741364,0.4035832444645001,0.36215374230087527,0.2780475968266907,0.1353523922016071,-0.0027290952573945913,-0.0634913223893146,-0.10118766824903812,-0.15723019638626004,-0.21848718832430314,-0.2623922167253837,-0.28419556931388273,-0.29215161637264053,-0.2862073698483448,-0.25529137380110395,-0.18031984354035074,-0.02834150648582833,0.21471029517724138,0.45233434088437646,0.5875690401771483,0.6576012980381599,0.7156812857516637,0.7838158979287692,0.8434458821581247,0.8721014280527395,0.8883705739441679,0.913929883501055,0.9392524189578917,0.9464779960360975,0.9370880615731444,0.9214620558078023,0.9082512365156366,0.8738480130770319,0.7366885871029469,0.43434162431197776,0.0740270162634348,-0.21445193607527205,-0.39299506526094713,-0.46898670574867024,-0.47172173233332576,-0.4379215020335005,-0.3874785855999731,-0.32728223176866117,-0.2482712047475106,-0.14613503963747926,-0.027701816522657692,0.07860177898682714,0.14986374588952522,0.17606326196372957,0.16829617004814862,0.14666184549073716,0.13193970547689324,0.14372983308726522,0.2050311335025559,0.3275155576625901,0.4799315584917171,0.592418737865917,0.5931492539682928,0.3649258154444326,-0.14961037990416234,-0.4860800053089659,-0.5456131746848477,-0.3936863628079696,-0.004751661463779183,0.39363257669758805,0.5914679675345038,0.6649453009681134,0.6892046356486388,0.6966005840533152,0.6841106087112002,0.6349461564498551,0.5401243798435169,0.3873394830567991,0.17111454016820576,-0.07910058885060932,-0.29410383644095417,-0.4412834194511789,-0.534228238497182,-0.5925125911974062,-0.598707704947218,-0.4758401128643669,-0.1968004257895577,0.03815299704839822,0.15087626229344073,0.17775484569925057,0.13963219581146424,0.044235115378350356,-0.07888214275022629,-0.17018911881905788,-0.19149343728389842,-0.1627164300624559,-0.15527913376190045,-0.22506246165476468,-0.39278626041724923,-0.6003011855181113,-0.7683483698232174,-0.8720476122070028,-0.926184296044195,-0.9501617237039659
