0.032450968302637793,-0.05773810351592969,-0.0772829362542007,-0.007681911437554962,0.14084645317411032,0.3137598918958452,0.44033600526097494,0.4952790329814533,0.4993857175140328,0.4759043330141743,0.4219230545686354,0.30232628537084094,0.1442759789076131,0.028258862812765108,-0.0393251010869561,-0.07132851651001117,-0.07618816240208848,-0.0603369691807199,-0.032035207174294644,-0.02066648118636007,-0.0589971749806647,-0.14147975021443668,-0.23642426049005197,-0.31498128971140016,-0.3573060242741741,-0.35800668301911537,-0.33765499548026634,-0.32190353356813356,-0.32533147402373574,-0.34834396965478914,-0.39561433747563046,-0.47872285549692445,-0.6019950240651109,-0.6485214057103825,-0.48326186172025415,-0.29915718680800163,-0.15829222313913568,-0.04419709724056393,0.04954140441414152,0.11228041648295543,0.1417612437265329,0.14758076182401073,0.14150648714109335,0.133735478193508,0.13149609620624356,0.14148830252317363,0.16850580553826072,0.2124748316759921,0.2657902085759234,0.31757626161174657,0.355841842539309,0.3808422426645829,0.3970546071460616,0.4115897063300438,0.4283058720127258,0.4376488431548149,0.40979118763987393,0.33314220749419843,0.24565259073853846,0.1853286816739939,0.142389488797414,0.1190982658528742,0.11208420892701992,0.11340626356762129,0.11641050734797477,0.11895162680158186,0.11563509157288895,0.10136248652186396,0.06992963128414585,0.017348249229891546,-0.05310809192240676,-0.13352757154427525,-0.21404662409816264,-0.2806902998901072,-0.32897663093684565,-0.370238654836213,-0.41079023861652336,-0.43973876724970906,-0.42563601225433173,-0.3522498774786897,-0.26658955129799244,-0.20998392209505284,-0.19045112011077273,-0.19754462669874787,-0.21880413576196148,-0.24466055139159762,-0.2667124957249,-0.2767644724773701,-0.25223812517545824,-0.17494957382722712,-0.08514290137184755,-0.023293423199478448,0.011178836183560737,0.02518006581736067,0.026779826665104627,0.016884397130713692,0.004478474847476755,-9.02906516042219e-05,0.01252344557594269,0.042497331563947284,0.08236643004690412,0.12094857432921126,0.14940379708487744,0.16930655309981474,0.18998928871270743,0.21869005695106178,0.2597643901664853,0.30895753281065375,0.3624286652225093,0.41652138834855224,0.45851785315262106,0.48103991142335933,0.4866321136172491,0.4726889448720271,0.41877665064099473,0.2969703402460147,0.14559138975355088,0.09468528454061445,0.21177341438418928,0.4050164550923217,0.5440906557429264,0.6205870071970162,0.6683000555938465,0.7091680450168127,0.7610738697642566,0.8289800498577665,0.8596485870877657,0.7442679136081336,0.5408681444741906,0.36958403365135645,0.22230743192895314,0.07153159398977138,-0.10023176183320781,-0.2546520012393837,-0.35785699510477204,-0.40658631214939084,-0.4034423065617486,-0.3782101974165832,-0.34201816841181215,-0.28687181724787525,-0.19103125598172063,-0.061722339090224,0.0594289553158167,0.13636354780117285,0.15638008893204947,0.11450144573796162,0.025576222436544987,-0.06990823519474484,-0.14248823148332504,-0.19519064090856442,-0.24096937231571147,-0.283043212074562,-0.31065734944008516,-0.311598539246238,-0.2813258596399993,-0.21704427005129812,-0.1312399604126745,-0.04842684592093118,0.01466902028108936,0.050905927104549206,0.0643441885063124,0.06510907810905253,0.06088001408875448,0.05296635837328138,0.0327172176859202,-0.006411806294455516,-0.05845148254741359,-0.12145310957994951,-0.19683805758990255,-0.28931643350393643,-0.37833545660844636,-0.4263490258602728,-0.4466119357628221,-0.4719060694128168,-0.5090418459101175,-0.5516225784095783,-0.5833896854214746,-0.5770365202585619,-0.5241727096176438,-0.43216573538878283,-0.31728088850079567,-0.2081101809554271,-0.1296356595110018,-0.08007579968052993,-0.039943462719112886,0.0025563568418553,0.05166367803231487,0.10541831743264547,0.15032793480566903,0.16549137413390191,0.16676145335083958,0.18355116418477652,0.22787737805968392,0.30827975195893387,0.35656465540077315,0.2804336514198911,0.19688938078713722,0.1365072432778433,0.08317266013195064,0.02480953834884933,-0.048850676314748695,-0.15167434585601935,-0.29536978947956866,-0.45353509005742315,-0.549947202192772,-0.5393847476584641,-0.4303785923920503,-0.2265926408312612,0.019324945172145135,0.20768421360732287,0.3106772185352785,0.336582614852057,0.2977689184334424,0.22406438520900537,0.14430941321757923,0.0761445338762542,0.031067692522739748,0.02051770520015268,0.039047189240660425,0.07376259631705166,0.11596972611463591,0.1601989069629662,0.2012212054959433,0.2232853119909591,0.2043693373861933,0.13899231311721577,0.04583799415756368,-0.04221043916094198,-0.10852332358182241,-0.1508952605588278,-0.17391821967358528,-0.18345122267577677,-0.18423093662945605,-0.1794463970192899,-0.17017412227469744,-0.1596374685256553,-0.15858913018613857,-0.18937161384536288,-0.28693688348372653,-0.4162612889753727,-0.16419782450827877,0.0800409530027633,0.24273626148521135,0.3442918185873982,0.3939884287688412,0.39642419136029344,0.36221114566283963,0.30046215586113556,0.22866736617949382,0.16155275884674924,0.11128780265885338,0.08382571351712627,0.07492954724215423,0.07169214594103489,0.06177028887732183,0.036818470880288265,-0.0007932535469870026,-0.03519333050359983,-0.041047442799831524,0.002089906177421171,0.0912614556644337,0.19747503575187925,0.28560595466697114,0.3446675712464446,0.3778272029916431,0.38493014670950837,0.36244912372087823,0.3121496882039087,0.2390718758397887,0.1512264359262069,0.07290674612308781,0.02533847982763802,0.018160094702895105,0.04181400605817538,0.08045366288990641,0.1234060417272591,0.16121999690005745,0.18633615037611076,0.19001417585088165,0.17089762700146052,0.18857194963705556,0.25214414484532816,0.3285252745162391,0.3743576992724878,0.32664259580452826,0.15249529476605903,0.004952349815987363,-0.06547400915151783,-0.09315481228504183,-0.09714713000973564,-0.08218590058112861,-0.055421203235646394,-0.03967476108462564,-0.05355623722073728,-0.10811494831160477,-0.09439820410214485,-0.056223263876251275,-0.005549970263710294,0.05446614099077547,0.12340482995922959,0.1999753827779968,0.2728350191399692,0.3284214235592345,0.3595613027870102,0.36247693197402947,0.3370644655542356,0.2853098837120096,0.21005739395202103,0.11076210410203043,-0.0075357770736894855,-0.11804267821167064,-0.1961029463037969,-0.21430009098360395,-0.14936464806515026,-0.023095429943979322,0.07238034734515553,0.08361538884641108,0.02389857644663952,-0.08825036490658544,-0.2376184409980006,-0.3920808285174693,-0.48052389257256695,-0.42803077885932406,-0.2802257971450295,-0.2103347719751313,-0.27341118032634365,-0.40488701862942794,-0.5256017548318289,-0.5970455241143354,-0.6094827234533149,-0.5522609358884131,-0.42563890072309135,-0.28390021169264196,-0.18670036152762787,-0.1404575302852031,-0.12570889074990216,-0.11891654218303738,-0.11042381684461879,-0.09850342378215951,-0.09014973916466032,-0.09579016963018185,-0.1115350305207476,-0.11185260172526053,-0.08003225191641114,-0.022061051106274016,0.0379087518932473,0.07366440860282392,0.07827977809454126,0.07382213930448665,0.08515420837064885,0.13542367484951803,0.21221894513942585,0.30578040751171837,0.39542187207239143,0.45480071146822987,0.44815866699659485,0.345349329797599,0.176755229462105,0.029297867296167773,-0.0494094584788781,-0.08062018446066302,-0.08813899285290847,-0.08446258551448967,-0.07691525921249781,-0.09265443891736258,-0.13264737997685624,-0.17196059269396471,-0.1905308940346821,-0.1864936497304881,-0.1661904629078613,-0.13362977874183718,-0.09210123569502185,-0.05295010838612742,-0.0360416683861953,-0.05921422515939567,-0.14634974184225924,-0.2503386671260473,-0.24598811922566088,-0.18064388618224472,-0.10335475383267974,-0.03308239642502534,0.020193724731677534,0.057549330601988885,0.08187740716910392,0.08694330215186585,0.06435693827020382,0.01992704135810431,-0.021962650851628455,-0.0463867507579157,-0.05162280231202769,-0.04225445040969073,-0.01994741449508473,0.017934147250629567,0.07907695448829215,0.1703091776256278,0.27781548803747613,0.3609716391733501,0.39589806224154883,0.3560949806286106,0.2537074399468353,0.21687693988546497,0.26744951552822593,0.35778956343410256,0.4276713730817937,0.45162259866919313,0.43897674934450664,0.39889874664559993,0.32939734379983227,0.2264180411272729,0.08780209678431512,-0.06677118938599477,-0.1929776889766764,-0.25385014641306375,-0.24214054727679518,-0.1717658603338983,-0.07096853796279508,0.027647102044950578,0.10004621226049892,0.1290718263548388,0.0944763338172898,-0.05470143929927503,-0.39663629222967156,-0.6582531328914841,-0.6000701772222644,-0.3984328524247239,-0.12074179802747245,0.08243126301117082,0.1480564037518251,0.12126321220264694,0.056562022723015686,0.0014842740797397652,-0.018673124753094118,0.008182194224892834,0.0865276841721737,0.202173036955398,0.3018401153824623,0.33147338191591796,0.28523880546125174,0.1914222444665267,0.07629391213071023,-0.034762523083193185,-0.12760351386979357,-0.20741943990738027,-0.28732997193447724,-0.3423348387892379,-0.3078830466715789,-0.24152069136483215,-0.19622558748600513,-0.15769705221963518,-0.10569826682441544,-0.02481728864422672,0.08089677253463794,0.18497886117592216,0.25864470981388804,0.2857832481462042,0.2608729458289733,0.19076038838611722,0.10426137012652925,0.035042520555784884,0.003522994748082774,0.010682926521036463,0.0413695273721126,0.08225193072934557,0.13113746738026036,0.19302551350399413,0.28756549401549186,0.43033674833746344,0.5492940656838056,0.5856257771971027,0.5605144434262562,0.46589232329496827,0.3005827059876327,0.12683636990030056,-0.009048630266783673,-0.11208487733298027,-0.1964713703735963,-0.272814402915561,-0.34142373864493375,-0.39713299065560254,-0.4261113329659691,-0.4100188974525383,-0.34645295976867096,-0.26682328207613515,-0.20440587469882432,-0.16281662764921515,-0.13922821924007492,-0.1367447309520454,-0.18090313107501166,-0.3384402097650201,-0.1258644217141401,-0.04791931258741251,-0.007758584743623607,0.032037152233940824,0.08751435738909487,0.1736062208503983,0.2980634991711175,0.44116026066704545,0.5349359026671707,0.5459959443513083,0.5065305848360572,0.4459019486044856,0.37490809361884686,0.30550336831731906,0.24877053445024205,0.20427782262405547,0.17158258109786753,0.15430110614365974,0.15372025437189624,0.16374827709472814,0.1857926335471445,0.2169924161775596,0.24815443600387208,0.27341228798002326,0.29131830218651655,0.3025501635859211,0.3119894308016731,0.3082782509167399,0.18561589485480987,-0.07631065225466839,-0.1814201324548937,-0.2181125836219503,-0.2312859208146077,-0.2266413234396488,-0.20167996743592803,-0.16408852751108646,-0.13554136819787932,-0.17144666377914874,-0.3680984108421318,-0.5912233949133117,-0.47507843328249466,-0.41650990696497137,-0.391419919299211,-0.3538625261788946,-0.30598192952144637,-0.25993784971258954,-0.2087669360259423,-0.13096902830174567,-0.022406747173857995,0.10453108575283011,0.2181352305944972,0.27278346051251184,0.25238566542762897,0.1955387551855187,0.14320561911836885,0.11090388341533873,0.09027325125518616,0.058560284063603266,-0.008227163810361371,-0.12244809586843436,-0.25294614802750753,-0.354998435796714,-0.4096218770717249,-0.42187203439261767,-0.3979106591998438,-0.3447141264059715,-0.2740888288796868,-0.17869907116386186,-0.04611444113285,0.1101640739959256,0.2623911499397462,0.3925193194223285,0.4979914395174874,0.5526787109883962,0.5167164770764153,0.3601141894837496,0.07752470869544031,-0.2245009652653868,-0.3854377141897211,-0.42598988403194105,-0.4011286728782728,-0.3284481773228827,-0.2144738394460451,-0.06520326138518048,0.08878052216783922,0.2003158201343499,0.2365215842738393,0.19838157714607724,0.10325375167761895,-0.013441072461527027,-0.10325711999219782,-0.13352530468245993,-0.10426018851536546,-0.025479961602365618,0.09488306699240792,0.2557198448105794,0.41900627018044023,0.5136512573010418,0.5156857077099872,0.47625450782574,0.42647720455754434,0.3599904260478321,0.26036787250947874,0.13467578082511805,0.0090187747757971,-0.08637378072705627,-0.13159488012317871,-0.10909427290713683,0.00551335709585084,0.24270183837947715,0.523219674114706,0.5812075232242869,0.4834107199027225,0.3743117310851645,0.2833183801086361,0.2042922685035712,0.12218906745947007,0.022918890526532048,-0.08646657568631658,-0.18376101552453206,-0.25825129973983335,-0.3005885574462314,-0.31796595301260183,-0.33678011119011236,-0.365703958137293,-0.4026512008961615,-0.44262945070112714,-0.4746857443128872,-0.4787404148137317,-0.4320716169344764,-0.31777595499039724,-0.1366803627864766,0.08756425953793133,0.2993167997059869,0.46220145585943156,0.5719575807225529,0.6302515661899709,0.6365166771058824,0.6024854041424084,0.5468944545159043,0.47943310668412914,0.3930415634548336,0.2770567890510065,0.12717453831880907,-0.05298662174741802,-0.24398839230106603,-0.4015464588597871,-0.5015253379307749,-0.5536704399448797,-0.5680246966509936,-0.5533861002402211,-0.5289609784337065,-0.5174849288094682,-0.5314739135752423,-0.5561187786384519,-0.5722959316045958,-0.5757048891528788,-0.5368686587295144,-0.3770703131866168,-0.09343242614703678,0.15591366187798153,0.2959685566073974,0.34785367939826906,0.30152494750978787,0.12825195437757228,-0.006943075681763054,-0.05278351491485474,-0.060946851209322785,-0.05998884612848453,-0.06056504482614945,-0.06748516099618135,-0.08286244203332627,-0.1181261177759657,-0.18058048639352456,-0.09779852812483233,-0.04771763719902117,-0.02587197533182232,-0.01848382836264105,-0.02285178932054911,-0.037058739011086916,-0.050940896432727575,-0.04598292189544856,-0.004621710788449566,0.07538934975248544,0.16086470998603017,0.2341387653361433,0.2978610895298084,0.34948912904410645,0.38503455315828095,0.40613513137263035,0.4174043615474788,0.42425217578664387,0.4385227507560752,0.46914807328562175,0.5127266071931263,0.5512618890289799,0.5668552762176157,0.5388788734260752,0.42716922195851054,0.17083293225713905,-0.12148495821732201,-0.27039132861908377,-0.3168728455016428,-0.32806803711395666,-0.3293886329459828,-0.31844471528562146,-0.30127496770520207,-0.28938919310896566,-0.28603824942528683,-0.28698567066558645,-0.29064887001516404,-0.2956854635291649,-0.29478655447430707,-0.2766574967536338,-0.23862878261266088,-0.19081700887099848,-0.15775321322133862,-0.1465293765572479,-0.14115940116696546,-0.1307829470882282,-0.11237025546016056,-0.0919259975754628,-0.06981232317506375,-0.03941761253730153,0.009971547210535496,0.09039964507602145,0.19596722234354222,0.29164527263395834,0.33942372785261443,0.3338060554932152,0.279920502092792,0.18234097413485445,0.07552072325966802,0.01048142873541132,-0.007215121664036211,-0.0021806027448599634,0.004303870814371232,0.009662165871909595,0.03679660089945925,0.1170580990949391,0.2550015901244424,0.41551009372520464,0.537783235829483,0.5969433174771785,0.6025887805845975,0.5669506719664201,0.4933239055333435,0.37392183959516606,0.2030768545728729,0.023990668090863042,-0.09316505657391431,-0.1620251421127823,-0.22364105014871397,-0.2889452107012049,-0.3463495258613155,-0.3876239907851791,-0.3978950423458733,-0.370309896142065,-0.29290448819461273,-0.1637833475580685,-0.019238015238855707,0.10821182283636198,0.20711414498865796,0.27574410427646223,0.32087154213920255,0.34939746373409736,0.36717535149435904,0.38323403126685485,0.4005784155528036,0.4090000800661233,0.36125408742983045,0.1652973220328073,-0.2893736363352877,-0.700820771823746,-0.7975429084401784,-0.7573100840087915,-0.6567344045883968,-0.5288480195703859,-0.41312126715511976,-0.33485398106566255,-0.2962440214165568,-0.2817535629725654,-0.27356766914977393,-0.265735198307755,-0.25693802827596357,-0.24448174422712432,-0.22585656344986735,-0.19729683303272513,-0.15130709567291262,-0.08458409039073612,-0.025818882306492666,-0.010508347072930621,-0.047527514523316675,-0.11962349968540735,-0.20188098994123593,-0.28442346559584325,-0.34853206404629006,-0.3784002233889323,-0.3420972609162436,-0.21399109829569193,-0.0196385986926253,0.13801746954340013,0.21370182448537775,0.23428248080937727,0.2286199377724739,0.2194213285441496,0.20775586581396147,0.18676216837412662,0.15417817142497353,0.1158875750988142,0.07771777199301817,0.05951664692847268,0.08741911589469309,0.1770994998419536,0.330534325553641,0.4692290286094871,0.518178737193908,0.5053416494512377,0.468843009854428,0.42614462242636003,0.357169103886116,0.1545337830578825,0.08119527535603892,0.16011536416214633,0.30721432502011214,0.4562250446366715,0.5189045036552884,0.48406428719205125,0.40724908937068477,0.3240755695418257,0.25015067160167287,0.19510693725428502,0.16037726015388898,0.1359856726599126,0.09001962638643654,-0.017852385147381307,-0.19178875051515648,-0.3747942330922588,-0.4996981575374651,-0.5605132119206653,-0.5810014633802129,-0.5731616181349304,-0.5384569971323392,-0.47498008526830254,-0.39304540600002,-0.31464555395760874,-0.26163018782788244,-0.23421678447872785,-0.22115262509550349,-0.20223067040497386,-0.1592526316199062,-0.057971685314764085,0.11736769706033366,0.28776156394260655,0.3976424277145649,0.4415576507574933,0.4369607094747812,0.38901525140472043,0.26374973107762223,0.07690856456642052,-0.03044818598488408,-0.047629853864021014,-0.02169425946613835,0.01502104582803073,0.037151755618931755,0.03064729559785817,-0.009175813708988591,-0.10333377895092567,-0.22267277305906516,-0.23003910768375868,-0.22849442320973506,-0.22990311417476678,-0.19997046990072104,-0.1373169095345589,-0.08005712531116803,-0.041591161357413545,-0.018824285049847535,-0.009620678380055148,-0.013653128138261585,-0.03386483014754411,-0.07472563741638728,-0.12574046850286114,-0.15267220780333202,-0.1374242221358291,-0.0987332874042311,-0.058259404958056496,-0.022880277617772442,0.00637945766932466,0.032193766666062475,0.05433307942547774,0.07320312397305279,0.08937188858100623,0.10421269971810698,0.1286200978702353,0.16630484823533548,0.15886991886548021,0.16007615818029933,0.18121488395399496,0.219085528952241,0.2768462972916267,0.33983190255673906,0.3656622004341338,0.3598144345758949,0.34152553164312305,0.3145262789107152,0.288254956328796,0.26825566072994556,0.24996816962609078,0.22446005853541762,0.1844237877176013,0.12961902563928365,0.06820699580687438,0.019165236855240644,0.012605833722775428,0.022939890517600467,0.02903644282704847,0.024457053720827876,-0.00016669916684353223,-0.0728253751145278,-0.22272466870614993,-0.3837517794984375,-0.5021047533879034,-0.6031822561403346,-0.6589625797613077,-0.545139588134788,-0.22424671849349798,0.06543905501347204,0.23646213481670528,0.3229295814172451,0.3471560044930401,0.30334820857018274,0.1999372655559025,0.11242679354167118,0.11874117539620195,0.20250039471079773,0.27089926919497426,0.29999271214102197,0.29068568137063466,0.2509007596941724,0.20279816957834118,0.1670768440521037,0.15077365014562025,0.1504429976053,-0.012567958009914964,-0.06951707804825379,-0.1012719450924211,-0.13222940433953176,-0.1704762049751913,-0.21916371126852116,-0.2546342512238782,-0.20309586374865313,-0.09486419209996212,-0.020387337738439735,0.013594157511069212,0.01913433703767364,0.004065318346229875,-0.027358951252325913,-0.07886451993220736,-0.13800973055268118,-0.18603339721393472,-0.21150109283733484,-0.21387807562132788,-0.20525162608435948,-0.19407839479967204,-0.18205295890362674,-0.16321334073465707,-0.12390876758374272,-0.06253665032112757,-0.002588599600923683,0.027068467212147063,0.027342593428497892,0.009662039129462377,-0.012102917433920073,-0.030843697483136912,-0.04018556724375904,-0.03610692535487828,-0.019601345427413534,-0.0011315073707413963,0.009414963105745551,0.017152019099332682,0.03410711680655382,0.0695890151599198,0.12309673119858369,0.1899027662991717,0.24876584348029349,0.27471167587674233,0.26557652921417213,0.24015949001209938,0.21778845019334278,0.1988057621164206,0.16284196569566037,0.11236089678084601,0.07023710524648354,0.05317085356242317,0.07140640945742713,0.11771373205117844,0.1749552221434852,0.21439636272880072,0.21340058948641316,0.16639068415533698,0.09493328773712686,0.04213751776169446,0.03467159048064823,0.0677492014424239,0.1200350181397282,0.16907432732530378,0.2052643238756015,0.2243487767843189,0.22194106673035827,0.19961938691899322,0.16403650616638396,0.126571035866952,0.0894391945872607,0.061663387861412775,0.04810370580661529,0.04347247346623574,0.04887370927109674,0.09493769473266361,0.2424199041475996,0.09562808627039969,0.06877714420523459,0.06288265966414865,0.06364564608417637,0.06497430681967617,0.05453112547662711,0.011550994241193872,-0.08498431198290922,-0.22444424230368726,-0.3567009966019812,-0.4441332925940053,-0.4859938619032788,-0.49711681510395145,-0.48971033701703914,-0.46227633058651,-0.414293448430077,-0.35633928421894073,-0.30316649217323527,-0.25973966629622625,-0.23101613165271148,-0.20406302308382332,-0.1605581646012659,-0.09242027554357242,-0.008331409263721423,0.06419984896732521,0.1059772885911267,0.12811664223339084,0.15817653356508196,0.23050185058576797,0.3481593051163009,0.42855318123400976,0.37873274034054805,0.1903922126133723,-0.035120423925908646,-0.19012319983570436,-0.259065772958935,-0.2697451433093352,-0.23066670221969587,-0.11350708807340255,0.1480923905864198,0.4370203024427507,0.5070456088135383,0.4173728226179481,0.20087520427763467,-0.09999158036386979,-0.37828095731072336,-0.5556848409069551,-0.636501983022981,-0.6491241845638825,-0.6063955180069983,-0.4964836990517852,-0.31113932403947914,-0.10087859257171429,0.06532811510854246,0.17747177538758843,0.24749495631232857,0.284191017457955,0.29288896300003686,0.2908663127725795,0.286049533519377,0.27916575800869364,0.2721173043639664,0.267443507414476,0.2712315075874056,0.2867648067560477,0.3160963098399012,0.3597115183706157,0.41646369382012943,0.4767721014829968,0.5265776390369373,0.5502509994334696,0.5465212771180993,0.5124632382002069,0.4530361592511893,0.391293504915547,0.3653378385214768,0.3751949857813607,0.3835801673462277,0.38414369709226615,0.3726743521198962,0.3386207097215073,0.26556334208553456,0.1280953074986617,-0.06710974526077723,-0.23165014616639332,-0.29150919136689146,-0.24563415463129268,-0.11087282488863158,0.08870227121708138,0.29079953992506175,0.4478586598184095,0.5079763935706646,0.44735646088206066,0.366323946430403,0.33178168256825863,0.3278192902651977,0.2981835376715826,0.22753749435235837,0.13622192749108836,0.03667141161278833,-0.05351225780587616,-0.12639814387098378,-0.1785212024779722,-0.21164083252868784,-0.2380888172039662,-0.26972097562844666,-0.31072378122937794,-0.3491752941765869,-0.36087011621959825,-0.3234973022658107,-0.2555832849376586,-0.18065525058102316,-0.10748969973848939,-0.038182126111559356,0.022752402135319164,0.08018548739892607,0.14418054063787342,0.19235264169306227,0.19133361119955822,0.13554216296454508,0.046314771735647096,-0.07184310534423494,-0.2198801579517744,-0.3932286988043669,-0.5332754170988099,-0.5785726820567082,-0.5310014306470766,-0.4459680892126362,-0.35898385828146245,-0.2680532875358222,-0.1598680509997479,0.0009302553205566005,0.2490998999954508,0.47577169244327405,0.5028833530593773,0.40232593478136114,0.24018405130499101,-0.05436859426742155,-0.4454259013463472,-0.5557105239164319,-0.50948962151755,-0.23443927364018638,0.013063758445663714,0.13388617944818146,0.20153299469436706,0.23991616041748912,0.2492218992313959,0.21607764299443902,0.11881290266708523,-0.05310153708408241,-0.2607567008981853,-0.5209025476064897,-0.5707801395246052,-0.1111341421902305,0.06359937959165447,0.15519755710629402,0.21976587083850407,0.27419433876216326,0.32259247764420196,0.3558790517043227,0.34340772444684486,0.2790795669933909,0.21576268935860582,0.18266192336873383,0.16670810962032145,0.15126936996885765,0.12005347363136842,0.052236254726497545,-0.02668561362819271,-0.07610418856050626,-0.10753112108660232,-0.1286052793541362,-0.14389503477875606,-0.15859039007821576,-0.17358516378783007,-0.180246195584531,-0.17253151061468855,-0.14902906290919876,-0.10909320693237572,-0.0649361962125406,-0.04037023631336655,-0.055740607316053764,-0.10505518622210963,-0.1364225358108409,-0.12141043709898093,-0.09593717258759268,-0.0780397202100264,-0.06928822291327538,-0.0682246060876483,-0.07852668186658136,-0.11252079973814733,-0.18823592527387176,-0.2249460943177711,-0.16843509593858735,-0.11267702258420258,-0.06739811256760951,-0.025140062678416283,0.01579642569141181,0.04894229809468732,0.06792030879949384,0.0747357384947353,0.076164952805156,0.07339624381986326,0.0697920604337063,0.07041755275095057,0.07458849233776996,0.07880998099982181,0.07738265473072306,0.06839852758051185,0.05374935042631783,0.03686587061308161,0.029616254262190864,0.06605711036664647,0.16317287347041673,0.22895256877622205,0.27679586103210746,0.33707467536544533,0.4174156293033707,0.4879472292072266,0.49470217147173673,0.47621647389700544,0.4659942180780818,0.4638635738591794,0.4550442882024963,0.4214500858896459,0.3602336405830891,0.29501558308396314,0.25011163595051344,0.23402758846676025,0.22984302504320867,0.22339923960870067,0.21005128009555427,0.1876953324033149,0.16315327878133593,0.14722205847069167,0.15455806697838384,0.19143683529056535,0.24593650535287304,0.29727273400286824,0.3336427743154106,0.34213802351125117,0.3294525491674656,0.30751013150530176,0.2902791506921321,0.2809701819205463,0.28578061934490645,0.2966008722776636,0.29347406100124057,0.2508506462564993,0.1305845406949637,-0.07591091003977225,-0.28627219360743084,-0.4178239814146573,-0.48446283834199577,-0.5111137701717001,-0.5013096688965278,-0.43715825496735045,-0.2838816449252006,-0.041291718486074956,0.1816846062864279,0.2544541806047267,0.18400358176400042,0.059989207196841386,-0.04168703161858484,-0.10346204290596075,-0.13048726219273477,-0.1344220782678595,-0.11921012992046266,-0.047416331260983074,0.11197977702462288,0.12699518517202363,0.11073588177761194,0.0820700928813103,0.030373665052014467,-0.06072820597999566,-0.19107730268132536,-0.3239070981810064,-0.4359040580389951,-0.5238716241530795,-0.5832108866320647,-0.6162984290923341,-0.6354900137533499,-0.6530493176688209,-0.6738512030935752,-0.6871230520887908,-0.5509038622954573,-0.07481462184389874,0.23724694366991597,0.3795269608722076,0.4381168946222373,0.42645354401715496,0.36020262676774073,0.26471596020598764,0.1452399128839107,-0.004716643717590562,-0.17342119608228826,-0.31944108341642574,-0.39599738840871435,-0.3968315442260533,-0.33588530408062783,-0.23253463375397987,-0.11328522991959726,-0.024863245509429237,0.015541408938589137,0.019152762448607873,0.01663932695340833,0.022541727724015574,0.033060227493097956,0.032809422503472366,0.007188289590246003,-0.06547212779265188,-0.200420278009029,-0.3722792587757813,-0.4931192535878304,-0.5012394733894513,-0.41091785109163936,-0.26968670826807856,-0.12867740432579283,-0.017436249863443113,0.06524884126966521,0.10527816453431654,0.1000371408605881,0.07616360142303748,0.07736977213025954,0.11932409852166348,0.1883467913238276,0.27100660843024527,0.35240635873712,0.4158433186471348,0.44578793869382216,0.43751550313324955,0.37573982694031205,0.26337935001032786,0.15207188997712628,0.08063833145031184,0.05708231839877533,0.08315228053572839,0.14954167225539272,0.22672412001101255,0.2842623480311375,0.2986040269588284,0.2742948845492335,0.22017068204601983,0.1485042704866501,0.07198734465503144,0.0002933433236933876,-0.053958947115977825,-0.07837294606923328,-0.060719497461964124,0.002828078375801589,0.07017032688785838,0.12418747636320376,0.17376602729757437,0.22615232223112047,0.2805718634745374,0.32905960091573916,0.3521430802665711,0.33688292413413856,0.29736223612257623,0.25172321175495,0.19810606442345685,0.10858213694812312,-0.05797285835053972,-0.3132097398938043,-0.5577197104751193,-0.6947516242594929,-0.735424000371136,-0.6939477829779012,-0.5676768435473749,-0.4059970904440154,-0.27468527284840466,-0.1923717257285925,-0.1472767699778035,-0.11484489920607706,-0.07883169264367608,-0.03984982363275685,0.00014213352617578525,0.039176329737260776,0.0737450632981595,0.09934222129953639,0.11356556860020896,0.11979417622399081,0.11943277253419024,0.11590634537618971,0.1105079619091629,0.1061891035358646,0.10750759829220885,0.11642465249703209,0.1205222989793982,0.10413443045498998,0.07376745769943695,0.038641842747636754,0.00871863704656884,-0.014303825416915236,-0.03738167474857875,-0.06880970396132084,-0.11199776463486515,-0.16079809911802567,-0.20141746562149102,-0.22050562639559956,-0.21546269082578356,-0.19122997462836863,-0.15670846717577497,-0.1324339033437727,-0.12376774565405556,-0.1193658040876939,-0.10224862814042385,-0.06109744367587375,0.0015305847753925943,0.07209273428964101,0.13485620286774722,0.1836203559011002,0.21530353964110172,0.22970300582787573,0.2258745688337744,0.20979580773756487,0.19354206902676518,0.2075209592173949,0.26396887141753533,0.2988246231524219,0.3115262147609691,0.32407896564268884,0.32600843210424213,0.3138090640403155,0.2890661910208764,0.24793479001290947,0.17971094686176375,0.0736310293802265,-0.05110384623152275,-0.14533545789992816,-0.16152539393778043,-0.052503605224397794,0.24610828523755499,0.6118397891762972,0.7358641055439602,0.696442473807639,0.6259882512489553,0.6126121044223009,0.673886326821387,0.7687719869467572,0.8382773365048726,0.8198817588671333,0.5938282238753676,-0.011137813466938222,-0.46024753222667747,-0.6069172779308151,-0.6401352071037577,-0.6181937609045541,-0.5628445473244461,-0.5032754571357655,-0.4575408525570344,-0.4299696445546317,-0.4157450248041677,-0.4065510185620794,-0.3955127325761766,-0.36629237546235777,-0.30875695707633755,-0.2498253521453069,-0.2255712967522374,-0.23755129146033266,-0.2726873190976072,-0.32871244828917784,-0.41483703871825467,-0.27335054620132876,0.025428222581980506,0.13221543558476528,0.18352193140245932,0.2130260358098178,0.22836340833687954,0.22677705351500502,0.18879980505104255,0.08998605348569054,0.008429566544886727,0.028287224262561483,0.10883292445554268,0.2049161431988769,0.29569061511929506,0.36789026847208206,0.40871639993725717,0.40995461113732873,0.36346965730636294,0.24824241388715704,0.016354836538435006,-0.36029518621295537,-0.6323915962187691,-0.6985227800088122,-0.6088757011848582,-0.4120179487841053,-0.2334524342625723,-0.11435003365113783,-0.027573854467122783,0.04314639090911968,0.050309859931307974,0.023849408773028432,0.00231035023228815,0.005236108245188837,0.056016236700898815,0.23532477962303236,0.35769726737189933,0.32983615339069317,0.3260738306430929,0.3418675148300598,0.3695867624052452,0.4052264811568667,0.44368913039038216,0.4366322750973425,0.030398848333918132,-0.36317507040622954,-0.49742178870890497,-0.5609345084630585,-0.5901547882626074,-0.5970003736088981,-0.5830751178656977,-0.5506157842551127,-0.5106092345376059,-0.4738178322569911,-0.43885684825566884,-0.3940993476343028,-0.31185090255154885,-0.14244535967853217,0.13347775482913243,0.36473132065600744,0.44905796183604935,0.4336758017487269,0.3719498169333955,0.28099375815141087,0.1729452339630526,0.05301319830161742,-0.04504099862850401,-0.10193149419944263,-0.12220643623070966,-0.11530319832237171,-0.08907883602633881,-0.05514063765071592,-0.02580812219231273,-0.004535813808874494,0.011521698796748334,0.028532939039166864,0.05519452892443591,0.09858395184183792,0.1534454133995109,0.1922065516624322,0.19429068362977459,0.16094976565172311,0.10142422949173208,0.024993653982515122,-0.0654843583925252,-0.11214264076431028,-8.227765413367683e-05,0.08101470450590455,0.1381273404975155,0.17639787451152925,0.1846249025528183,0.14864601030122412,0.08982462067420378,0.06852938766471198,0.10045824187332139,0.13553950222472463,0.12061774194482158,0.0011471049947848208,-0.2056685037107144,-0.3796890850453375,-0.4809521569036779,-0.5239596998222712,-0.5094915332948092,-0.41834194124202917,-0.2534693247617227,-0.05310622921272409,0.12755521124369382,0.26738295898483105,0.36305544574478327,0.4077490644521408,0.4086592622898854,0.3760983547253796,0.31757460598773646,0.23957056608039481,0.1590579925393391,0.08836785951361259,0.046274480276043084,0.06472522248714187,0.16637503364688058,0.3275258254331373,0.4613732473416819,0.5436820957584816,0.5873679228420653,0.5973191274511088,0.5359132165675953,0.3400056630738161,0.0795878848277077,-0.099493879306777,-0.1753207762127968,-0.1443238925140582,0.005673672928569982,0.2024563071059714,0.3649873983389058,0.46778869308264104,0.5071870094091143,0.4761887672148169,0.36335197271741154,0.17938754079368366,-0.004023868887832661,-0.10458257446950364,-0.1271919733202992,-0.11536934601194723,-0.0868354780359662,-0.04597139983399269,0.005284557574118371,0.05140260266106043,0.08502031124315004,0.09966517896468328,0.09029495356493085,0.05223153131689278,-0.031197007196835665,-0.1870525016488298,-0.42397335088958304,-0.6469614239641595,-0.7525990856657552,-0.7632565947492582,-0.6699607072849474,-0.43189519842478374,-0.1491757002008799,0.06114724779478444,0.1822845761639851,0.20988258954849362,0.17021189561384523,0.11281223951957607,0.07547887706901465,0.08296108292209398,0.16721466727006054,0.37289878201754134,0.5851173607919206,0.6495623269612735,0.6470987098143525,0.633277524725578,0.611933169133208,0.5329754036402756,0.19379538586777764,-0.24019770854515177,-0.4030502254383846,-0.4742829187259025,-0.532868610903008,-0.5970425034972401,-0.6495439707288155,-0.6741889129495784,-0.6667377810073607,-0.6300977218342793,-0.5768564618596584,-0.5285683632413853,-0.4908683041855544,-0.42641998561598854,-0.2920609182435358,-0.11595182928525763,-0.0033027120383824953,0.02949174419046164,0.014786287938964889,-0.031769380919230164,-0.09170121346483687,-0.12898096066488496,-0.11268380495851743,-0.046787582363911714,0.05549313585097466,0.18080211634816823,0.3058513677330808,0.4041474110936275,0.46935316135164257,0.49262314807674823,0.4917577869474779,0.48755806911174077,0.48815862182929676,0.49214010579275985,0.4938294722002832,0.4878129088965764,0.474302645010953,0.4486384728287681,0.38765128701800694,0.2519099234483273,0.12157774402520852,0.048807580299305084,-0.0018992917607616986,-0.05093268282261554,-0.10764891036656768,-0.17475723999883827,-0.2400749468695291,-0.2768678276787126,-0.26109954175629607,-0.18340664050219974,-0.04973114311809791,0.1264995015277965,0.32071195272586367,0.4823712824883603,0.5664877787095219,0.5867105977513533,0.5671663846606452,0.4997021865700092,0.34054376004995734,0.10489048091989607,-0.09518145155990773,-0.21921320180004272,-0.2817197854529694,-0.30428556225674525,-0.30115961272232195,-0.2812905882434665,-0.24580003170574954,-0.19687849334512506,-0.13710522529620417,-0.06828642950304084,-0.00628749886155215,0.016497028171861067,-0.04585937968041612,-0.20922226218214354,-0.40346758792895526,-0.5429669816293271,-0.6194041479594354,-0.6510803246293586,-0.6455861954054968,-0.5901729272936121,-0.4576388442988384,-0.25207180748543734,-0.06106901337319427,0.06434053412178665,0.13908054182627771,0.18145389840493054,0.20559307191609208,0.22762835574748214,0.26467152357561413,0.3105998145953124,0.31909627863365514,0.27476095655575966,0.2298949858344349,0.2398087835677731,0.34544604985941696,0.4647888997134946,0.48959696274384856,0.471508392260089,0.42681606362244623,0.33999744102370316,0.1778675718399057,-0.04643682818623164,-0.20582171099347088,-0.25388704847682536,-0.2425872106854135,-0.19805421548116253,-0.09977908703458108,0.09286466573584691,0.1957099948029677,0.21687066919092637,0.22352483475223775,0.22860141477738127,0.230372889258905,0.22195755353762125,0.19523504849047782,0.14408374948657118,0.07633390800494867,0.0034033168951671843,-0.07229944748324842,-0.15003356721154887,-0.22575197961669366,-0.28893402712966615,-0.2901571834772406,-0.16910432835095904,-0.004983719472446864,0.123545343362039,0.20396271184878764,0.2449962142447437,0.25409360046999285,0.2432372269587674,0.21328876445110256,0.1666186208767481,0.11375831379274275,0.06926912484599125,0.0416460174981348,0.03214840908440531,0.03243398440980997,0.02868112329666911,0.009148220120795546,-0.011847234824971213,-0.011285048009652644,0.008573383323574255,0.03657596084150387,0.06178352765699331,0.07489071855503225,0.07201800539566425,0.0543203437972803,0.026620977970906696,-0.006642182289366186,-0.04976366685164926,-0.10488837788643693,-0.17261359263309473,-0.25043878106028183,-0.3404247659930137,-0.43971848057559904,-0.5125697991891349,-0.5112388084527493,-0.4305106357090849,-0.2940274071137318,-0.16686609158055085,-0.09732879007266115,-0.06685047126130164,-0.041628761957587745,-0.001281404159457313,0.05510753500490624,0.1229388564054956,0.17752397815042828,0.15923889144330236,0.07111351982362382,-0.025540348531119028,-0.11622354886623035,-0.2051046891809402,-0.30590379687902497,-0.3989469092880091,-0.18345378976687424,0.00852375395108892,0.10167590397169357,0.15725262045131483,0.19120034184254386,0.19962080259000536,0.18312053495028383,0.15819708779585312,0.13951517090416785,0.1363439679831443,0.15373765699368275,0.18240008251477477,0.19290539578624988,0.14822442662820517,0.04924191808937658,-0.06270888120706145,-0.15319962379205682,-0.21016736623994633,-0.24098100993009614,-0.25110651187647665,-0.2413419442708433,-0.20345521169512257,-0.10609067843053406,0.11245743951418037,0.2942371297085482,0.28692745182135393,0.235208261790935,0.19274302959189388,0.17294288940390665,0.16741822257029026,0.16047833485091506,0.13685593042128044,0.10189574865666962,0.0637285086045414,0.02205051304184184,-0.027276606033239482,-0.07566499166099301,-0.09797745807174885,-0.07792867943875156,-0.013642339240563994,0.08375197226730072,0.18021927554397066,0.2478178426272525,0.2773884407797807,0.27370764295732175,0.24750241536740397,0.2123409226300545,0.18779153330435724,0.1815361115097627,0.1853518180359479,0.19248182943873393,0.21025172537791098,0.24040547713956442,0.28230245517422,0.3260632760738025,0.3485302523993922,0.3145680412208957,0.22446905643825188,0.15312775263330872,0.13194111231667408,0.143853010033372,0.16885058721726393,0.1966510391233185,0.21392025641882934,0.22379071640806117,0.23678589881177614,0.2564058373309479,0.28753894868843344,0.2781488044144063,0.19888835174549468,0.1600732224654939,0.1553570672827549,0.1590759869113327,0.15236187546080165,0.11309333577818256,0.021298331103275756,-0.11433787379775927,-0.2508617923286368,-0.3584536480570398,-0.4338136688692586,-0.4877764210429083,-0.5316619575137361,-0.5767932470428342,-0.6113449829948377,-0.5852389974358259,-0.5041482593778404,-0.4365206107888616,-0.41750363354349085,-0.4367690765121984,-0.45179283378856727,-0.4401657367731494,-0.41830042276423796,-0.393703828696702,-0.3585421480087164,-0.30533764155846,-0.21933958696425004,-0.04810054876994523,0.26188795523289377,0.4344360262671223,0.42527072254937276,0.3514031033143243,0.2549099746759419,0.15854282224409894,0.10149607267799361,0.10017452388657727,0.14814839074580777,0.2351240657531024,0.36344697851873403,0.529646826693045,0.6368185381515148,0.6078744350881898,0.5218608597532481,0.4328540530256012,0.3350268438377872,0.19598481444355267,0.008129562970190542,-0.11635763226165938,-0.13513764233738348,-0.10527972516474433,-0.0624938645608792,-0.01603242523668839,0.03549472172581919,0.10999200238620044,0.25532476828297085,0.23513753877928115,0.15367480378087628,0.11974207356334375,0.10111976123125183,0.08458392529320724,0.064247412528527,0.040847902081220785,0.02030046754205258,0.01630052072518916,0.03844887943318733,0.07942959352529003,0.12379487997691731,0.15889784156405826,0.17362299398675088,0.15650028246950792,0.06207166750208869,-0.14873127615727322,-0.3505601862840914,-0.4465255834292859,-0.47178482562876856,-0.4396355422946098,-0.3590984545630985,-0.23064217324049785,-0.06273443473552351,0.11959487118147853,0.2853486093377236,0.4099694811955173,0.4761890177856839,0.4852668148035513,0.4526292041917371,0.39398578619149605,0.33238281814984283,0.28611023997128177,0.2573826563732261,0.23881548179880882,0.21902184451663761,0.19485833882216322,0.17735692692865476,0.11369662752165627,-0.010516808238419618,-0.01496909794380646,0.006572708540340947,0.053365701374497004,0.13351520079300416,0.24558079966717578,0.34540680632609244,0.38092037662023814,0.3782457638288766,0.3690170647804762,0.3359453971479309,0.25975290786913413,0.15154381311369308,0.041013832822520566,-0.0494146288802664,-0.11560696622804534,-0.1570044782798206,-0.1730170453949601,-0.16593408342005503,-0.1470129564325678,-0.1389785168611995,-0.18373506548935148,-0.2669411975857371,-0.354180622165028,-0.40341969353188933,-0.39939305367486916,-0.3593236840911114,-0.31874928969132654,-0.3014974554225304,-0.3219157391216203,-0.37622746792055106,-0.4140939881463681,-0.3929446353875923,-0.3459356307491091,-0.28696185481261793,-0.21317296703666358,-0.12502870077879455,-0.061963912719554703,-0.04261528155038653,-0.050720241147510024,-0.07013459014528389,-0.09292663664808244,-0.11670842242598288,-0.14028787524283637,-0.16589146169395746,-0.19327772535924725,-0.1870731881093259,-0.12931082552050546,-0.07977926989429572,-0.05680930817579773,-0.0824867186091372,-0.17886479500443564,-0.3266300829466096,-0.4460337535368872,-0.47393707421120973,-0.3606959990837489,-0.01205743137196565,0.3988191531855993,0.549765513662816,0.4972438949694404,0.3515521607302799,0.19022531112815538,0.04045855855325578,-0.09551943479988284,-0.21384721073400834,-0.29822555067202966,-0.3315129195330439,-0.3009012640617681,-0.18166484239158845,0.0017575862320283787,0.15192451564964102,0.22516827224893562,0.23817755154809683,0.2288858313840923,0.22865767530001077,0.24844254917451206,0.28670288304686214,0.3341200061979174,0.3900335942298702,0.4389630508256826,0.45217669852045544,0.3966754014301955,0.29878096143050414,0.22568537492144874,0.19302192722514916,0.17367447032621694,0.14175561863799682,0.08290175850078715,0.0244975126387601,-0.017476710175600985,-0.04209224088945952,-0.05537840985095386,-0.05877163197040254,-0.05336954706577622,-0.04245152160164506,-0.0326189425045622,-0.028433109991097993,-0.0335941743418554,-0.052261788637174504,-0.0839317617660404,-0.11833248168483258,-0.14384601267117827,-0.1529274720698164,-0.13504661955443323,-0.06808935496558528,0.025101149141456933,0.044032677609122294,0.008509764573445959,-0.05029636722055109,-0.11097862197607897,-0.15149072663684496,-0.1608438765091417,-0.13591275849426504,-0.0825542150866511,-0.02051935554368382,0.027083597920524716,0.051594167963346746,0.0607988210859862,0.0733347137981659,0.10401469092749471,0.15277433659615122,0.2050434557710203,0.24469574731086016,0.26052365377071235,0.25088011502467966,0.22418189090609184,0.19191289070241777,0.16577591754650653,0.15140577073476863,0.15102669535253538,0.16036081587232778,0.1738370458093699,0.19112595966437862,0.21445979815443034,0.24783371941513732,0.28729968534232153,0.31858211107729517,0.3324933803272936,0.32481279374649064,0.3047263104012846,0.28582076649434723,0.2754856963736376,0.27305890600199595,0.2767281442449313,0.28351651049493065,0.2726058783285767,0.16400826510583089,0.008412957439697069,-0.09601680125799064,-0.1708510040947097,-0.2331397092114009,-0.2910158222574456,-0.3447558262236707,-0.3934646720578451,-0.4326246599745987,-0.44948031447635695,-0.42126618973235547,-0.3392195687707287,-0.21070474110836346,-0.06550858859219517,0.04798239431472461,0.0631478294062064,-0.03799639284022711,-0.17297988874875894,-0.2643174602680345,-0.2961452374030479,-0.2665848554221229,-0.17205715616225348,-0.018691021852500395,0.1389502643875461,0.24421637312911224,0.29548397872905263,0.314909071684597,0.336038715014011,0.4108605879257678,0.4217779447363818,0.10469063397000572,0.006779610316758902,-0.03155415862738694,-0.04395185447563884,-0.01938792559352541,0.04590586919648053,0.11665467687322015,0.16735894850826658,0.18873908102756035,0.181412075938196,0.15079001174521686,0.1051031790620524,0.05364861521951154,0.011311318593605603,-0.006164952048938066,-0.0005792812929524631,0.013536618119219948,0.008591585235184624,-0.05144396811873904,-0.17361214864401625,-0.3018855987714722,-0.3984048300584084,-0.4530436920620721,-0.4566638815398594,-0.39847465767496315,-0.2784142275251313,-0.15937182403364006,-0.08482439182109791,-0.04418385459766627,-0.014103402080259843,0.0542254947868454,0.2288471377553468,0.20711203131544298,0.19207790220015292,0.1908182060533105,0.19464792040062284,0.1959508718739337,0.18166853547529987,0.12255086081621165,-0.03517884846575964,-0.24704145163538818,-0.35171729633940507,-0.35458489541390265,-0.29937393145487307,-0.22263186981441882,-0.1569104951855975,-0.12480587789186916,-0.13087671891584812,-0.17745509199333634,-0.24039259072344032,-0.2804957172374199,-0.2748724612669719,-0.22455685348616533,-0.16021430590472957,-0.10817168851209094,-0.07282183261717697,-0.041843525749091955,-0.010230880371005554,0.007189369015184666,0.015563362234169107,0.025097319312976197,0.03741081635708808,0.05818241206283906,0.10068724232101192,0.1671842675181612,0.2587977454935824,0.3654411915791535,0.46186975155393434,0.5099443852528985,0.4735895845812765,0.33911955359841883,0.12171608351440417,-0.0753069619880679,-0.14684884541543725,-0.11492642143345981,-0.05527731214946405,-0.002098750561225459,0.027086562162951022,0.021237068696573082,-0.01972556370347945,-0.08360872742036973,-0.1503264797057518,-0.21181316792674626,-0.2520573567713017,-0.25601152765789453,-0.2256229503597613,-0.17517815051376487,-0.12697940528013127,-0.08847837635224215,-0.066511819219286,-0.06724214194008879,-0.08732192232559856,-0.10140608508348209,-0.06456699451026728,0.03683605187469787,0.15145784543597562,0.23225430731444272,0.2791960694814517,0.3032883762248506,0.3056431014550655,0.28484230762836293,0.23401929637608976,0.14980758824731694,0.05866338054278947,0.0017555436754946325,-0.016740942586823595,-0.02894872361863115,-0.06557177539268644,-0.12291873478907969,-0.17980204675908026,-0.20656762174338905,-0.19488901124773914,-0.1607464605475328,-0.11932218626869918,-0.07928341850090716,-0.03884985419516478,0.006644941272103271,0.07468889449693773,0.1667493018914754,0.27448095568845227,0.40051933176168214,0.5240692285818781,0.6019588974164224,0.6280089803412244,0.616619747053175,0.5724208704396202,0.4931530729591293,0.3552135423236834,0.1620935566922563,0.009114960606864656,-0.05289043702752783,-0.043378638920602196,0.0060960607825292345,0.07869845741676662,0.1524565765550795,0.20874970351422759,0.224207076038953,0.18096458495381001,0.07628256653978445,-0.07711497182113908,-0.24478641159784004,-0.3819779161183187,-0.47437350381364424,-0.4824592847840761,-0.3899065255615189,-0.2724680315070755,-0.1825358859019649,-0.10845221272968064,-0.02961515976785425,0.05520090372389828,0.12958321040489218,0.15180758839902309,0.09863550310670387,0.037554313995553805,0.08665155445993628,0.2812020975455209,0.5407777676016428,0.6908984437665653,0.7297300824098113,0.7259127530088464,0.7096247595400802,0.6829059827924422,0.6029811155764706,-0.07833887477793168,-0.6446691662666205,-0.7284813056906672,-0.767429163711672,-0.7896007331499644,-0.7839205242101321,-0.7418836832567097,-0.6766402684683426,-0.6107856120886614,-0.558091567829497,-0.5228868827904636,-0.5018679974192929,-0.4824381894966787,-0.4505665339104,-0.38826719617503236,-0.2871652489381984,-0.16114937483987207,-0.04686927239651813,0.033493381798062556,0.07894941565335221,0.09294955988929475,0.08922082523048597,0.08320978549204801,0.08501817268948667,0.10133789279403121,0.13887595945676798,0.19668070513155395,0.26179286763522175,0.32690592533151513,0.37914074396317926,0.4207571286337769,0.4505420573818209,0.4740272271174787,0.49401708139726463,0.49943111413786406,0.47442618352651555,0.41818467032984974,0.34494251040582063,0.2632272243637167,0.17746634424570432,0.08952563941564487,-0.0013566254795183738,-0.0959301495228666,-0.16044404652979907,-0.13799029627240203,-0.05075472277379455,0.03806951373293745,0.09326227745081518,0.1128006006309797,0.10999144077677503,0.10044803804387668,0.09507551526672317,0.09858989848014135,0.09327299797504426,0.04454729520847654,-0.08027398957890584,-0.2658938036092785,-0.4299724109928615,-0.5121145958221153,-0.5182038367501312,-0.469275177170217,-0.38979119041902477,-0.30314732889693297,-0.21769331095025937,-0.1345859512526723,-0.05397595851547184,0.02519389721898686,0.11661464321727033,0.22253040200865035,0.3017428527944414,0.28273959004109944,0.1756512886249719,0.07290863886053685,0.006822208804478169,-0.02955211873067935,-0.046522241855773735,-0.0478565092520966,-0.031399759200381766,0.009745226666134725,0.050243647073687926,0.051640688757435105,0.023134925689664784,-0.027923531342596654,-0.1026547246585466,-0.20229617004236727,-0.31379011979493393,-0.3860917582907057,-0.3280107113257352,-0.14051825899572148,0.04860589421998322,0.1756294026438478,0.2553478563173563,0.3120982440730067,0.3610610994234638,0.4067512765982229,0.4386520135098209,0.43688871830954507,0.399192280459499,0.3479790029152768,0.30721428380030297,0.245876335703607,0.1620572253136315,0.11984673688775159,0.09652713973303363,0.06913542601735577,0.026537324191745294,-0.0294795001432752,-0.07934590268216624,-0.08589170116444911,-0.006427267819915109,0.1536093389437879,0.29629077478196447,0.34069061323809263,0.28464071574650357,0.16639726798241294,0.04100288107927022,-0.06281406579001533,-0.14111299175887743,-0.20182881223473084,-0.2503618120990621,-0.2872342735186243,-0.3085846308983742,-0.3013063070217264,-0.25872786868723674,-0.19105084691868754,-0.09765151959705383,0.021091331609988665,0.1474091710874794,0.24734283643088495,0.31822164119713975,0.37205788558990854,0.41015893371525375,0.3734578702836749,0.1600949621314089,-0.01763674244798019,-0.1051332243548366,-0.14922516190769405,-0.16740272002767034,-0.16419410729892445,-0.14172055974333447,-0.10178570539823525,-0.05433931147498085,-0.023422068054592085,-0.040593503410877065,-0.12982430778381285,-0.3081290679980297,-0.5595335939584904,-0.7101114256274532,-0.6863852746590579,-0.5708202982116857,-0.3691117180852019,-0.04738169825588956,0.31015661234390696,0.5787193360347519,0.7226579087936016,0.7586513575799356,0.728629795693573,0.6972796371774653,0.7100350935480808,0.7039616205639821,0.5057501702861341,0.2629980230598605,0.09845917681242879,0.005531943217724433,-0.03844437163514113,-0.03791561070860122,0.003967708407272843,0.04450402773206097,0.027869288461656955,-0.03492938049019276,-0.10080336676308216,-0.1457788981644182,-0.15956534645105983,-0.11848530794505409,-0.0002153574798010246,0.09853396823314776,0.13037735061173109,0.12699949013061784,0.10968381341045609,0.09561368013062937,0.0871143196006318,0.0797427220951431,0.06181101636932629,0.0358659211511982,-0.017724687080274804,-0.09800205408233266,-0.17618149849958467,-0.21316557820942036,-0.19311812767874362,-0.12469217643685386,-0.024430467433135542,0.06534912695469064,0.1065458634921206,0.09467219006024649,0.05989028296269008,0.06054051069955869,0.14889545663585055,0.3063121485117241,0.4637766798114137,0.5839793867796241,0.6599849404915227,0.6978910473193924,0.7008729873422901,0.6654372159524143,0.5969262400085057,0.5029018009961886,0.35829575874297076,-0.04549892993525368,-0.6373518455254633,-0.725102083389552,-0.7196038485262574,-0.6926327307934029,-0.6345702512159525,-0.5368756734778111,-0.4171215358891077,-0.3072838637997498,-0.2309224557313574,-0.19353105894753805,-0.194208278751855,-0.2325043733329421,-0.3415232838551348,-0.3132629920455978,-0.03424535686658105,0.0530169523833803,0.09580809672414627,0.11926169399825819,0.1175431917971903,0.04787851536650343,-0.12505356181149743,-0.23444131453498532,-0.24719368762282504,-0.19924983875000404,-0.1266375988262317,-0.06815999701826952,-0.0419343698686515,-0.05500180876964235,-0.11722154587646985,-0.21172829215602665,-0.28548890431042434,-0.30667370339313793,-0.2824388161144998,-0.21720911951583827,-0.11743136120133538,0.002092845664063252,0.13890157674271472,0.3154568949853166,0.48213232383173865,0.48063921323157394,0.41857266900430984,0.40208336047447774,0.44134340066285344,0.5116136411275017,0.55917833891676,0.5267165473957818,0.39504306189712113,0.22263697158884221,0.08128339537242817,-0.01028625851028679,-0.07013881053695015,-0.11272999795580878,-0.13920804451809662,-0.15621229454100838,-0.17991343467469367,-0.20713665643697549,-0.22785654372790892,-0.24927036515175577,-0.2836553867587005,-0.32691612243525436,-0.3084437253138889,-0.11439599287739707,0.16101409752775697,0.39063196967732133,0.5429726509171383,0.6262656944259769,0.6588724300079388,0.6626838229389896,0.6404217224287815,0.5563499875866295,0.3460419167288084,0.1539818553550275,0.0992518507733262,0.13291248123977303,0.1896997365924293,0.20816886892955275,0.17069617790515615,0.1062934283785369,0.053473793314347894,0.032821269032730006,0.050314066253247997,0.10364644695541264,0.17415337141502713,0.23419241725392353,0.2579556629935656,0.23842358248309406,0.1946663330647721,0.1476545590539646,0.10442662527121974,0.062091801502349823,0.020252783066287788,-0.03155216516845107,-0.08343625812962507,-0.10500564297834702,-0.12025352252773854,-0.14220255681332608,-0.16852609964924326,-0.19638792517048834,-0.2216357926491508,-0.24058013554745206,-0.25110541183175544,-0.2365493527536064,-0.1707838545756742,-0.03925389819315479,0.08209793586970583,0.10705357707040233,0.03415321099360222,-0.10314724509239132,-0.2552262702504637,-0.3846302276637072,-0.48214138933229483,-0.546528120406942,-0.524620796076246,-0.2361182590988031,0.055323673747203456,0.16161792524672564,0.17448938614228093,0.11911056368123107,-0.06356930107897141,-0.4120625571280534,-0.58601636837693,-0.5643918507290986,-0.47242495923050837,-0.34114688781421754,-0.19401380438540355,-0.06176654935319807,0.03602908762593929,0.10247261836583905,0.14719683922250246,0.1818980779790282,0.2144440811450243,0.25574536516386753,0.3215331153451121,0.43896290511624525,0.5872011919262919,0.4671078830857651,0.2636402726669344,0.15596384497045687,0.09934377424654103,0.06700052003782847,0.04849841727924552,0.033466984382355014,0.0027693370006078993,-0.08739038064644718,-0.26385518450586865,-0.3792784873267792,-0.39971944748489846,-0.3822505110021309,-0.336273875177435,-0.25763380577645995,-0.1402203589481596,0.02324421287807827,0.22735450880103508,0.40366278254026156,0.46521294830744614,0.4376699581451785,0.37320134595622084,0.2892148157646589,0.18313620327837554,0.04840952812637565,-0.09892186993175696,-0.21916426772182598,-0.28948668603356387,-0.31149363007922265,-0.29638498170454153,-0.26317409039125494,-0.23769775220114409,-0.24831923758221422,-0.2950668573302811,-0.2906486513067104,-0.23357510438197807,-0.18564269667901812,-0.15900758719760597,-0.1434791445459481,-0.13082519801092224,-0.11130725146023723,-0.06975770205368689,0.032707298606620014,0.2345110117034956,0.4380591549823828,0.552787592452463,0.6197095509071556,0.6513097255660113,0.6277476902799355,0.5290703012704954,0.383354294848281,0.25002396091463575,0.16655548317400035,0.14939118341131227,0.2077840040592192,0.35388033794199675,0.5384953929666535,0.6648139197358058,0.714265677173225,0.7194953143403071,0.704490355629792,0.6836705893005143,0.6632313420423849,0.639193327414255,0.614837280821209,0.5839818435720411,0.5402526594454169,0.49209504872561555,0.4683173686360487,0.4691252182126505,0.47447326815759105,0.46332511225070805,0.38076726141005507,0.17745808511005282,0.009931731582892279,-0.06326194295215959,-0.09048007644369334,-0.09877525668782342,-0.10489961210650911,-0.11894306174109581,-0.1310038346882831,-0.14722601121969175,-0.18194119007078322,-0.23162929701838242,-0.273997949596032,-0.29246793095619916,-0.2902077809520602,-0.2752906759806729,-0.2512625879893909,-0.21864510725290756,-0.17357523083425289,-0.11373589869884607,-0.05151421987897777,-0.013644500825318012,-0.02744638830717303,-0.10266484892972727,-0.2334167960711315,-0.398628802678853,-0.5546104561984714,-0.6556158715757353,-0.6464606954631416,-0.4902427617734852,-0.2881070813574943,-0.17897004116488127,-0.19563981201613437,-0.24851433098626102,-0.2678349656264807,-0.23639767759773547,-0.15528851201523333,-0.027674216333019575,0.1359881830242197,0.2885534349029231,0.3507330709289519,0.25889496447797083,0.019603409005124462,-0.24597943923963866,-0.42134402685235983,-0.49677326731670524,-0.5150186537798168,-0.5105990817825393,-0.502335141469875,-0.5006956902653695,-0.4962721995020706,-0.4755082451880448,-0.43288281804929346,-0.364466273122038,-0.2699992745334021,-0.1487831583045947,0.0036270483462100852,0.15659718724749752,0.2728543733677985,0.3663285523245782,0.45227157289004905,0.4916496884139452,0.4439248237931995,0.3127162611180788,0.13861957910393982,-0.0051416534730305075,-0.08717319135531287,-0.12488083054445309,-0.1256955727883802,-0.04886785725240014,0.17432116889775512,0.5414827724541366,0.7990675082556943,0.8671476230341797,0.8631415852669794,0.8172184206908505,0.6769772511452291,0.3709581468846,0.08086323299126442,-0.028561163998251544,-0.040113081462482304,-0.012631384431266407,0.04140609498189361,0.1231763513766809,0.22612991933612386,0.31904305744956263,0.3565805904024591,0.32383799630629706,0.22287871511047203,0.028081982304702498,-0.25177754684859427,-0.4003205398763478,-0.3760021784348476,-0.2733075403782995,-0.11983909830595406,0.0667148550781598,0.2548338109604908,0.4198162882855693,0.565342675947742,0.6624162899667561,0.6190333918153168,0.5037877878554343,0.45226971260197274,0.4481365925126064,0.4117962306396795,0.34393904156625743,0.3015073644926195,0.2902169103856917,0.2996855446108079,0.32453956013961377,0.3437413635169469,0.33154004841561424,0.25919587732580907,0.09569632404609758,-0.1340181195486895,-0.35123130252945395,-0.5278169037758231,-0.657686460474958,-0.7377599995685459,-0.7713392041097009,-0.7758203801513514,-0.7606609732633139,-0.7137456438123186,-0.5364506301496598,-0.012605223282050167,0.4676996120574134,0.6618356180818725,0.7508503914917222,0.7990955390741149,0.8057046536864262,0.7889929698896097,0.7800624284348991,0.7668647884805104,0.6286224234067631,0.3670976510288473,0.16956304031597627,0.05543212849341664,-0.011062072740440677,-0.05949836742261621,-0.12541953565932398,-0.31518998384522223,-0.19551662155467706,-0.043596297186171924,0.01969278258125925,0.06122566496498782,0.0889879671473238,0.09510387891268415,0.04975792152254141,-0.13372459730927563,-0.38126995108069506,-0.3776631114256668,-0.22889908948896498,0.008583231986130726,0.2244700805472723,0.32231002603421194,0.23212475977863709,-0.13851286359033937,-0.4862974521474328,-0.5901075740999592,-0.5683117111873851,-0.4737459259701757,-0.33884871920235926,-0.21382124890673856,-0.1291885568498225,-0.08304162036151928,-0.06400121550419935,-0.060327208018431194,-0.06486674717768784,-0.07383114148343847,-0.0853018003174641,-0.09270808203648921,-0.08188210960875425,-0.04488009279163591,0.017425236248990224,0.0973742204552244,0.16905226633509113,0.1924988204872243,0.1389192293034089,0.022546910287289487,-0.11158004363379,-0.22166411885540555,-0.299579531161511,-0.3500646184167843,-0.38083547919888067,-0.39553695292810975,-0.37768763213018147,-0.2784791721494827,-0.06626083470865997,0.16296174258964347,0.3128571178823643,0.3825360747170753,0.4185618880884233,0.4404793767271074,0.43475865384428836,0.4127075995012931,0.3985810001286966,0.39331272002246587,0.38719593449748374,0.3561668664310545,0.26616895189041856,0.13539623206959475,0.0391848338235202,0.009908561761656538,0.020851900697717144,0.017353149587229874,-0.04652578759584979,-0.1784820270297101,-0.2991706513742158,-0.3556279634800927,-0.3828481609793483,-0.41273899965800964,-0.4711261333940377,-0.5888611137208791,-0.6482785081947435,-0.3415352644506773,-0.12352779791593985,-0.009006746682559047,0.06357736802509528,0.11459823759060084,0.14822470327405105,0.16118721953329296,0.16570202644826507,0.18093625543542188,0.21544837304377934,0.27079974182688477,0.34287755560166133,0.41689035142256803,0.4684165396621404,0.4936800820443621,0.5002450103080823,0.49381979810057874,0.4685756157498271,0.41122825911478944,0.31129276023485775,0.18038523934552936,0.06040078972608346,-0.010527146707021226,-0.028374221791240332,-0.018523128253725374,0.003489638078002241,0.029908993077880464,0.0569064325801437,0.09404705119459728,0.14527418354195676,0.19511109933367202,0.22752080050389065,0.23843570573452277,0.23126362942484305,0.21210471156401658,0.19501869632816052,0.19975981799340023,0.2431915472820362,0.3126110469957275,0.3755103041420229,0.41151274856746944,0.42771902775772824,0.44413875175272033,0.47685392891352657,0.5109239757767327,0.5085232871609021,0.4791002508556199,0.44805427469744097,0.42288743514033833,0.41355697394682045,0.43233181109554303,0.48138955139046485,0.5332591121856904,0.5524491728620796,0.5318573168546545,0.4880509985601935,0.4316253486883259,0.3578211242243692,0.25397442954324606,0.08718436111691193,-0.1406731496419238,-0.35678792749565647,-0.491288845827245,-0.5483711117854164,-0.5575705340169647,-0.5420677308319406,-0.5119609723891233,-0.4805112384785241,-0.454755027983885,-0.43218688945234907,-0.4033419361236529,-0.36535813994842964,-0.31779220817398807,-0.26598894098364306,-0.21439769775029097,-0.176538891319418,-0.15869516819422355,-0.15459433868206396,-0.16395168641957036,-0.178293944774364,-0.18295594812870258,-0.16819358719559965,-0.12767672631933838,-0.07214189288118247,-0.014161266874470847,0.046808042553997314,0.10523774251044885,0.15409371141532802,0.18007914173102121,0.17612167029821973,0.14474818732913622,0.08576895509676105,0.007856631928786557,-0.06844255117423782,-0.12073867143561373,-0.11380313736222324,0.0005592111796757127,0.24560408983061338,0.4899970210466692,0.6215350925585902,0.6656668845181642,0.540942569571105,0.07108821798404422,-0.2922889431712574,-0.46816259357413287,-0.5676486656097292,-0.6216039957255781,-0.6248093484453756,-0.5570045779962747,-0.45448207885794717,-0.39293162355055117,-0.3812592267449048,-0.3826933944059749,-0.36562506174310433,-0.30838616817314585,-0.21589352153306796,-0.10258101754553856,0.0007845795687200417,0.07071552886340347,0.09577889810708715,0.09090302360086294,0.06518694631085147,0.014244490839470228,-0.06032050911021514,-0.15349890117835618,-0.2645016460260374,-0.37224229362132616,-0.45362841983569097,-0.4965499400952424,-0.48705089181161454,-0.4042909697642673,-0.2147245433063121,0.07394911653022342,0.35801931550875243,0.5373278703149218,0.6151362809213297,0.6282863097468165,0.5966497327853891,0.49409600577483886,0.18204770072924223,-0.2741245300930139,-0.47871726617103594,-0.5266810645788009,-0.47962308839209383,-0.27086889054893026,0.08501601033188347,0.282433619186603,0.33093384607024723,0.31067604784908914,0.24371337040956187,0.13326249763509,-0.0006985207955249122,-0.11629859265186493,-0.19138665352157197,-0.2120727971775241,-0.17284901341756612,-0.09538519829240495,-0.010513263705616406,0.04854766025802971,0.04894453145548588,-0.014797579145668642,-0.12198203628722006,-0.2211688077265138,-0.2842658367514187,-0.29981791457128154,-0.2522873377636455,-0.16645556274181708,-0.08520948532806003,-0.01978190995095654,0.044751215011826856,0.13189152786038288,0.3051231463958816,0.6108444668514763,0.404063987286071,0.26047391012569565,0.1927762870791637,0.15549995871000474,0.1367158814155568,0.14040033003643215,0.17663686713628207,0.2587585528433295,0.3722017185752532,0.4570423107176255,0.49055362860952684,0.4893221429661731,0.4663208984814256,0.417263039417986,0.3015043046810648,0.07225087671503636,-0.1421430083939247,-0.268537472040928,-0.3348627359284981,-0.37017266588915865,-0.3977290834178235,-0.4208438770566275,-0.42972290284610654,-0.4265634488523675,-0.42626639850297904,-0.4308513141434706,-0.42202626559290357,-0.3926166259363771,-0.3281885617151169,-0.21021591746388724,-0.03297781038351302,0.1609859037989452,0.3169298823074262,0.40599910699344693,0.415529601568054,0.33958765312794315,0.19354117761585166,0.050166258270303375,-0.0095314193173578,0.010344979515195423,0.028291621669941865,-0.06608770007945496,-0.3756057795815234,-0.7181877207520415,-0.8500678716058391,-0.8768296435818322,-0.8735138455271221,-0.8521772714895423,-0.8088555149207318,-0.737229560920264,-0.6405780654046204,-0.5270010028776287,-0.3623944260514145,-0.12105213107743353,0.09597951565619948,0.21162468271388415,0.27586585452102863,0.3242679760435722,0.3633169534494329,0.3833332139037336,0.38868940282758513,0.37471347872041894,0.3346166927604093,0.2292248459403218,0.06440404985947168,-0.02777390700440355,-0.048213379963528105,-0.05308413239557244,-0.0642924276857529,-0.08592984469478078,-0.11516061669089055,-0.13812696991083684,-0.13437939926340947,-0.07829709851015917,0.07165097233255528,0.3587718778858772,0.6504026254359191,0.7709867701303706,0.7743809172409117,0.7030861515484194,0.5429109767532143,0.34348598130469127,0.2055097472478017,0.1421332008508715,0.12326211291151658,0.12078476275587281,0.11963771745450916,0.11965232693595824,0.1369616118785574,0.17600585184700518,0.22994259648514553,0.2534680086246057,0.2118985948983971,0.11641984818374711,0.005659702201377459,-0.07747191380942944,-0.09413218352975256,-0.029417126426495754,0.06943639080152936,0.1426774250452124,0.17810048042083942,0.19751163554438636,0.20993308845776054,0.22108429463581222,0.23329388827807881,0.24003653645958606,0.23438068998680928,0.21313109243842587,0.17961377935245204,0.13836523368012066,0.09292229877340966,0.0434775416051978,-0.016245801101627846,-0.09261399549428341,-0.193071351964393,-0.33518741652035555,-0.5433875665217978,-0.7818193272757612,-0.8602604193094157,-0.7360781707420113,-0.578512924191141,-0.46120322804899383,-0.3888859425911872,-0.35152908228847984,-0.33856005877987844,-0.34611272806610244,-0.36778730588414055,-0.39562104848697,-0.4181013500511015,-0.4163354661562626,-0.34260506319790807,-0.18800357522234568,-0.08950377795878839,-0.06860321029347069,-0.06980258497803984,-0.05985222052158769,-0.030700063144378745,0.011167116287720564,0.06084225062894524,0.1028616197068676,0.12035382561582604,0.108498969789046,0.07144447709912631,0.021916163282953715,-0.036281033594379224,-0.09692957347373544,-0.15113636176934891,-0.1847810028355537,-0.1786611669502369,-0.13371927834609643,-0.06293276677355121,0.0006678837142634489,0.04297798431620875,0.059842054009272894,0.06144037735149853,0.05229494834811966,0.05050071251286489,0.08243997820433631,0.16046364180082073,0.23788683149690296,0.2620434900889888,0.2188712164619543,0.12483227045281811,0.03333532624151978,0.020816883600025284,0.11423573123537023,0.2573738387938227,0.41660073713497736,0.5737093893237084,0.6742113045077271,0.6665951083798856,0.6299785140063358,0.6003364093044856,0.5811733102119393,0.573813107485294,0.5665407010625033,0.5298199554126501,0.44817102365258593,0.3336633563240619,0.2254891687615101,0.14574021342006752,0.08985514927984554,0.040902370707806945,-0.006787950234020949,-0.04679159466519505,-0.05985716731455457,-0.0375573942414622,0.003014822148639899,0.045950243596732575,0.08358999699977711,0.11453266747410071,0.1352453377392636,0.1425173595463349,0.15122270246177485,0.19103754482979463,0.08316812547238532,0.04995209343156198,0.04272218076400686,0.047478233429249124,0.08771462416776797,0.17918907749753935,0.24203202569825916,0.28539668712762106,0.3244658249283587,0.3473392286327692,0.3357185215348998,0.27736991713622794,0.19062382018198265,0.12821283198781158,0.13580574989133345,0.24634293935156798,0.5007492567960151,0.7836792858982434,0.7181239588659333,0.5300730459428744,0.38558495629963174,0.28219563740878084,0.18225834868910912,0.07604115072429812,-0.012131901202083593,-0.058866319308176845,-0.07644642395163562,-0.07916201876888793,-0.08153308465143369,-0.11077053319479405,-0.19849458006577628,-0.3436575570767673,-0.4705177975099776,-0.5257240154726592,-0.5381911767548206,-0.5296880586703505,-0.5018414165962872,-0.45622545061336495,-0.39831168936062555,-0.3394765127127114,-0.2918689282220988,-0.26111333234173845,-0.24796206578050614,-0.2535846261243388,-0.27321959199015866,-0.2938702691957437,-0.30225462825189403,-0.29314113760120775,-0.27190212032259037,-0.24470903591673132,-0.21574302066904907,-0.17964440544490898,-0.13712678685019047,-0.09564879574221667,-0.06903577207028229,-0.055772629127988596,-0.03565146691160944,0.0073186609233272144,0.06202273589541028,0.09217276307769295,0.07942772785290235,0.022722405794197854,-0.06971365543011697,-0.1680715316301826,-0.22909556991287844,-0.22028942671917784,-0.12800084677618978,0.013231434427638857,0.14454203218364609,0.24168420509865435,0.3033853367171091,0.32390842632751315,0.29363924440454225,0.19120056819088369,-0.002937007349079684,-0.2638102023602836,-0.47067180449721724,-0.48977535262145216,-0.3072885613251747,-0.06991475867304738,0.06618188483114157,0.11756827723155883,0.1250442141308976,0.11220461697515213,0.09836049218665739,0.10048047267759445,0.13849853458511424,0.1640757602532337,0.09727002059191688,0.06719118667283794,0.05875389560778781,0.05698429003424117,0.05014980124154031,0.027191178665176265,-0.02466239882961646,-0.08397500258992943,-0.08756826104534136,-0.022177388247413804,0.08183392807581225,0.19478250965407848,0.28947301626560334,0.3537149909572981,0.3839274670817861,0.3806210105503902,0.3512286934857075,0.29693868371317694,0.214841502398456,0.11209593518947948,0.0105221109178148,-0.06700609016623611,-0.11121256521699703,-0.12503859432378675,-0.12928762270996988,-0.15237350868847852,-0.19615138195776724,-0.25171491375249594,-0.28050417501165126,-0.23588081134923422,-0.12282579266170182,0.01258247077568391,0.1420812831237343,0.23423724888014652,0.2723808257338825,0.2501126269397726,0.16920762097651768,0.06273033555421167,-0.037024745406160846,-0.13028918020798325,-0.225490952043749,-0.32446661663420473,-0.4137415857301825,-0.45497557019528284,-0.39265663355242864,-0.27097391264862625,-0.16314354463247893,-0.08803240646838277,-0.029393871032871586,0.0290096839666008,0.08922102333620707,0.14683919016426594,0.19546654509770084,0.22895199331355034,0.2447206608807857,0.24629292654011709,0.23675072399718963,0.22281494832961588,0.21884283830266105,0.23579173466504572,0.26300416528676074,0.28256094858150654,0.28755539321870344,0.2878638120612014,0.2967743302592413,0.3109036718912093,0.2965200016173766,0.20414242108970979,-0.014898559501082294,-0.32529506939967673,-0.5293003525916815,-0.5972737312433453,-0.5956640389199371,-0.5312376946723855,-0.37200802144106565,-0.14957381208711942,0.014344342352250966,0.09390960284218787,0.1209251900341717,0.11595666908252485,0.08787600927235031,0.04479623064111445,-0.003056660308017896,-0.04464258729766321,-0.07279393453902806,-0.08223833585020263,-0.06977004907513012,-0.0466400594527923,-0.024166491305163948,-0.016311792023282933,-0.03847735622989536,-0.0969409922197358,-0.18525574364177516,-0.2722935760976834,-0.33121998091069543,-0.34432909613510926,-0.2984529121401963,-0.19481291006637153,-0.07487778074794108,-0.003551811950289863,-0.009658019141091904,-0.06606164517948114,-0.13909020395335206,-0.21164360825008666,-0.27167780788921764,-0.3107426299857189,-0.3242341131438114,-0.3038546707834724,-0.2277110196221418,-0.09584420774486724,0.0422395942107796,0.14683384480197778,0.21091036781884842,0.24706346657383066,0.2685221319407639,0.27981253081852736,0.27612618857731247,0.24253080739508528,0.1646510372331473,0.026751676312267905,-0.14066234295251873,-0.2619616984319213,-0.3029874307431068,-0.25906397906578604,-0.13440253476903702,0.015392022831144268,0.12019376552783749,0.1641968854051743,0.16594593911913572,0.14290332835170996,0.10824781703745498,0.07768112716565548,0.0649638430107497,0.08037066052440159,0.1294945171604665,0.20580667288398452,0.2889916361995081,0.3572606126181378,0.39581346794613875,0.40137267550911315,0.3756356697103196,0.32570235366754235,0.25768221672723896,0.2067440088626537,0.20103031538833094,0.2291934232791905,0.2553730397719399,0.2738879019348121,0.29500344205015205,0.3181579668920085,0.34945513515754634,0.3987661214687651,0.46433805113458976,0.523922777139374,0.5525723821864805,0.5218376284110391,0.42786493343571624,0.3083091032039402,0.2111829898376538,0.14760237278824037,0.10088141549052852,0.05647029736010605,-0.006090936161777766,-0.09654164432770009,-0.1993389693186899,-0.2718428162401274,-0.2910280550432904,-0.28085585823375586,-0.2797223342051451,-0.33099757554119164,-0.4592851699747175,-0.559063195735816,-0.5504967068204837,-0.5271944926616223,-0.517816227071263,-0.5178167293077698,-0.4648674433045216,-0.31943236510009787,-0.19770610471137806,-0.10980403699670538,-0.014601258975628117,0.11575705097054165,0.2605058677109681,0.3624324913674495,0.36255160131619674,0.23827973348881537,0.05062175996715876,-0.1105724216929631,-0.2184326529260745,-0.2819029358704502,-0.3105090715216555,-0.3179369596586472,-0.31170849752418517,-0.29469029522681145,-0.2623811008471395,-0.21073266863012335,-0.13498882041109206,-0.020698410077813676,0.12239630798059756,0.24264696859427937,0.2968254977086574,0.27947268501471983,0.20825437659565518,0.11021904816869675,0.04034354012767423,0.026747434621459894,0.02319127758527367,0.0015470585937996234,-0.055716337056752975,-0.1589907660055175,-0.2715483242048233,-0.3429609816168199,-0.3465527810773564,-0.2863297993987931,-0.16942726518638768,-0.03342865283870257,0.07726139876488355,0.1391040132452417,0.15190906247496846,0.12977113688692843,0.09237400350234046,0.06749491948113488,0.07569250008663042,0.11580674741497385,0.17014170548566065,0.22764335310778974,0.275297702354526,0.3040812184694628,0.30505966098407566,0.2829898103054177,0.24946673069268588,0.2063511534941551,0.14289210241900135,0.05568883165512402,-0.042817858208881295,-0.12876009549690234,-0.1834948181163142,-0.2009972222509204,-0.1938753518486619,-0.18114132354882043,-0.17468803995618548,-0.15715055923353577,-0.09486072559625307,-0.035241419443970294,0.0038898505301815855,0.027256380979860616,0.04028198940630876,0.047788594331955536,0.0561480243904889,0.06302061800396501,0.06621619149485884,0.06550965152808011,0.06045369882363875,0.04832021355579568,0.022617312368616402,-0.020312854428039814,-0.08767388024214778,-0.18010330969416471,-0.3008079154216926,-0.41834225554890764,-0.48706106302888647,-0.509075285174654,-0.49204796245322496,-0.4377604923573234,-0.35194372717407696,-0.24880155872247292,-0.14785602951719956,-0.05454683502799914,0.03077779167989228,0.10158790781114538,0.13950488967996477,0.13845676953720007,0.10333289435053195,0.05015763590570494,-0.00032841848855866827,-0.026857960305663307,-0.021089460700406053,0.013254806947195689,0.05708053304427646,0.09967312140263462,0.1337476422133307,0.15363670899744425,0.1572834493255863,0.15364561223961162,0.1453140298324715,0.13122571250075263,0.09972116577425928,0.04102205828041704,-0.05706798748311346,-0.194648604310299,-0.32944927878175534,-0.36896277911601305,-0.26471564285937765,-0.14653297820660455,-0.07486660118862476,-0.035263359723107325,-0.011386445531438142,0.0026730852002964747,0.011271081182941135,0.01659417621444262,0.01926091564665592,0.021235463931578533,0.030399180491976503,0.05486822585108659,0.10893548465887913,0.2148050242002512,0.3401059263290505,0.3418790794377171,0.2867229953217231,0.259926406849977,0.2577908055985816,0.246888216517465,0.2154777993057612,0.1894352883857258,0.18451253178416294,0.20704715059602627,0.24617729401123556,0.2815429640708153,0.29856702502351035,0.3098374512441774,0.34672518710168443,0.42043266060947654,0.5069555012177276,0.5742891190327284,0.6099841263439114,0.623108363317813,0.6273350258546622,0.6191672608419132,0.5811530946824802,0.49469113412989363,0.31274710477524564,0.012814141714929138,-0.19479214087730606,-0.266398115726504,-0.27988135544505127,-0.2719985627576781,-0.25011884188647826,-0.20518442715114085,-0.13362935971985349,-0.06192440615740506,-0.03077525833723299,-0.05028110508923175,-0.10229472716184265,-0.15543149574209897,-0.18852510758741195,-0.19267091887632745,-0.14980019145754236,-0.023640658652114285,0.17571177124113826,0.32902731804779617,0.34213950371356383,0.21884915645923705,-0.0006097020949897438,-0.24700586199868502,-0.45484006208361066,-0.5945394484871791,-0.6606867115319686,-0.6887554688322194,-0.7163972632124995,-0.7511928391444963,-0.7657239740261076,-0.6948216022029444,-0.5084147345077995,-0.2860883935508374,-0.0897308175652662,0.11464539680816727,0.22893296126144108,0.1910923528474123,0.13280457578633126,0.05555208736234867,-0.06116196725043855,-0.16371314842643325,-0.20240317813416037,-0.21048205460021155,-0.21196144133965256,-0.21602803134064213,-0.2218377957031643,-0.22836893142798315,-0.2331560644443729,-0.23242476225817332,-0.21966771306450608,-0.1732533790275884,-0.051766600718399454,0.1434594317110383,0.29616343258811817,0.38026901976355854,0.43231107150126735,0.460683532067783,0.4565552527591691,0.3999688069578996,0.26648171247735086,0.041463677622573546,-0.2298227149160211,-0.4311042960261606,-0.5313894917747809,-0.5367346856952642,-0.4258908559071537,-0.17586020942587322,0.11887152447015327,0.32924484270198856,0.44516831548802877,0.5052022570952429,0.5406668461235304,0.5686285536872655,0.6008379355237496,0.626270305887542,0.5894747277765697,0.34863157473002365,-0.017273292956915955,-0.2772509962265117,-0.4203042935443689,-0.4942353665972843,-0.531433919177128,-0.5510553934509214,-0.5518527540972131,-0.5345495537059007,-0.5059257211031069,-0.48156755682567093,-0.4684540822374763,-0.44739014849282777,-0.3887366754451942,-0.263319004960501,-0.055475768901847945,0.21622624690348488,0.4604161561401229,0.6050921232937047,0.6494673706166116,0.6286384427062839,0.5572354271149393,0.46067095924466095,0.38004095288201345,0.34831107647146353,0.3455789213433836,0.3425683419238587,0.33565372289682416,0.3353492921055984,0.3348352107045284,0.2904326890485155,0.16513673491355488,0.028745494157101495,-0.07732382927553864,-0.15563873805109196,-0.19856900704199534,-0.19845558198914745,-0.16177708078802452,-0.08701375694501463,0.004327487554542925,0.0644045132479345,0.0878268990999082,0.09580311874745265,0.09265010865895083,0.08069047048043286,0.07503080204208142,0.04939670521867238,0.04869592742470512,0.07344533514482979,0.11667813278719391,0.1837988106169092,0.275508426014982,0.3794482080008684,0.47146081598928885,0.5353265730375308,0.5768486252394351,0.6003988415026649,0.5985999510289535,0.5623470414285193,0.48770015054631993,0.3754932521752852,0.2100612570617174,-0.05377502647065432,-0.40098217605217024,-0.6493526447374082,-0.7673364693153907,-0.821059560994041,-0.834942932516297,-0.8106023416944292,-0.7498773708715214,-0.6580150062933436,-0.5432642994302422,-0.41582398625632155,-0.276783954536962,-0.11666205679976369,0.07638101667287958,0.2976540356624327,0.5038810260124559,0.6389833813822559,0.6683004105633497,0.5419514005650743,0.18760796596333182,-0.18018218240125267,-0.3829768161051132,-0.48270201189207307,-0.5350097491000296,-0.5531687978868541,-0.5363774331960142,-0.48794435167455824,-0.42512763178964785,-0.37877463093964275,-0.3524968746186986,-0.32775938679361855,-0.26498153241567984,-0.14815814169500172,-0.014282171702286902,0.09994543117743997,0.18448243576400078,0.24113969562482548,0.28293288498629354,0.3208385186145799,0.3476234202009752,0.3456272941135272,0.30517300753564314,0.23873339399939994,0.17003915127224922,0.1194940267930592,0.08709921023826313,0.07407045752750273,0.08289387552892143,0.11115268768912649,0.15128689441390727,0.19449759218177223,0.2341475011100755,0.27696678867885494,0.3406312689224733,0.42175178376227807,0.4675662153465389,0.46751802334942294,0.43728851000606744,0.38781445938585823,0.31175284465079994,0.20038286864403237,0.0755975968537088,-0.03446587511632217,-0.12558042929784144,-0.21203874887959642,-0.31185147816949044,-0.39439237611565353,-0.36526637100766907,-0.2659016689705582,-0.16973483925533195,-0.07879524801501994,0.008985195826472276,0.0765408122690995,0.11937542283027652,0.14566945935370698,0.150455593521677,0.1298782887476788,0.09591255486809463,0.06314155027944487,0.03996633234770236,0.02021742124635152,0.0026714853422468102,-0.010547354219809743,-0.020804272671785536,-0.028090268739493416,-0.02804381228268584,-0.012796717950181303,0.036773533695383845,0.12277652250987375,0.20218610599625755,0.2561876954618518,0.302769797803952,0.3441428609204404,0.3774912136324743,0.39004381505040625,0.37623371451343945,0.3335575828181783,0.2711215266247964,0.2008940806019568,0.13850018930307684,0.101071878881496,0.09898141489274827,0.12330591595990628,0.1439398548804253,0.1255216255850273,0.04047324526516651,-0.12286873041967013,-0.3436677316449819,-0.5430923807344513,-0.644326673095419,-0.6437370634465688,-0.5399875880698476,-0.3616438121509322,-0.21790357391234733,-0.1597799374642585,-0.16127082139594112,-0.18834243627551162,-0.22213156287857103,-0.25136224001512836,-0.26680025990143635,-0.2585280154376126,-0.22519959142391593,-0.1657038691700776,-0.07774130342786066,0.041370632879127664,0.1699421513219972
