-0.49426831777664915,-0.5411066692519511,-0.4328919855839423,-0.31139547644441384,-0.2576551805443343,-0.2711224417482792,-0.3607530038989556,-0.4778593103411661,-0.5367669741566466,-0.5548423022569753,-0.5780194949737557,-0.6168372816621487,-0.6422365313018865,-0.6014781134496473,-0.5326603769968475,-0.49330726525435187,-0.4851669885661352,-0.49580940178702165,-0.5179505861128116,-0.5519624962987856,-0.5945480861393432,-0.6396040780960458,-0.6716059827161284,-0.677215513652296,-0.6429153061175644,-0.5660848577131589,-0.47124867709562335,-0.3904511641020199,-0.3374629961443182,-0.310254603582083,-0.3040407594065409,-0.31956558534997787,-0.36026376683489625,-0.42168163469523623,-0.47744665170234857,-0.48082713549676376,-0.3677600431687165,-0.08441937771911456,0.31218605081661055,0.6714493956855965,0.8923714392390206,0.9032407641715178,0.7610100082047928,0.5940679152929942,0.4519129078528039,0.3475080820171359,0.2803761862451181,0.24622910016511085,0.23803296834769747,0.2449334946510109,0.28023162526058826,0.4006734999849215,0.5958321509925667,0.6577275702400085,0.6272610901394378,0.5851513761338083,0.5436594623295883,0.5025726424175794,0.46136281806943896,0.41400536171951874,0.34807886600364923,0.2644786374045557,0.20865497360502572,0.23835339288053917,0.34024683324360133,0.4488256850750737,0.511432405376776,0.5362393954750804,0.5545614440990366,0.5834064213152345,0.6219489110158748,0.6514239943054283,0.6544052768755776,0.6335677045591388,0.6071355255300351,0.5834361086868942,0.5650778223118837,0.5418220544045812,0.46676600842596966,0.2766137817548735,0.03352086851396144,-0.1466471941820936,-0.2488370947283307,-0.2981154042056189,-0.3171976317470268,-0.31133259820074477,-0.26385267247459904,-0.18437745603669636,-0.10151942639988484,-0.021139756181601174,0.05355358442110863,0.14050107319993144,0.17931929903328292,0.13942700154113247,0.06981304528146365,0.006918131190467439,-0.0436793534741478,-0.09251393816606049,-0.14363862642830819,-0.19445265646192783,-0.22845459096220466,-0.22082593000643536,-0.14083017101308587,-0.027717063159238817,0.016350060374679797,-0.02147130392758075,-0.11126889167947132,-0.20947348726484513,-0.2607279229244741,-0.1800152221778497,0.10388266023369891,0.3249288851267603,0.3994107872343499,0.40551781298923445,0.3710479929190761,0.29927154452841553,0.19673668296139257,0.0825588110469476,-0.0200812614355609,-0.110459300563213,-0.21416172354599627,-0.33845851909208263,-0.3859378337194156,-0.32993942621787875,-0.23268909669278537,-0.08939610267659598,0.11096462737942003,0.31440448877037513,0.40152192204612325,0.35893929430940735,0.23141126136127269,0.07910681323265134,-0.041575840059909795,-0.11639312881274523,-0.15025627742733333,-0.14509345645677374,-0.08727717597886152,0.05550366611763298,0.3067843081464862,0.5852074805957759,0.7566796721114596,0.8312970010623355,0.8495416977252491,0.8001294743719877,0.6741507820833551,0.5437195630670117,0.4680696859710656,0.42866404247776335,0.36459417420804563,0.2556887740434705,0.1530096483602501,0.07381216763672671,0.008645968462440229,-0.05147927006487347,-0.1129589176520906,-0.18367253025088684,-0.27180302333142853,-0.37244091322211514,-0.4501428185781501,-0.49816981849306485,-0.5436840353020963,-0.5845755619137668,-0.6007844231921038,-0.5899708844142937,-0.5606546908248343,-0.49459102498116697,-0.3211346458365916,0.08921735743572043,0.6376097130479703,0.8986276823133534,0.9550078289788712,0.952983073644784,0.9290623973181196,0.8819293686009381,0.7915821277406293,0.6228335937840308,0.3498216002035113,0.03318237587539088,-0.21851268678239136,-0.38083903144437786,-0.47867209189216986,-0.5416993457646665,-0.5845408542428162,-0.6150086829223126,-0.6401393114042977,-0.6602814478616225,-0.6669310100919629,-0.6458061524097409,-0.6062306078062596,-0.5781779423128436,-0.5799151782922799,-0.6132208649640273,-0.6546209686695355,-0.6770562720323319,-0.6701345554508383,-0.6267104135981613,-0.5506748665611025,-0.477477127490035,-0.4403298577614107,-0.4417252006559014,-0.4413171142481369,-0.4037445390936659,-0.34047211823542767,-0.28037565388599395,-0.23731022066219054,-0.2026937552027556,-0.14421367571625407,-0.0692761804317062,-0.0025464135221055007,0.033166515884531345,0.01760415928180926,-0.06069361096298271,-0.16457062701899425,-0.21375146232941603,-0.18159080941028155,-0.10018074983313156,-0.015635300491374942,0.043460154539301424,0.07679660457676285,0.10340286696946671,0.14068913966977134,0.19344119591072367,0.2583423528072651,0.33342980142875295,0.42734585298359756,0.5491980827432308,0.6912266419641664,0.8093892870419153,0.8595085155416237,0.8601074594508455,0.843880111505304,0.828408643102765,0.8202515266951123,0.8166092685540174,0.8121594244410157,0.8037794436687531,0.7894890113443451,0.7709587441406275,0.7550361579291189,0.7342319000333829,0.6694092762713472,0.513236803484458,0.25937031067932415,0.0013154719802759658,-0.17370737476866926,-0.24490738471865847,-0.2517356745241259,-0.2338870022457885,-0.2164674536657664,-0.21742192926792483,-0.25336936315548214,-0.33606269741843026,-0.4369810012330138,-0.5148183851578436,-0.5654673623283529,-0.6051770854610122,-0.6257150999756974,-0.6073738947792828,-0.5415670074504618,-0.44689583616593886,-0.3681447212527928,-0.34165601182069244,-0.36431825641107213,-0.4209014638729505,-0.46752158132005733,-0.43305505382977255,-0.29621304481876565,-0.12439729851486374,0.021272849669325567,0.13129940113126182,0.20547838807805766,0.24171925905441458,0.14184632685083165,-0.053151107484121406,-0.13160806613056245,-0.14406432304721975,-0.12793522812591396,-0.09706703385819383,-0.05487344615860363,0.0010920943879952204,0.07328686061748897,0.15912784143197378,0.24940610758064322,0.3377746108666071,0.4212724344602655,0.49418529926681043,0.5665334912462354,0.6441725464554652,0.7154635928766984,0.7574983375074469,0.7696261731444809,0.7692008442223728,0.7608957959296062,0.7472983844733987,0.7440912876186843,0.7598361488252414,0.7892979846155742,0.8164658123861187,0.8348315206545229,0.8465316940210919,0.8531796965383188,0.8468727836678729,0.8140679820998377,0.7350108269814682,0.6201160022669391,0.5210286535031271,0.4789349842981609,0.4784884378905738,0.4850930653336802,0.48577334571332453,0.4926702640292201,0.5125324564683617,0.5452345127779286,0.5918890945537717,0.6297161693672249,0.638702444816303,0.5978895108732432,0.49798940660832897,0.3483771789521837,0.18515166405853753,0.030097786278561186,-0.10242669237821493,-0.21194999219635313,-0.3155464800382536,-0.4119340897088964,-0.5106127668271244,-0.6060886189980734,-0.6935229029662239,-0.7579806728085132,-0.7840758352635518,-0.7498879581206193,-0.5341027950815589,-0.01845735313852433,0.3181629523643541,0.41275519982280445,0.3823637979333164,0.2663693877081855,0.09405710652148173,-0.09176258405411664,-0.27267455553455133,-0.4235561715420295,-0.5426411292887159,-0.6290165319179759,-0.6826688396604742,-0.7115470572692675,-0.7304818969604319,-0.7515766692780872,-0.7737816659299723,-0.7905132530881679,-0.7967481569821854,-0.7978766397383346,-0.8122579344759683,-0.8509076001170024,-0.897282571465206,-0.9200190662128006,-0.9099322998211435,-0.8631241827816795,-0.7675003676324571,-0.6228506688785003,-0.46540197482745904,-0.3330330447819296,-0.23312394027578168,-0.15786855808049044,-0.0955666346185713,-0.03568789390539009,0.033114693385865306,0.11704625757362783,0.20733481237010284,0.28835652256737454,0.3539455367324523,0.4087669358673734,0.4531334223976444,0.47651697542397614,0.47142809697298044,0.4490104281831548,0.4245709933917093,0.3958828189227315,0.34989588166998625,0.2940601249575615,0.2506297740029758,0.25088993331841913,0.25183079635207606,0.23872735780952156,0.24919027832657173,0.28185036471248687,0.30667933285856963,0.2787961899253628,0.16788375731367966,-0.0021386414195230506,-0.1740900385213112,-0.29606345321773353,-0.3560418685695876,-0.35789175131480494,-0.31131092367827856,-0.22932162217779173,-0.12701708949751406,-0.0035818408073511427,0.16221418688362038,0.3921288841646792,0.6475117115309925,0.7928160095293663,0.7321459726804486,0.504827530531887,0.2041079804844618,-0.0776108417695741,-0.2865758246035141,-0.42346423604375677,-0.5119059192485524,-0.5724225517393622,-0.619616769476133,-0.6586732902775406,-0.6834671053121741,-0.6814927298330791,-0.646742883145664,-0.5895809567897301,-0.528735236719955,-0.47872323550829776,-0.44332869327839486,-0.419875000814908,-0.40037691128338027,-0.37872289918439783,-0.3512119885074365,-0.3231318780862048,-0.2980364445797969,-0.27929825831846217,-0.27604884851154116,-0.2884038721185994,-0.3120719667937876,-0.3358572386942205,-0.34801364623137093,-0.3338305511749967,-0.27661718938848845,-0.15956825898219623,0.008146840779580219,0.16726760558753306,0.26035397856522785,0.2903335338054391,0.2830720637064339,0.25380461880613187,0.20998017564908183,0.1526738834586738,0.07946408059054882,0.004201088322849708,-0.06117923552275212,-0.10803648056725601,-0.12481016584764186,-0.09927893323785948,-0.039152871106665835,0.031028231682567974,0.088035248635514,0.12711781883059586,0.16300584399418397,0.22908184051836109,0.3946663619618448,0.4359264971797315,0.30042685586413065,0.23033595052749276,0.19630468718449098,0.17846833571730175,0.17334340886336416,0.1802847592595399,0.20288581663305777,0.2488804723477223,0.32811639300916423,0.44885381156481136,0.5921552402155802,0.6997174226332601,0.7343193784668459,0.708322688402444,0.6520208523757474,0.5864022274204934,0.5228066326948536,0.47680453911207166,0.443512167956338,0.41984806939463054,0.3941270661358058,0.3636740290932039,0.332287733414181,0.3037378333878743,0.27402326830326734,0.24671663236180175,0.23806363008675804,0.2541583113990064,0.2670751360624939,0.24868333403473647,0.19713221835193376,0.1400394946812287,0.10044566981278456,0.08154437255022334,0.06189234958577892,0.03207832774605824,-0.010345346927373154,-0.05846235512811908,-0.1064070655563366,-0.1513316457521123,-0.18016640728008565,-0.182379028565794,-0.15820545898699842,-0.1174338788835052,-0.0757936714526195,-0.05078001556547109,-0.05283128547215919,-0.05539120412573804,-0.018229028992856448,0.059739847113687836,0.14744536682258108,0.22041607977303368,0.2572568225328324,0.2539643178399893,0.22323603354688007,0.18764451153747327,0.17034337665280697,0.1728688759395833,0.17942496215186415,0.18245413494029764,0.176710862506752,0.17429712595262756,0.18529652340061634,0.21475996564743752,0.26009234055301167,0.3075399988515506,0.3540993177355658,0.39418514828201556,0.4201007465621876,0.4354270304182889,0.45199352291764516,0.4763920203438522,0.5195756614774479,0.5755492802391063,0.63769848910426,0.7030839450443718,0.7605182871712776,0.7975928749518493,0.8066498004133492,0.7953141989713273,0.7738685634184485,0.7556817443560849,0.7444273558774801,0.7298830249581155,0.7036472193190026,0.6639402363189241,0.6171407221183538,0.5786235456961675,0.5477615293882363,0.4941930442768925,0.4120933059248087,0.35556023986496393,0.3601341947536765,0.43722916865126743,0.623674697461338,0.5495738025848921,0.22894968640280589,0.08529910398551943,0.012305277776896544,-0.03044860224781715,-0.05398243893271536,-0.06558148366788383,-0.07355764745037315,-0.08453789555234133,-0.10418774274200421,-0.13644558908403695,-0.1801338876509845,-0.23970772980106533,-0.3319648708569441,-0.48259109923476073,-0.7132802795477498,-0.7321619293051169,-0.47562706561612333,-0.31824310998703376,-0.2402831661106673,-0.20509183434349498,-0.19318927030066746,-0.1950920428245961,-0.2020026146431806,-0.19500275541230802,-0.15468215181809467,-0.08330114415346297,-0.002616017152412247,0.06859593295749361,0.12343180191990315,0.16443187766587117,0.20667889115297836,0.27938765771731255,0.43203336875334214,0.6925596784145841,0.7806112502737186,0.5060098211102162,0.20545720096357423,-0.0775456609466358,-0.3471593593390131,-0.5284124928079219,-0.5620608187472568,-0.5059694629077748,-0.43627567654906935,-0.3871515138342886,-0.3674296525354123,-0.3854719200696496,-0.43574190846272604,-0.4864989082307148,-0.5111450647692316,-0.5089960974621207,-0.48189235987519796,-0.40521462211269255,-0.2593010609726853,-0.05776730133617024,0.15809113383065526,0.3614554507354447,0.5205689518102449,0.6120764042237927,0.6446758290524922,0.6393708681305814,0.6120948416037304,0.5658382032646747,0.49690423680181417,0.405306080541002,0.3390575399260817,0.3244017676696033,0.34444858762084407,0.3839290269099713,0.43149118915966783,0.48129215785814017,0.529365491056809,0.5649904218468601,0.5387975517560134,0.3736655451609926,0.14748971424182203,-0.018363058997143477,-0.10144521477681795,-0.10881217887144816,-0.04981797914632923,0.05436424908278237,0.15452321063461932,0.21247894926448438,0.2321446793749401,0.24654489248289202,0.2981129504237741,0.443176052897005,0.6718182485399022,0.8189293981863727,0.8298952970268049,0.7832267765355679,0.7037762082559004,0.5829884334937055,0.4158718056419476,0.22804958658694538,0.054445745764637545,-0.10217174567569214,-0.2569587477774186,-0.4186246114490004,-0.5789010779742844,-0.7228599303718776,-0.8329872220131909,-0.882363766099925,-0.861555157153364,-0.8085125238295495,-0.7678732989940344,-0.7581278077972895,-0.7853740272940034,-0.8438543055941485,-0.9074681476548763,-0.9487370969605732,-0.9652330081739857,-0.9662639600798666,-0.9591332062392581,-0.9512320024776998,-0.9450672520676178,-0.9411934995866765,-0.9392985157244713,-0.9366343840708807,-0.9224118736101958,-0.8916318794984267,-0.8507864197220026,-0.8039402676951549,-0.7427820533018163,-0.6351094139062072,-0.38815897134458877,0.11421747138680845,0.5929540793106607,0.8150459454103931,0.9085706927085985,0.9512498050898389,0.9702027622332154,0.9775456076026973,0.9798317830578839,0.9794702567157233,0.9769821904228664,0.9718147429484332,0.9596106432685877,0.9238633401096331,0.8286821030048895,0.6792711776094221,0.5951781388262734,0.6250837026793773,0.7048725657285362,0.7617178751827556,0.7586714136252228,0.6703458745377066,0.5114550943081072,0.3795438473660626,0.3108018891559745,0.31877912987723855,0.3238710416631793,0.29242948492047216,0.23722058647348923,0.19440667218434796,0.14290790776024345,0.1046493213872656,0.10134972649296424,0.14812888927230347,0.23748810669670786,0.33725928843106573,0.41460293974377216,0.4422473697936722,0.3734168402338965,0.2573390478964582,0.17067639677949967,0.121823564819215,0.10087094497484468,0.10392197732711236,0.11381860026042499,0.11285438382992775,0.09412512556806822,0.06137260210710074,0.014484525067179758,-0.037398521537308355,-0.08354826969554784,-0.11983847316715178,-0.13809706519700485,-0.13588580713927478,-0.11913810596785361,-0.09783147230434758,-0.08400318065540537,-0.08502183202102535,-0.10397688711025474,-0.1436809283764576,-0.22803402679486456,-0.581314310134564,-0.337701644860459,-0.11582900045078862,-0.06095355469659625,-0.03722740908300023,-0.023752228906044993,-0.014913998111405534,-0.009030641675265122,-0.006268128023012473,-0.008513237095333321,-0.01909637328068933,-0.0471836011848371,-0.10590632288260944,-0.16514438027415174,-0.07511750220436714,0.0893882630425163,0.228948224093978,0.3065663110217526,0.3213408857516148,0.29416330906693094,0.24330897822317574,0.19033226225564492,0.14828957791598926,0.12234876524277243,0.11315829496426459,0.11806162211186513,0.1338848130454491,0.15951993152503827,0.19390260175267737,0.2392775296696303,0.29819161837596164,0.3606719330743919,0.41372313488376833,0.4446221734072999,0.44833371658248944,0.4220580468623718,0.3723882419259871,0.3139283617955448,0.25969300505542453,0.21601535020670154,0.18007361342549527,0.14830395899775756,0.11544424543372837,0.07856857552203893,0.03896459548970741,0.010978212996576205,0.012310651381144235,0.03679108255683279,0.05781432071858617,0.055545159463404284,0.027969347619855003,-0.015118516538980987,-0.05419241911357995,-0.0703490024917373,-0.05903551988924059,-0.027088416978585255,0.02615421272897373,0.1150837486140832,0.2502907439999804,0.3507973900098261,0.3368855871539563,0.29074779539112233,0.25151382666099825,0.22003943347017926,0.19087770925562034,0.15880377681444224,0.12580268293163122,0.09964667265380873,0.08340328820142025,0.0753497597683418,0.07170674660823036,0.06685809052355382,0.05280203708828197,0.023911459915309182,-0.020818701821919135,-0.07413226361391143,-0.12738974012030133,-0.18620086045246376,-0.2699132757132088,-0.41515506204760716,-0.6826148427987838,-0.8702713226213297,-0.6822049885682201,-0.5385483963159243,-0.4743635588835768,-0.4502979775664478,-0.44257806259034393,-0.4327624776277584,-0.41058492070760433,-0.3702029178188595,-0.3089901709781667,-0.224723086464152,-0.12157477885141726,-0.0068014729469279694,0.10232831788953634,0.18728336849925184,0.23273762216532295,0.23647867717093207,0.20860836209874853,0.15823597711197512,0.09182442341126548,0.008514486309174391,-0.0826190501211576,-0.11577157790804173,-0.09769728958417026,-0.07504742423224595,-0.056994859177833965,-0.040949959028230905,-0.028892136406281074,-0.023858810576074897,-0.03737029056464011,-0.07576637262235064,-0.11218533182404918,-0.10028651906940507,-0.041407746154175445,0.03192524634602175,0.09581846483099082,0.13307791925683868,0.1321407039378442,0.1119160295886381,0.1144951382446084,0.16694161718043046,0.25806474801118207,0.3610954671898106,0.46303680855291657,0.5264904329590779,0.49222492598127904,0.3914653796422991,0.2850867543089586,0.1827848189140484,0.07249266410038424,-0.07221068445556184,-0.2699492838084168,-0.449493637960114,-0.5277440652731603,-0.5574801429680454,-0.5761132667688215,-0.5714416139994903,-0.5495796686519996,-0.5253321087010983,-0.5005273461361079,-0.4714693192252286,-0.42700079194277774,-0.3410951398191671,-0.19237284065940102,-0.011405974869847775,0.2180697883391151,0.4576441368510617,0.5150002306363523,0.46296599839416364,0.4042007240675376,0.3600605718181303,0.35247580992117944,0.4121103474516309,0.5036437046763881,0.5778988773044519,0.6111720926860709,0.5953425868771933,0.4832162501762449,0.2057169347504069,-0.13911274996660603,-0.3410239504916393,-0.394774212462995,-0.28240459607492063,0.031310160083325565,0.2971044703550793,0.41728953029405,0.45406863582816404,0.4364955539761233,0.37826411134217075,0.30442360521138634,0.23575029226856617,0.1790638129901849,0.13593334508570284,0.10437025964343963,0.0839702636529944,0.07280491898683271,0.06734128845186524,0.059769335740531566,0.05073022972261202,0.04289721534287411,0.03690696065802028,0.02833753753804259,0.03340913415703288,0.0903769513253896,0.1949042186257548,0.2956815916592557,0.3737711347719983,0.43421087529210195,0.5044243268398352,0.575782564539059,0.5719009127440688,0.5157477378474227,0.4886408406106478,0.49773156515515465,0.4998826850356799,0.4384850734340511,0.25523662049366724,-0.07449638076325309,-0.3865519103571966,-0.5048345020015188,-0.4571071380593171,-0.20621305103584928,0.16307883939300916,0.35793879023233793,0.3927588250745027,0.349789088885857,0.27574098096197197,0.20654909725566767,0.18501417471328677,0.2591747538561574,0.4384729450838003,0.6370988134032926,0.754252876692883,0.7828171674781366,0.7249344073427614,0.4979300181368185,-0.049973497428831115,-0.5595392009257526,-0.7596305663437622,-0.8229729683335291,-0.8383471490420161,-0.835380620926625,-0.8232634509950657,-0.8118546588332863,-0.8125525869985922,-0.8243342247960397,-0.821720660236469,-0.7623060182191904,-0.5847645586961124,-0.24555491131358947,0.21117163102385855,0.613432857927731,0.7022741504654412,0.5441362738963701,0.333891020083315,0.10999570020731772,-0.14135447436535492,-0.42258398272812864,-0.6204752028733794,-0.6296151071095171,-0.5600785356760716,-0.5029032336944873,-0.47197719936282273,-0.47214491880322124,-0.5054204931128339,-0.5737679798709637,-0.651721107641903,-0.70854301140466,-0.7307255660114064,-0.7307317372540538,-0.7192767744396255,-0.710383326182393,-0.7170864938657978,-0.7400913889465426,-0.7636229727399757,-0.7458735084923934,-0.6082065086145468,-0.40791444414121203,-0.2595515388759589,-0.15392911808345772,-0.04410834247804709,0.1153207304159539,0.33042344837060855,0.5068435451420951,0.583201560958174,0.5945007692119977,0.5814915339144627,0.5718845194478063,0.5821238814181997,0.6147625271974448,0.6616128476588092,0.7067457435265053,0.7349477385778193,0.7361461267669979,0.6999842106214856,0.6297012330775399,0.5517370053282341,0.4950651450152946,0.4635050856314797,0.44247914651992454,0.4251598078941412,0.4071901401637688,0.3889259898004987,0.3705857569576151,0.3404588235349856,0.24631526871876963,0.05826965437184089,-0.14725630020306735,-0.34306754854139637,-0.5123301243574426,-0.6235458222256787,-0.6436433126400177,-0.5152138422205514,-0.33532722949012356,-0.19767802600169032,-0.10855785782735046,-0.06021308656929075,-0.05744372092119147,-0.11991061044430233,-0.30576834945757814,-0.6751067302607944,-0.7378850152550256,-0.5255927662442444,-0.3115031777618012,-0.12623797436265674,0.029124830238338832,0.1519131856832777,0.24414060057954604,0.29392019770653627,0.27779198102155567,0.1309708023129462,-0.09219596566571724,-0.16808473449621045,-0.1654066187051208,-0.14514548730334437,-0.12316567158632853,-0.10500131278206691,-0.09302841797347079,-0.09086153781266651,-0.1187853896807692,-0.2366946466102771,-0.4228422006210171,-0.4725174685825237,-0.4854759590315547,-0.5018411854948607,-0.511047984700899,-0.49394143685596964,-0.45635581725232804,-0.39535718878056497,-0.2889543577791547,-0.15440222047595603,-0.05658264517349653,-0.014707907202800246,0.001803105258558301,0.022482510735426894,0.0724819504699232,0.19340474774315528,0.403966779295722,0.5930216489429403,0.6595826511450703,0.6539171085121709,0.629197718256424,0.5981265963132113,0.558832793673078,0.5155196798857976,0.4684127726891575,0.4167353855035704,0.36841386098837675,0.33536096383269365,0.3251348482731999,0.3333473917060144,0.3603093531669324,0.40890461225599395,0.45454237559059235,0.4000999372099982,0.27849393949491685,0.21063568080425343,0.19329556347692803,0.20336364813284621,0.22492021808991472,0.24880888636692974,0.2699781861318853,0.2869868819704753,0.2946875853191796,0.2827201945939697,0.23247935242877094,0.1383473923407443,0.045518984420643886,0.01576803050934598,0.05035101967410143,0.09031500072249043,0.05855885707006551,0.003936874443899359,-0.032178489880904285,-0.051473272344449754,-0.0601673392507502,-0.059495738633679074,-0.04873894007253228,-0.035778646272562074,-0.039685222458744,-0.0774750573095158,-0.1342948873831215,-0.17270039512073043,-0.1763429263371326,-0.16433590159612413,-0.1605897659935359,-0.17037065695944528,-0.18419365916000813,-0.19228591290233346,-0.1959807590972315,-0.19697436048867267,-0.19334640944467213,-0.18925553778422413,-0.19533409451150027,-0.21932720656903784,-0.27348135306912524,-0.3865339253370331,-0.6369676766257947,-0.685382161186642,-0.30154558942465626,-0.1570574292546219,-0.1042144394737989,-0.086212686254363,-0.08446336927184128,-0.09054687538899692,-0.09967893595813872,-0.10424643037570852,-0.07380955106490746,0.1337023139354292,0.3298588327868726,0.3928724555461495,0.45043769171235476,0.4876131689980312,0.48123229060406436,0.43504930204518116,0.36546883135064484,0.28114359382750687,0.18165166137715638,0.06648553640767015,-0.05363466010192822,-0.1569576673430365,-0.21050071988342922,-0.16827605612784985,-0.025425526251054795,0.12485702011727391,0.1877107928850771,0.17549865727278893,0.1255715348291353,0.059364633878320874,-0.018921912239087225,-0.11968293444374418,-0.27766680330557136,-0.5063773314527334,-0.40233424012984115,-0.24304435039060093,-0.17308616422972553,-0.1482835716664402,-0.13679728685229287,-0.11723038359612033,-0.07794624453996958,-0.023221162134534058,0.03590414203272016,0.09224012573290055,0.1427178488185388,0.18777010237335434,0.22428266542349948,0.24193010587012015,0.2175456392061375,0.1597830359902627,0.10707793801572481,0.07783802833022999,0.07076011874329709,0.07854644979929133,0.09560601928840445,0.11619690293430862,0.13704486180536962,0.15647477683360686,0.17656453995489593,0.20762747970322007,0.25477661299052695,0.18516276223414344,0.14707354921049726,0.17752583985520556,0.23937765339251543,0.3099277768282379,0.3725208950775857,0.4166550481337275,0.4296683810265512,0.39341675435247336,0.2989630163113077,0.1712922076880682,0.05467714611931134,-0.03255158049655681,-0.0981961581238116,-0.15898761786117535,-0.23532586558447713,-0.33949851274228826,-0.4388649218117325,-0.4970836915945134,-0.5334445383662053,-0.5601505486479396,-0.5757125114265292,-0.573579000685815,-0.5529185605670511,-0.5164936654189489,-0.4768506855281802,-0.4553817314870285,-0.4621670579745827,-0.48991418022153577,-0.515800356889712,-0.521125857310879,-0.502411390397292,-0.46284012173756367,-0.41053895482994424,-0.3513516940080654,-0.2859077042469468,-0.20291816358027334,-0.09126580577345643,0.04595650863269141,0.18241240139334775,0.2942459078332048,0.37746999671550674,0.4375609699601978,0.4846585337726627,0.5195311305292487,0.5273052622019516,0.4910182070388049,0.39062611439216055,0.18894463065789235,-0.11843485407821362,-0.40348975271115145,-0.5518323610313366,-0.5948847161809143,-0.5777047420545529,-0.5027403266532787,-0.3504545339273923,-0.14193251078254285,0.04838005163690542,0.19035094608626116,0.3093350579656212,0.4179063806641819,0.511275417948829,0.5815493582750221,0.6252647981934875,0.6445376297696918,0.6443617462028098,0.625459277120593,0.575455433853908,0.4787234356798246,0.3408494545539583,0.20380231958152634,0.10439932754375121,0.03770871522160773,-0.01182226255572884,-0.03504394696945685,-0.01199613909467928,0.04778835091083594,0.08382039220445554,0.0480603008263122,-0.06241779596349984,-0.19379719625300035,-0.2885105199550921,-0.31599159461409176,-0.28135571083277167,-0.2047710387801086,-0.10572563865780688,-0.0051612010507334485,0.061881295581482684,0.054074549591075584,-0.044430147949448294,-0.19345993786366658,-0.3340959153474915,-0.4296314789452726,-0.47836921026020973,-0.48270804505091175,-0.4288274652422716,-0.30025014303163433,-0.19766459782849768,-0.21406636053022232,-0.3415010702083301,-0.4945182820593307,-0.5776592036417494,-0.5708870530914937,-0.42265657047863386,-0.02724244573213851,0.3908140571866391,0.5621711073401102,0.5921499911363055,0.5440660370711402,0.40866011941053554,0.1584282167778464,-0.16659084534834234,-0.4164046098293307,-0.53255150833436,-0.5588861254887715,-0.5280863517554306,-0.4502645863022518,-0.309431269524351,-0.18826813830817143,-0.12886338443366543,-0.07164501240975207,0.011361801559871274,0.1418819444433091,0.36328054086244965,0.6728523222573276,0.8589312082999822,0.9012005956132461,0.898174614909593,0.8743193785479686,0.8484654428675066,0.830470473167039,0.8176993929138656,0.8038632238231351,0.7852839078977525,0.7614416519854442,0.7361222670067118,0.7118772531634295,0.6906309716194997,0.6745061060216683,0.6633927185683156,0.6573884181493247,0.6513929664956646,0.617765363957859,0.5020895608605435,0.33103729873965165,0.18959201845048865,0.0814496923329015,-0.03958701372788318,-0.2317275251945512,-0.28644817912212417,-0.27490058614100144,-0.2869441700466791,-0.3216281159846889,-0.3709652643022835,-0.423804882294132,-0.46294763263642746,-0.472921839990587,-0.4556247581191028,-0.4289543857066383,-0.4111256681668758,-0.4060255424038418,-0.40928858468796003,-0.41495696351998096,-0.41709321657804854,-0.41458926451091455,-0.40886790868963474,-0.4040787313904049,-0.4048939000159359,-0.41059358412642644,-0.3989775292634438,-0.30524795759136897,-0.08719855719971785,0.024450509702757462,0.03361285415033103,0.025517962634987724,0.033836576880857124,0.0615764846867095,0.09153715928744621,0.11224495451651458,0.12107080111264157,0.12043596296072762,0.11392030569897829,0.09575502300374773,0.05887725105324546,-0.0006692572343855536,-0.07279820442398742,-0.1385002507374822,-0.1789811570883719,-0.17980055770925096,-0.146130107645629,-0.10041466724203217,-0.056081231350828424,0.0027767529222689795,0.09789937576128639,0.21489325403630738,0.3242701777828539,0.4113204508725542,0.455282341817649,0.3683414498223685,0.15745028155379626,0.028502951699330585,-0.001424627129424137,0.032626268246756226,0.10240432719557856,0.17431836115218416,0.21944435971903056,0.2352375432315538,0.21995783614372977,0.1836960654143343,0.16635289107158927,0.19136382188860726,0.23798148102123007,0.29582255342198094,0.36435726550753705,0.4331809319046709,0.4763762311951476,0.4745998205869941,0.4376577835852032,0.390707199501603,0.35482536283866584,0.3402085869987549,0.352717609706148,0.388626083157209,0.43906401449916516,0.5023660895089008,0.5839688860255213,0.6795177263039985,0.7633097225726011,0.8148717826088286,0.8332499444438053,0.8119078133914417,0.7007422686375668,0.41319002074784483,0.006948787699263212,-0.3217961840744736,-0.5312526894518268,-0.6612278075528218,-0.7391976660137032,-0.7805644712239345,-0.7944160161727604,-0.7942520289611511,-0.790535332632017,-0.7818768030543768,-0.7647713911832793,-0.7384113072717763,-0.7066797902999147,-0.6723689888254043,-0.6322222473776602,-0.5686220374077505,-0.4504794780833198,-0.22383434051489104,0.10759344336378567,0.3506688361053832,0.42267004520556706,0.3653934498626887,0.19868687531283485,-0.041202626554246356,-0.2788576067136461,-0.4511077248694343,-0.5582147262597725,-0.6271646692182697,-0.6780025445225819,-0.7164335172446609,-0.7376175794182742,-0.7376897068888177,-0.7115839093310586,-0.653531153419217,-0.5653317905625176,-0.4918218504273959,-0.4674984102374568,-0.4739295979186558,-0.48341038683126153,-0.49508492475468324,-0.5277518407964925,-0.6173614536565899,-0.792493148300879,-0.8648378453769091,-0.6238737005471109,-0.38713112390362425,-0.17466873803080138,0.12436523845031067,0.5830575560015212,0.9039622196619613,0.9717357577587328,0.9816740635570946,0.9872448562274909,0.9847043339165626,0.9599229406257043,0.9025699705602092,0.8133977134777806,0.704560903834561,0.5869896587226235,0.45637934418499326,0.3076862008478185,0.16654915088462346,0.07002930429233123,0.030521090353147193,0.034349583781404014,0.058707405201021266,0.09088261414697539,0.12287457559658074,0.15162012634204533,0.17131169187414524,0.1726015734695891,0.14209684511509418,0.05400163433363361,-0.03384119582806328,-0.05011278377634644,-0.041337116919632495,-0.026702578110883102,-0.01066320747008557,0.0051197927399222,0.017396427104695165,0.020086186284984826,0.00177337223629804,-0.06194152695846566,-0.21754447310398495,-0.2945328936156986,-0.13450602708371595,0.00406824428512543,0.08567320381835614,0.12912234353494836,0.15654269009158975,0.1749063996842936,0.1928176337657634,0.2107968863077671,0.21841075680145666,0.19895254336533133,0.144265899631878,0.061803555271573524,-0.015738544342112266,-0.06269747809212177,-0.07415776445763406,-0.056193646170345675,-0.023245140926182375,-0.017133390268418477,-0.039662871906000624,-0.0779580737151441,-0.12125488533135265,-0.16108805736454138,-0.1873517074434714,-0.19520897834991638,-0.18330165511006366,-0.14598226525451394,-0.09945538935513618,-0.07770038867488621,-0.07904759094637144,-0.09370674205083288,-0.12013579868141497,-0.16312612550327477,-0.23573846182106126,-0.34309819004403824,-0.40904813054971517,-0.3838603399378626,-0.3553051786166445,-0.3517596737098844,-0.36678187909567433,-0.3941435815117554,-0.434260400665395,-0.4897548426954955,-0.5550984582709116,-0.6095203951787936,-0.612688626422362,-0.47938701391512795,-0.1587431929367067,0.15520677745494507,0.3419110737143294,0.4384941606411265,0.47110291479189575,0.4470048127445455,0.36787400833459,0.24278649109545292,0.10834053100604393,0.024294254223546013,-0.0005056102234670391,0.016291305850381986,0.05744311399494783,0.11233621206820367,0.17699752558327278,0.26465149487666045,0.41530194350970606,0.6697997834377821,0.7290478344466986,0.58728243809503,0.5008101266073858,0.45246814888474474,0.4221640915368295,0.40221649321614034,0.38658734513414345,0.3698757347536739,0.3494956223269286,0.33497770679840505,0.3426260912312622,0.38874999721666237,0.48549460196825034,0.6164108089733956,0.6710105613571642,0.5181617048102286,0.2956162258134499,0.11814105289950154,-0.01370768409028938,-0.129918224443389,-0.2452621409497981,-0.3578026975264976,-0.456087606188175,-0.5188731969078343,-0.5359863889326891,-0.5059893984245752,-0.44298078050386913,-0.37107409379731743,-0.3106029703707466,-0.2621642758896963,-0.21504544336098674,-0.1448131396224063,-0.03883208315640759,0.08748731066604294,0.19889956504036727,0.27189821824196114,0.2820722311262049,0.21121794386501377,0.05568786728194326,-0.14608076844492007,-0.3338904834500907,-0.4593747963426716,-0.5386994184588527,-0.5804890912731978,-0.5575170061093848,-0.41967302849590826,-0.1836368207938731,0.0651804803872374,0.26747830931435906,0.3976997931399332,0.460526189328145,0.47966188651466074,0.47331646096763863,0.45122254467135964,0.4115637625713846,0.35649161028168463,0.2921536576331212,0.2146979069415317,0.13471307540250768,0.0657757785504414,0.033020393866651135,0.02046413547720517,0.017499103319817785,0.02256690014673825,0.03209071177399194,0.05144859010754137,0.10801088799860012,0.24819256449010196,0.4614988705823938,0.6058798179212452,0.6740155275684957,0.709948736089687,0.7188872185107978,0.6850370321174519,0.587669877844346,0.43880485615805037,0.2928770810677691,0.19054834448265429,0.13466889619220168,0.11803917239665047,0.13299137331845134,0.16784264959874376,0.20833505303566696,0.2405524868808177,0.26226516375575853,0.282943576128134,0.33731557121195954,0.4803229427612707,0.6914329110634115,0.7282331602385549,0.6592917521735335,0.6146091942685546,0.5997405737487422,0.6018427624045164,0.6060318721896165,0.5936470869932631,0.5420806575783408,0.3991429115941177,0.06712091357351888,-0.4223196161296229,-0.72042383623968,-0.8350932028737484,-0.891837414846364,-0.917427067564004,-0.9089451268423989,-0.8848354159107995,-0.8656994437887094,-0.8189170728474339,-0.6946186231783005,-0.5369063790643945,-0.39419173788378536,-0.28082239909101075,-0.2179494899247368,-0.24646386934721456,-0.4039121997596133,-0.6571446995208959,-0.842412089935344,-0.9078514799668986,-0.9156263232480525,-0.9106765315961609,-0.9137866341369698,-0.92793534368621,-0.9446260818040534,-0.9577509541198085,-0.9679241764914187,-0.9755819845436436,-0.9790836138527734,-0.9767088456705723,-0.9725073644045186,-0.9698911732640051,-0.9692157620867443,-0.970276801296646,-0.9745103441178554,-0.9795073430390177,-0.977594501993805,-0.9643945693700925,-0.9436767462685308,-0.9192862421716039,-0.8772729596967777,-0.6823156502750846,0.17272173551993755,0.6301382515781311,0.767378782262712,0.8433549817831082,0.8909488554923902,0.9169943153318338,0.9305251194482054,0.938338734219664,0.9435469564785075,0.9468589594956736,0.9405413844826511,0.8781510569883794,0.6478237951461399,0.3922923381038656,0.36485080908242673,0.5226731252673926,0.6804046350857901,0.7447788308719623,0.7298185378587787,0.6710382088114804,0.6014582303168272,0.5371039352561103,0.48088657945204577,0.43513623167372006,0.39692788479327806,0.35275956967195654,0.26914132263051405,0.17502233689183702,0.1347544396296616,0.12183972860723744,0.10808873243214091,0.09280102220409087,0.08446081502273954,0.0928035036669974,0.1320032643058262,0.23475530866516953,0.46216811382456424,0.4876140296399996,0.3641593612284684,0.32179415999589833,0.3252104852502261,0.3474196753372883,0.35527720482169306,0.30182477322093704,0.11004445474111695,-0.25452312771089747,-0.47804692253028364,-0.5364805238747553,-0.5465215725342542,-0.5402946965482862,-0.5183700871637165,-0.47096894075392987,-0.40101942470483903,-0.3353009582633383,-0.30238051665423865,-0.30604216009844726,-0.3346360636158749,-0.3751274682464308,-0.40541582547326593,-0.4080747908743706,-0.38919024203627056,-0.3699697157779842,-0.3684438998997288,-0.37615276132988096,-0.3713458642674785,-0.3302222426194637,-0.24398675549036591,-0.10542875581177438,0.09496932789332259,0.348696513975349,0.526982574832279,0.5542323543849053,0.5013013860692953,0.42403028891544914,0.32295610820087317,0.1714217963237521,-0.05140525339489644,-0.2160675744172755,-0.2718712589099564,-0.30016515980240965,-0.3296684944445416,-0.35431769697178506,-0.3524221071490447,-0.3238258840299192,-0.2981414311137164,-0.3203052341100489,-0.40918706322895687,-0.548856194768737,-0.6841505247109239,-0.7869456922934842,-0.8464416986320725,-0.8568243784988127,-0.815124739308863,-0.6825443227911748,-0.4089136239108882,-0.0872750276903957,0.14530784519331477,0.27670761230702173,0.34149455284137287,0.37585254964178305,0.40912957710759995,0.4550076118579962,0.5034324794340751,0.508479857613813,0.44517459324238506,0.37094555478851843,0.33135903720837456,0.32816073076510843,0.35002711965269895,0.3844325581578668,0.4257699065386675,0.477043063236169,0.5372806899743532,0.5399053683001431,0.3373472624958696,0.14088695693722467,0.049259121029516593,0.008447543515097989,-0.011765038780585152,-0.02395721702063389,-0.032800224585691644,-0.039519724348679605,-0.04251520675869996,-0.036925331196172875,-0.020521021401144042,-0.018769356075166756,-0.05403431268960121,-0.1229699858990684,-0.21199862339075845,-0.29485165399085134,-0.34893937825990484,-0.378514423866351,-0.39665080869992136,-0.40991067547515386,-0.42102573659103376,-0.4335992412529838,-0.44889249339274756,-0.4700751555555992,-0.5067466713573201,-0.5416557571883214,-0.37922792317732257,-0.17204977783744935,-0.08026633565717838,-0.040943916720191945,-0.022188097770264478,-0.01364911799527477,-0.010935144250322144,-0.01433469359937639,-0.021684507994102032,-0.02992400678935148,-0.0339072251053994,-0.023950094898399304,0.004070964538900225,0.04312273000335033,0.08397156853750577,0.12807074510806613,0.1876227633872333,0.28333808079730893,0.25047690561909214,0.08686899888487444,0.016891755479891548,-0.0038299214794014712,0.00788590019777084,0.04565987689448024,0.0967832263088107,0.13833106596791878,0.15411460725572046,0.14650882832486883,0.12684091240540113,0.11031896615314807,0.11077589063368054,0.13466987792488003,0.1794557374741555,0.23820780080092177,0.29261083904533114,0.32396528971139255,0.3193628251176113,0.2851742925855162,0.23434361146660126,0.18266882237980245,0.14235689965927478,0.11896112767518717,0.11378980709179827,0.1187197359014282,0.12015671553703947,0.10652697253309851,0.07777874261775913,0.051468695132414484,0.047787528471634796,0.07277894622031413,0.12107634062727049,0.19311058779456672,0.2831705948888892,0.3721337611995891,0.44001647485808343,0.47994979348529954,0.4945745546563657,0.4876505014852536,0.46031705659905586,0.3989938093610651,0.30042329272036117,0.20722311848768357,0.11626401557182905,-0.003970516876109286,-0.16059055010648757,-0.28914915981786693,-0.38258757279370526,-0.45209308274246457,-0.49253886247984874,-0.49704054568984296,-0.47284606249012334,-0.4383444921681711,-0.40355649117523834,-0.39181919792770287,-0.4266895136527165,-0.5025256306059849,-0.6016548594228774,-0.7161102342586925,-0.8194738502627588,-0.8769231484813171,-0.8852485120038238,-0.863917757938014,-0.8316639286873955,-0.7974558393346358,-0.7573130911278309,-0.6707448863151785,-0.46148515745485874,-0.17196608720170817,0.032470145417427314,0.1311415361727139,0.18586360758518108,0.22321376762442896,0.24185611448257743,0.2494876268372114,0.2562499848224865,0.28188380186422124,0.33740372804985086,0.41525036772825646,0.5023470496820956,0.5807258524690806,0.6418485535886536,0.6845885842144732,0.7107391097935704,0.7238350277482352,0.7289553413349886,0.72621409193516,0.7023395151432771,0.6417087075850287,0.5487876494905174,0.44420595212272423,0.32709451842871534,0.1909661913405261,0.03416847490942012,-0.12636599438714038,-0.27071065472945277,-0.37413766471500876,-0.24981199278480098,-0.009391583513898204,0.08761721882986527,0.12475981235225453,0.14245212732723223,0.1557204898637693,0.1709001755773156,0.19062398113653573,0.21416791085984396,0.23994869397198423,0.2500823132097386,0.19048116381549182,0.06694152521538828,-0.014604182362285657,-0.04879888704653251,-0.05806813087152158,-0.04758699668868868,-0.02626194826496868,-0.0019214054022695303,0.007535007461359895,-0.004452799843709673,-0.03126935752993821,-0.06589121265347393,-0.11709544791552387,-0.18914371044848835,-0.2487419665812014,-0.27750116521474194,-0.30833371841451196,-0.3619576924841602,-0.4402570984066565,-0.5424719103371819,-0.663599623417749,-0.7725325411343665,-0.8320747099846066,-0.8374579687805058,-0.7904646801226014,-0.6716900116783802,-0.47178508663890756,-0.2687445232967763,-0.15471475639136598,-0.1436920285769177,-0.20560251267500246,-0.298766167783424,-0.384158466851085,-0.44380315673186627,-0.4704563126572239,-0.4491899579637067,-0.3565963415581436,-0.15274554941515908,0.18301432015195537,0.5690942482432275,0.8139033782224485,0.8865867882646788,0.879156128199873,0.8410646422008804,0.7882886699537304,0.7249981158079887,0.6558330649763592,0.5908388170998495,0.5562969568038468,0.540200303595001,0.3655790515226252,0.15934003864250407,0.021542736007586348,-0.1133809335149492,-0.29120922693309154,-0.4881131688484275,-0.6134905043029091,-0.6440994013753335,-0.6234261506723704,-0.570852571322101,-0.45485567324391607,-0.1831886365179611,0.18060027471850293,0.37914363223687253,0.41427646236097376,0.35619954013340704,0.20865659467388054,-0.04228162784172091,-0.321875848813845,-0.496855959846037,-0.5696593666279586,-0.5880120614681953,-0.5794875470925842,-0.5447716788004894,-0.45925714540287793,-0.28813727388011023,-0.053370647819277243,0.15891016640855746,0.3010131136719058,0.3811509495291799,0.41773034896220745,0.4304127624585983,0.43762955936910536,0.46259261543550245,0.525927729311172,0.6206387105644153,0.6461703239465912,0.5356378462728817,0.4025663298093455,0.2983731871402467,0.2214298138702664,0.1647267788189354,0.11581373469493879,0.05007552833960119,-0.07158412200872152,-0.2846977977444815,-0.5564907788695528,-0.7642004364008731,-0.8553725512381442,-0.8857046564417781,-0.9039924860577051,-0.9270210542923311,-0.9511399261547135,-0.9697959401592282,-0.9794789194534625,-0.9846244461010264,-0.9840452936678433,-0.9707853635872893,-0.9470763286558089,-0.9230563985726049,-0.8963989067545085,-0.8481226607383313,-0.7637988543292089,-0.6499215183432695,-0.4864322214147543,-0.21901370966768793,0.15066514922312113,0.4548630302780639,0.6317517816607454,0.7397962813463788,0.8166822742038345,0.8675993446617495,0.8960703639405516,0.9129812816672819,0.9272213901984012,0.9369344875836049,0.9369502053852851,0.9021000989060876,0.7498492509574348,0.37433775217598997,-0.012503104701475842,-0.18499691431323476,-0.16325432334001788,0.09110919138369863,0.5902281356066404,0.8148690067995608,0.836861334255862,0.8279117951898004,0.8063810931579959,0.7529763788494712,0.6537342506280751,0.5196512024120911,0.36322456515631585,0.17100109774074043,-0.07022479982769933,-0.26635124750792655,-0.3015351722087163,-0.23371996664312084,-0.11123259932497814,0.06985458065966355,0.3194757877187283,0.5772744728468214,0.7465746366144691,0.8266292576178973,0.8520522832148457,0.838956212863083,0.7826310269270568,0.6685381027249926,0.5294460769136459,0.4462261363579871,0.4524604342260472,0.5099909645621611,0.5485741688014616,0.5573029730542393,0.5660804724749422,0.5630831542982512,0.5089437240508619,0.41053839949498666,0.30344310932271407,0.21181142068994144,0.1373009934718705,-0.01801623660396905,-0.15344167651022475,-0.1617260773720251,-0.17912958744706006,-0.206861843985956,-0.2490080867302748,-0.30901193745937355,-0.3873112441158707,-0.47078852066861365,-0.5219729681730694,-0.47840020726618204,-0.3613867302250959,-0.30463571321207333,-0.3255298193073925,-0.38433414733586635,-0.43537635457071755,-0.4517135681794149,-0.44293079727100854,-0.4264147819783597,-0.41848747212091814,-0.4214182823089606,-0.432628104302165,-0.44636873019313456,-0.4542141315821468,-0.4510863584807081,-0.4269057174535605,-0.35041099315932334,-0.19933271811541423,-0.06623308266669024,0.00511756633349987,0.040468710896661056,0.06078489586112149,0.07406133207548826,0.08237107748811962,0.08598337209332912,0.08539601325261101,0.07981709970378285,0.07619743452686749,0.08912194953906677,0.07539246751889424,0.08490795052870026,0.10105821294765503,0.11602421287217936,0.12878444039835688,0.13994386381240656,0.1521018191986884,0.16503298043618314,0.17481533848779948,0.17799084018567368,0.17531716279030363,0.16842451559775468,0.16319571607351743,0.1679737452340855,0.19384336098555793,0.2822239030547844,0.3882830743260372,0.059708624340143165,-0.007543568219508407,-0.018978015493357942,-0.004255688796016373,0.02651034215901781,0.05906626516574384,0.07322776827306632,0.048254996963101815,-0.030857115229236055,-0.16378945432449749,-0.33783547078221876,-0.5010997265442949,-0.5885569872514358,-0.5946415660344101,-0.5476477165452477,-0.45865734422876653,-0.33996858096610844,-0.227947174643213,-0.12272757484612144,-0.023852602413002955,0.0780127604409949,0.18814903987471202,0.3066667836824912,0.42272621582754855,0.5257021325512531,0.6032770136005725,0.6547529093504534,0.6875974072383526,0.7121684594733725,0.7355686495026958,0.7533363797448623,0.7551302628335784,0.7287161341946126,0.6666854887327378,0.5650598517276884,0.41459947435863137,0.219369781730377,-0.000929120699015745,-0.21365640464243107,-0.3689481227784701,-0.47506590886692396,-0.5803114985558022,-0.6815324767284952,-0.7479027707544195,-0.7943908798744255,-0.8397038510392566,-0.8846691654773509,-0.9206571673609103,-0.9375747810711236,-0.9337161297172418,-0.9128224087691994,-0.8829242277016188,-0.8495702352168883,-0.8113802384789067,-0.7506660728498877,-0.6608842476293756,-0.5514181285444462,-0.45748471253433304,-0.4183595532896155,-0.4456827480869739,-0.5279205252741199,-0.6349804106738257,-0.7213941543156528,-0.7572341139146662,-0.7346979822714292,-0.6657655537246427,-0.5804225305283469,-0.49713810027295974,-0.411120237387098,-0.2832770541513624,-0.05183893773919392,0.2576827297912045,0.5103446652782313,0.6689704414583252,0.7616002358577538,0.8133673903165415,0.837472518592995,0.8377386979695634,0.8083332389491167,0.7360911420435423,0.6079889076300303,0.43673716156947984,0.2697799947185041,0.14856125059436714,0.07699196455551666,0.04361330354337094,0.040733469189397145,0.07385746752376095,0.19055542576366258,0.47752949304916414,0.18559216874801146,0.09680274831486445,0.06228649020480005,0.04634094247941185,0.03933792453564178,0.03716704885689977,0.03657107790248161,0.03359814896043325,0.021420239977653223,-0.018107321264528492,-0.1111041227646073,-0.2050074367496128,-0.25618566005322513,-0.2832814231629779,-0.29218365160230597,-0.2889468932264015,-0.28324822736470384,-0.2817145010342212,-0.28686834709004844,-0.2992413428701327,-0.3194954135093631,-0.34403081294959514,-0.3675152799393732,-0.3870216223055839,-0.4104584238183108,-0.4553225404787654,-0.5468914796287436,-0.6346963246154101,-0.5153359878819961,-0.4019486294213622,-0.34904989242846524,-0.3138388464141979,-0.2775341496117545,-0.23037651109278645,-0.16237574178448902,-0.05359994642150817,0.12430644586840314,0.327153252252013,0.36088049480054346,0.25517836564688023,0.11719826774756574,-0.00906087272992374,-0.08911202627021662,-0.07486792500629534,0.04717011654889561,0.19906318238396117,0.3279578341706114,0.42502637829544815,0.49203716179643603,0.5282320569173488,0.5345128774525311,0.5146370908073528,0.47112325205178723,0.4119851045554397,0.34785429108909327,0.291500830857047,0.2568329230625008,0.24063631914144776,0.22070129640741407,0.1827360456366721,0.13955230675752073,0.1158736947000902,0.11613408438575788,0.1307097882657956,0.1506731880396804,0.17253018219801206,0.20054545947150104,0.24927867450475674,0.33981946319786566,0.47771006552958917,0.5882782499516823,0.6113308953565342,0.5768062547416195,0.5056722919630053,0.3926213342401296,0.24298761929987545,0.10148180574914245,0.026895434781178163,0.03835196143476228,0.13824649377695153,0.3200672373052802,0.4869681925526775,0.49641309728745436,0.4106488785349842,0.31778876425944025,0.24487004158592662,0.1959851517382304,0.16903336639667285,0.1576244874862481,0.1481101684180926,0.10546749339158368,0.027632326272327323,-0.030362696675683146,-0.06931677662511784,-0.1025836431723368,-0.13872673470971347,-0.17802448145962538,-0.21033825776195825,-0.22343311014533693,-0.19721367266945325,-0.11111478513847634,0.0481350851026334,0.22455253058084157,0.24426281015054802,0.04671053309545705,-0.16006553830033815,-0.2912037933736743,-0.36664346750100263,-0.41932590422501187,-0.46704697417282315,-0.5129114613926896,-0.5281017708588144,-0.4466921497856794,-0.3047786264639544,-0.21098362749444907,-0.16495910132807343,-0.1458409882384585,-0.14437843799256517,-0.16159443288632916,-0.20386374553873926,-0.30444805641278105,-0.5773696560327778,-0.3268963794055178,-0.14595250932704992,-0.08544890224718253,-0.06432442371898857,-0.058620627005801576,-0.05529661891434953,-0.04763192199943354,-0.03499794647069249,-0.017886554393642912,-0.0024212718013092932,0.0016560099679939883,-0.02730647381512091,-0.20406461846256227,-0.3722686774329973,-0.23537181040723373,-0.19141962666787268,-0.16575107487235552,-0.14283777357886634,-0.12104450456444144,-0.10426941406508643,-0.10899660152987083,-0.14827046427797655,-0.2176639971566544,-0.30431210466801945,-0.3898539345479087,-0.43278597757297915,-0.37236028477832883,-0.2715403391896576,-0.18907399183013057,-0.12363383245484288,-0.06052340338748468,0.011421419070423182,0.09663939203613513,0.18819982345264616,0.26440487115058536,0.32023611454980455,0.37603082925978365,0.4576480384298265,0.5799519949322667,0.723221716568868,0.7902557897010636,0.7296694155348253,0.6354084837829775,0.5588577393760095,0.504084138054814,0.4634277479825448,0.41833209718360553,0.35079690094579846,0.259591914547786,0.15936567121199474,0.07037270772274168,0.008807064429088598,-0.016957254169388453,-0.015033683462570028,0.01589715347977505,0.07860533017453243,0.1627236924451058,0.2451121635408295,0.2934998968873365,0.2850090630968958,0.20022462787790168,0.03858959976002074,-0.1739975111449333,-0.39253797731796325,-0.5655288345439626,-0.6709431368749278,-0.714411386886537,-0.7084489458564726,-0.6772753181551353,-0.6686153258379572,-0.7212978115684111,-0.8138390046992257,-0.8895710303768777,-0.9100222123153902,-0.8955370667540586,-0.8861793403195917,-0.8965551109250472,-0.9198027355545646,-0.9379471464268462,-0.9297014283558482,-0.8778681394838517,-0.7574427080432121,-0.5074035735858302,0.007994692191713934,0.6786419175238088,0.8893812935046665,0.9104486313944462,0.913650131969685,0.9196093510864142,0.9267848904729118,0.9316558037642206,0.9311271972796383,0.92030960641164,0.8937035736503685,0.8523224890949305,0.8125604088868749,0.7848502747408062,0.7644114245792897,0.7410469130240956,0.7011742777897184,0.6237559289261698,0.4844135540797543,0.32007662061814496,0.23561650374809368,0.29643132821632745,0.4146257003781501,0.4973938026094206,0.526624266362786,0.4964424096776619,0.41205011533810476,0.3132415011060344,0.2186118217707124,0.1195028585008224,0.00615705341805866,-0.11684110608293809,-0.22200040185875622,-0.2667347639484341,-0.24661848703943842,-0.19443102606893506,-0.16571705543863738,-0.20499272577159705,-0.322438593952136,-0.4619578157377738,-0.5312128802498874,-0.5201662032347772,-0.4573876293140549,-0.3788153134409359,-0.3404656148310476,-0.3678641779897927,-0.43010998700966996,-0.5002561338644159,-0.5715259380451939,-0.6343466752297687,-0.6841196664261341,-0.7147140706543184,-0.7277603047520417,-0.7315344226779917,-0.7359142190434675,-0.7396620188147796,-0.7136064574523774,-0.6238940208575976,-0.5137374689864614,-0.4451012160636904,-0.4331925192071828,-0.4620087486720574,-0.49655660770966764,-0.5081384069997242,-0.5012980106529088,-0.4957650475788784,-0.4894760321087384,-0.4628669119938835,-0.39484891403070116,-0.2443374212145114,0.02679076041970117,0.3401280857490311,0.5299382037332605,0.6079031666192214,0.632515690519918,0.6275055494912977,0.6102301916014223,0.5964474148479706,0.5863155827427612,0.5734839941386931,0.5668739779090437,0.5859132802539136,0.6352456036029022,0.6962255952398785,0.734899787344541,0.7239516427159217,0.6474752099704655,0.4719037950955868,0.1286746930900885,-0.12700313781646919,0.02483755534016712,0.26516577735058555,0.4264265825403424,0.510888327583109,0.5528830643064836,0.5877535031297602,0.6276802247219931,0.6041563159468609,0.41741253444162113,0.20109332041140413,0.058620527319688205,-0.024590126140466212,-0.070884806909611,-0.08922712094372487,-0.07569107500352185,-0.027709332840529618,0.0552293455677184,0.17894334903548034,0.3751675205980452,0.6601603613104551,0.815367628785748,0.7556093892326962,0.6810000872281045,0.6289497612543223,0.5806970806169621,0.5245034031452902,0.4622503421543279,0.40262601948816207,0.3469952056306651,0.29310928317374,0.2452833645877637,0.21718463580160827,0.22767898312299914,0.2912848047802221,0.4268585728319374,0.6524519840889986,0.6453416902601818,0.3435922708967648,0.13942958869484348,0.00668897934540124,-0.09451465441586898,-0.1911518871134474,-0.30095748669049627,-0.41329757373885073,-0.5085190737002498,-0.5805344125534413,-0.6269583501431147,-0.6465215947154013,-0.6375613982271366,-0.5987565175473031,-0.5412922552037102,-0.48954217826964364,-0.47153695307988125,-0.5020225242225554,-0.5728420386253581,-0.6669041869674196,-0.7574098347324114,-0.8282899978886167,-0.8788412062023032,-0.9133308875067592,-0.9352549150059358,-0.9510149785718044,-0.9650437784068774,-0.9707417128974528,-0.9243048515165604,-0.7300697261928647,-0.4452416825614125,-0.24349066334374286,-0.1449976345681236,-0.1105922111477099,-0.10394405093686185,-0.09726472292091501,-0.07767039277494724,-0.048634454022441376,-0.01988614094828582,0.003037229749936367,0.018605706493840916,0.02722685598597711,0.02935959639294452,0.02069230636712326,-0.013701872140172084,-0.1391842259959664,-0.28516855013616516,-0.10081892601562203,-0.05004886404584152,-0.026871441668747335,-0.013348367551090678,-0.003043127293468179,0.009354661313486883,0.02973076516307427,0.06412592474873217,0.11380308376605354,0.16573147711982048,0.20108670088742742,0.22109646396077198,0.24450338687508283,0.2906760328986791,0.38475604207014186,0.5669443617165643,0.837954173946535,0.887044811749549,0.7314091882430694,0.6205921994779102,0.567205489460046,0.545883616098442,0.5380475353556136,0.5312398271908321,0.512527994550408,0.47955910899348614,0.4420696722407349,0.4121291244091879,0.394221043115383,0.3868715702023018,0.3881122781144844,0.39122853143880293,0.3798363722293434,0.33407909375985545,0.2478329661638273,0.14216831317140516,0.04151843383486017,-0.0576821080704008,-0.1772324132876328,-0.2782676857454866,-0.29499395168163667,-0.30438623982252655,-0.34047680077841735,-0.41096097874182663,-0.5071402896307207,-0.593962326308006,-0.6415574537630905,-0.6546092214393312,-0.6526765837858153,-0.6556281941282375,-0.6756779179172343,-0.7088318930113393,-0.733290539308083,-0.7332086721436656,-0.721569247040867,-0.7057517901807813,-0.6823365455454992,-0.6541717525874495,-0.6390302424017683,-0.659377169420228,-0.7324560539159789,-0.8162056124567565,-0.7319252697194923,-0.5054866059094786,-0.33536153891660064,-0.2363371843799676,-0.1759921209610524,-0.135416575206079,-0.1112217131172403,-0.10360632237654123,-0.11926979512117857,-0.16057949449811096,-0.21753419208689906,-0.26808097930105607,-0.29258970124706657,-0.2754348197209637,-0.2040826297338929,-0.053977790052171404,0.17791220984184042,0.419190921021007,0.5885244452865854,0.6966760215694835,0.7700669247820828,0.8232611878732555,0.8639501276902005,0.8961846081989403,0.9213066728929598,0.9396675085990164,0.9512333734179612,0.9558252428372814,0.9526461831079134,0.9390445672276434,0.9083356800706274,0.8490362075395571,0.749621858626259,0.6121605744414131,0.472295616651569,0.36298788314312075,0.2688287947285229,0.13206920969156508,-0.08600135298350067,-0.3190759378013882,-0.4810072213063964,-0.5657427255531566,-0.6078925418068969,-0.6260495514291766,-0.6236663499514001,-0.6007540640525989,-0.5605062637862477,-0.5076126352789252,-0.4522704747775875,-0.4187979739301636,-0.4238911343782178,-0.4600754451580596,-0.5110167777666873,-0.5608668799614465,-0.5903010925629408,-0.5835819047356312,-0.5284240709715936,-0.44081440353879087,-0.3600396157929009,-0.3155725597151421,-0.3099770467323975,-0.335627544425516,-0.35139266231703636,-0.30937277397954344,-0.2392623686508858,-0.18366044290383235,-0.14973531273178184,-0.13246012761275033,-0.13028327591123826,-0.14224044700820285,-0.1697742640825224,-0.21687929966947245,-0.29298524860148695,-0.40125189131583244,-0.5096140785782941,-0.5205421036709235,-0.4382116044387249,-0.3455636718157994,-0.2883846742347857,-0.26878575824790824,-0.26702543591405353,-0.27244529865429745,-0.27240393083174286,-0.2594592196527935,-0.24372745332613455,-0.24339317912657824,-0.28795144873407724,-0.4473589250460872,-0.7257664913072198,-0.38343350541731414,-0.2342163950998264,-0.18713623860479225,-0.18243238424459016,-0.19414715708057392,-0.20253126795125165,-0.1981270389689163,-0.17855740525852368,-0.1446882127156453,-0.09616178039888534,-0.038311650564861376,0.015511150242060122,0.05360254071241402,0.07746059991298847,0.09400244769186479,0.11196452912748554,0.13268799741407694,0.14780405924228784,0.15157381654778262,0.15126644673263684,0.16905913963453273,0.25870817683968905,0.34851220374102965,0.29714366931950814,0.2829971160669029,0.2947402782327555,0.31593939536537463,0.34484419723115933,0.3803682700394677,0.42347847979697667,0.4700545234917264,0.511349640238325,0.5372573834491708,0.5506096778538327,0.5573815316849932,0.5656732084760324,0.5933866871937626,0.6671265734809886,0.7489712191332834,0.7930466211016126,0.8347616508827121,0.8752708437351675,0.9041974002783406,0.9182293613207209,0.9200531722031575,0.9126492304345422,0.8977987573599155,0.8739340720475084,0.8327659458440659,0.7557496713977537,0.6192249369650925,0.4297770337969088,0.23267689512587272,0.048242153287409946,-0.12629456231630187,-0.28384254928085567,-0.39374718736123826,-0.4450355845932867,-0.4440586906404054,-0.3891712187145155,-0.2806561293776012,-0.16251170096744968,-0.14134725671677847,-0.2393965735244015,-0.36810788212046297,-0.45833326638971106,-0.5039274481849225,-0.5136719790513821,-0.5037298499439138,-0.4808404516424616,-0.43911350357348267,-0.37811958276912605,-0.2888319579583795,-0.16489038048211327,-0.019642799049298856,0.11369394765478796,0.20494069654223904,0.2426270725334095,0.23925373310070652,0.2052724845962923,0.14934105684834445,0.094525533303067,0.09270693460434248,0.17169360909353393,0.30959337774768864,0.48785552687094036,0.660397651174555,0.7938216587670327,0.8780587339488399,0.9167879757316604,0.9118087949364995,0.8564396352919449,0.7037251207494737,0.3451267772124389,-0.13676433825537587,-0.4808942042509349,-0.6874438643632935,-0.8098500799830245,-0.878921918796555,-0.9156234903665109,-0.9344112452020803,-0.942957523619504,-0.9450158289055839,-0.9411242217039063,-0.9325755077605538,-0.9209301476656058,-0.9074784603736845,-0.8890119701855149,-0.8596958931635762,-0.742600197008371,0.07021550300560433,0.5799549375763768,0.7123982202586707,0.7997885415520903,0.8811256707283104,0.9413716715882801,0.9732499473595937,0.9858326642810287,0.9884926404610731,0.9850060473575951,0.9740981051249822,0.9462348841246393,0.8524325855998863,0.4852230640651962,-0.13396090416272416,-0.4469371641113369,-0.5615001847758134,-0.5931798874435124,-0.534480372256865,-0.4046462633216528,-0.30233961155006284,-0.24156468938281536,-0.2002931893740367,-0.1598511772136438,-0.10283280220500497,-0.01987242502385244,0.08657411856506571,0.205183682922804,0.31646932411909345,0.40860898819638897,0.45910893481677884,0.32636203650452755,0.07731154442746994,-0.050871292496426475,-0.10913571581987241,-0.13819523922471685,-0.1519593987810629,-0.1567494211639343,-0.1579319511963813,-0.16157075444705002,-0.17471073498661613,-0.20277294786282193,-0.24721619778643705,-0.3041182943307389,-0.38201476845712345,-0.4999029907114094,-0.5991892245632029,-0.32201055504276316,-0.03047378826898632,0.1171647134817115,0.19065110380822198,0.21518775383293953,0.19772926373243813,0.13563002695245444,0.039072269871790265,-0.05480422083363271,-0.11914940445465934,-0.14518525839193427,-0.13142750336974166,-0.06789890997711524,0.050491209860528484,0.18542819282607456,0.27732839408716803,0.2985258929273812,0.25501696582807326,0.16681299289857093,0.05221215600761706,-0.069565887978327,-0.20295469845716885,-0.35411384449756805,-0.5191508022153932,-0.677754282681853,-0.7441304497644698,-0.5814008086200178,-0.283738109775313,-0.06572127818558467,0.05928808802559646,0.18583849293503615,0.40175714168252114,0.6332300662883442,0.6483120143720886,0.6028145197263023,0.5667641526644925,0.5340846654053777,0.4857185703759763,0.4009127024494427,0.2875869308856832,0.1862230443657044,0.12469333075370245,0.10140981489159308,0.10859474324892618,0.13037996414561537,0.1440633753196065,0.14346218947190925,0.136661531093477,0.12790356830147367,0.11786552702381513,0.1044113230528981,0.08791558626180239,0.07169039735209883,0.06099139926236661,0.053247433778423905,0.042774737760260625,0.02453619678785835,-0.0011178332761579708,-0.02544695335922067,-0.04096045907666241,-0.061350870540171173,-0.10173191593716861,-0.1605068062767661,-0.22909454206564672,-0.30052145696303667,-0.3618967833049348,-0.4017624811987763,-0.4164944685339504,-0.41165972631014985,-0.39724997404357093,-0.3904597553701281,-0.4077518732939124,-0.45366198748983216,-0.5037086303114449,-0.5096764352086437,-0.4669233025263192,-0.41974056425984796,-0.3941637517521914,-0.38840711748006845,-0.3908399690269721,-0.38614609933845234,-0.36337737033989986,-0.32080594851015143,-0.26486901969572163,-0.17858568207201517,-0.05644325752894201,0.04385634422869622,0.08204405166920227,0.07262212528492408,0.05333940994376582,0.05062558573295461,0.06164575320742519,0.07679250550192722,0.09080067475466747,0.10095424005216887,0.10657669921851556,0.10905693148579373,0.11872768435288292,0.18006934312895817,0.1459472330507677,0.07167185503068736,0.05866230625013147,0.06033324220554927,0.0680442019904667,0.08138770693125831,0.10407320370937226,0.148587890475233,0.2527001578116801,0.5326373876617814,0.9549226723653419,0.8635904312509306,0.7814603413417657,0.7692987610661438,0.7741580040298793,0.7699518825908592,0.7511852788111815,0.7227671927095248,0.6959392908403104,0.6764116837450697,0.66312264794501,0.6494092968144625,0.6258580608746205,0.5754643546982464,0.4673462182284586,0.26111217717940544,-0.006406147864177776,-0.22220755007352563,-0.3643541015907128,-0.46547765620860876,-0.5369173442434313,-0.5219916825301772,-0.3682136125894919,-0.20418170515480705,-0.12694325571999077,-0.1401104526089413,-0.25646977837871254,-0.5074579115263009,-0.802865991751061,-0.8954755725044948,-0.8207840260465998,-0.7070635232115521,-0.6111046800676776,-0.5721401867826825,-0.6011128250133408,-0.6686871570080967,-0.7427176784121697,-0.8065195860210823,-0.8407152455020928,-0.8156165246845221,-0.7201791852644258,-0.6153032944078562,-0.5561766361882143,-0.5368258262362119,-0.5259772859717678,-0.49034622673754036,-0.4182423407715227,-0.32808454559899825,-0.24231333108289646,-0.16480703035953015,-0.09345459001893275,-0.034866456766254286,0.001226614841778248,0.007520065984660437,-0.014654634820472617,-0.05082542509904467,-0.08527912941240637,-0.09610703819403076,-0.06263920168240701,-0.009973338872775224,0.029437229562199164,0.055467762480110844,0.07402742868315937,0.09018746488742567,0.10539674179500212,0.11124455484859908,0.08505016084656532,0.00844456670912861,-0.07689593094357859,-0.13973747007441012,-0.1726008213647287,-0.163202552850683,-0.10507524416620112,-0.026917168765356603,0.041727676055275074,0.09095010500673804,0.1250444291675527,0.13540512355500742,0.11341969980250408,0.050032102428321554,-0.056272480508384924,-0.1348524913791252,-0.16539534705185424,-0.1904183878863861,-0.2516285180207994,-0.3814100348036604,-0.5508172137667788,-0.6734821780200679,-0.7370949541420879,-0.7692859756111644,-0.7669000374391327,-0.6729901930703961,-0.26180291270969197,0.4008526462692514,0.7711190583458453,0.9232633597418601,0.9750929016668782,0.9865948672143007,0.988288729489225,0.989963545301925,0.9911438533439493,0.9798485920911515,0.9071544147525534,0.6122028625589556,0.014907301182071762,-0.45775160933740766,-0.7028576605101498,-0.8216179694230449,-0.847477728501134,-0.7731700512426946,-0.6374112249376813,-0.49557538861539624,-0.3479320042474484,-0.17750030574759457,0.037700034899952925,0.30536838712744085,0.59590048364343,0.8087074027905998,0.8922558952712416,0.8997822849568721,0.8869534953152901,0.8741987062793527,0.8641974033429582,0.8494683831835534,0.813283170093605,0.7293931937364398,0.5699627768778193,0.3593675452617923,0.1496715016272107,-0.04232280861717603,-0.22075054652688708,-0.3781285043484873,-0.5118263588559496,-0.6170720269957207,-0.6888657328660204,-0.7245443450082836,-0.7328392664374206,-0.7332811390069738,-0.7425046977628289,-0.767297345689747,-0.8019299634386201,-0.8362962512745054,-0.861734313886986,-0.8721064000676949,-0.8672323798172482,-0.8524987534912045,-0.8414093351119053,-0.8432486644694065,-0.8603751972741142,-0.8596705163324371,-0.7394945448589212,-0.5153223110379411,-0.32162817762480406,-0.19169825768360782,-0.11406378444565546,-0.06786719144575712,-0.019752532063628474,0.12596946570701445,0.5324371470932527,0.4575746275872561,0.38084239238265466,0.36039019668988115,0.4020974563850038,0.5357256821283529,0.6729686318380634,0.6251212993912844,0.5992736640367818,0.6177995772212006,0.6036967565628185,0.5879767907950978,0.6381291460370776,0.7304481846291777,0.7761909145687866,0.7659987723631612,0.7557580774205036,0.77107243344964,0.8106581026182409,0.8699299431505962,0.9310398451474932,0.949521579221128,0.8859662427820992,0.7798580790144174,0.6848151349073098,0.6067351269887461,0.515878317094886,0.3946803330067032,0.2641424052630416,0.15491101156276707,0.07456635055377603,0.013753729580783887,-0.03651096814812239,-0.08480733694157666,-0.1376367328684068,-0.20221159627366583,-0.3009703280860849,-0.47533263285618577,-0.7370787286834306,-0.934204520950031,-0.9667387362986397,-0.9269353772346144,-0.8710096399749835,-0.81759481679203,-0.7731214160872354,-0.7396426144173244,-0.7153339755549932,-0.6924062044269578,-0.6603868692114705,-0.6111546583353679,-0.5453929678343099,-0.45170535026204767,-0.31924025944952256,-0.16528139930658362,-0.03472949947623564,0.04365921537278106,0.07376041874834072,0.06698707495924969,0.041252304323448834,0.006807968182088533,-0.02666142400045754,-0.057217586295943174,-0.0829505072748346,-0.09133631304577836,-0.062312859519159707,0.00017957527809391645,0.07411608711956977,0.13574482037978242,0.17075319942482234,0.17653910505388445,0.1671715610857182,0.15305607223595913,0.14241370065485992,0.13499713977489197,0.1259964499226935,0.1129763093863359,0.09648369263023361,0.08432448817279349,0.0859904943737735,0.09836335992344124,0.11285432912507339,0.12432203838368967,0.12664273079884386,0.12081677373840752,0.11096522172492293,0.10373579409338878,0.10058388926103029,0.09471149938613542,0.07908773385150514,0.052474966384832636,0.017013198884503863,-0.0218481715140035,-0.060452629229054686,-0.09227065826456102,-0.10986360706401585,-0.11017223062169833,-0.09676091574599491,-0.08429981294347554,-0.07958167246500256,-0.08414579547121821,-0.08548569846554724,-0.06732801831250272,-0.01334078726343806,0.08652813180218277,0.2242858721951448,0.365640787290316,0.499201108307818,0.627618273533752,0.7482644779308154,0.8493999275928029,0.9200696555390853,0.9578289085127089,0.9715993543818744,0.9711790770995798,0.9571214901241145,0.9174491521698367,0.8251769102907333,0.6538161289807225,0.42354015480973634,0.19596080417395373,0.006941221192120417,-0.1460324022356953,-0.29180776323931507,-0.46596207407553614,-0.6744986322939619,-0.8596195729048186,-0.8810533242225153,-0.7070630278914334,-0.5167347641986996,-0.38586503446845094,-0.3039650646582692,-0.2524055851211821,-0.22001225376344105,-0.1976185728588332,-0.1761393492555883,-0.1441252115186218,-0.09501796109278635,-0.03555622651464673,0.015934762021092456,0.04227797482364744,0.029985416048553818,-0.030763523743609196,-0.16088195369669545,-0.4016168769150851,-0.7179465874578199,-0.8785694686660603,-0.8009782101438623,-0.5573988119854162,-0.3447119732798829,-0.22512109056777208,-0.1726616288181103,-0.17118868346723357,-0.1991797731883216,-0.09947950163534282,-0.04222179852203768,-0.02021286050192488,-0.009424548319862898,-0.0020024117855452638,0.007654772193985663,0.02650866688560655,0.06540114212103329,0.1455692875318865,0.3162584423028741,0.6201701742638025,0.505018281326114,0.24894236842397782,0.07795848430348862,-0.04042661745963173,-0.1166880396420171,-0.15374953697019322,-0.15864699918582548,-0.14515099548787797,-0.14272199415839015,-0.19149751085255193,-0.3047394774526305,-0.42004285300878225,-0.4727406048505443,-0.4598907947078235,-0.4002971064818155,-0.3181564586082528,-0.24114615012718685,-0.18054436540958282,-0.13143716131821476,-0.08695217681844011,-0.04539950065588153,-0.010051732875219464,0.006452305561769471,0.0033684513096229078,-0.009853647298438456,-0.02443305957411991,-0.044992275532336555,-0.08147252411947263,-0.14314078226722252,-0.23446431320418315,-0.35067763654972417,-0.4573935401975415,-0.5115366212087302,-0.5238585059616647,-0.5123192947531648,-0.4755315339315342,-0.42908693666319847,-0.39182664241263626,-0.38663342189668964,-0.4245863983729822,-0.49937979248130854,-0.5952011073655058,-0.7021069524470321,-0.7944469970511083,-0.8440354256579534,-0.8464050774946967,-0.8097081678421262,-0.7538846447035331,-0.6858024915322463,-0.6118001240910234,-0.5459834390464676,-0.49382182531894514,-0.45978454085887843,-0.4135719975608788,-0.31556527189891886,-0.1824402386557591,-0.048126488707474845,0.08021696514497524,0.19429487027561482,0.30274316880609403,0.4137362464653953,0.5290333539821808,0.6616027700439087,0.7880407540668046,0.8534140078667294,0.858956334720922,0.8503183208979227,0.848445293672872,0.8536130290758177,0.8540852330592139,0.8392672713807969,0.8080230758711128,0.7674625191194734,0.7183378031799464,0.6586807237135233,0.5975747810128534,0.5510493616487124,0.531481405259009,0.5443537011884224,0.5924641726868154,0.6675346638912273,0.7155004894996952,0.6722826606908515,0.5781080718088702,0.49639674634108033,0.4395926166540904,0.394089217412395,0.3407450083353767,0.2834425908998031,0.2372962352345684,0.2024571444347083,0.16918098653766228,0.12689515506534027,0.06152478132234401,-0.0499449393599595,-0.23110878505205512,-0.45899518719397525,-0.612839122871116,-0.6205825547694419,-0.5534364503664415,-0.47964905304377947,-0.409446074806455,-0.3375174713203344,-0.26601632040590667,-0.20554308310376668,-0.1602558502879766,-0.136194533586835,-0.13419675929311023,-0.15086775684487247,-0.18068908060822417,-0.21456049080986497,-0.24524376370171705,-0.2675487236950283,-0.2879414006784753,-0.32203777455703847,-0.4004335548289695,-0.4827440186513546,-0.3154388469488198,-0.16562485082776013,-0.09184430535400173,-0.056011529325812964,-0.04404157333913421,-0.05101115542353187,-0.07187487749425626,-0.10492187388059003,-0.14590272806395416,-0.19222228745080225,-0.2560453822755481,-0.358388389424188,-0.5275119170039968,-0.740000763303245,-0.8862243185362948,-0.8884733753980175,-0.74197055670187,-0.5535809723267521,-0.411815073457773,-0.3127197865403189,-0.24050336430512312,-0.1758096837271404,-0.09945855397377859,-0.0011545818908051484,0.10905316926632211,0.20639287656726887,0.26325461429602276,0.22683810070951418,0.012551609642028913,-0.18362306298082579,-0.2208468818155563,-0.1364726681931384,0.05177589095697783,0.2806552167906216,0.4670111432731436,0.587281092176347,0.653827255650001,0.6783982338493365,0.6677751642565859,0.6326504875490768,0.5868917698831552,0.5440213865135043,0.5220533537352827,0.5487743980602584,0.6458354301986572,0.24968771404283174,-0.01617784917949677,-0.12177128972896915,-0.18385880177326255,-0.22915611804996408,-0.26818236852362914,-0.303881297705327,-0.3387864297117307,-0.3736661990679028,-0.4097271744896661,-0.4523141419649611,-0.5055846809670038,-0.5685655858407543,-0.6304979343104354,-0.6670768367484479,-0.670488266933681,-0.65442040369371,-0.6412445145545427,-0.6365844557393854,-0.6327673222321758,-0.6201538073855348,-0.5902835555407024,-0.5359526065382875,-0.479148415397799,-0.45655973412220086,-0.4803856163911499,-0.5272778154725589,-0.5649444939353149,-0.5719265293410642,-0.5352335547418551,-0.4496644118611536,-0.36018335409160596,-0.32352246352680447,-0.3439973251341544,-0.38199114171918414,-0.409591510821838,-0.41751420558803326,-0.41738367356462264,-0.4316168087809576,-0.48587311805381894,-0.5791084423781738,-0.6779988191326654,-0.7465232054269113,-0.7588625475753202,-0.6199197833428934,-0.10190097648051304,0.40348740304444225,0.6244820080478491,0.7282800080692243,0.7856150815212791,0.8210047683478889,0.8483658022111923,0.8760134775512316,0.9038780743240953,0.9259211804407891,0.939511984524368,0.944987440876266,0.9430767551877569,0.9329880179347385,0.911872326311467,0.8754246158767659,0.8204992231216054,0.7484793552865371,0.6595607455751821,0.5492780224143748,0.3948787720562339,0.1739259679771189,-0.08127031728568815,-0.2735746951926642,-0.37546369984036576,-0.41834374845205285,-0.4209299747755022,-0.38051020726192025,-0.29057721988636803,-0.1567368952588504,0.014409056601820392,0.22106129143717715,0.4724915408498615,0.7670260942869916,0.9386340599465722,0.6756771986222846,0.383777676750923,0.21390888803840888,0.1155864060246238,0.05321968630296948,0.009043328706153247,-0.027230889669379678,-0.06202339346112528,-0.10193175300317273,-0.15074468022836215,-0.21293348122827693,-0.29169307094745195,-0.3963568836925351,-0.5703997095732316,-0.8576088115306418,-0.8372416491339735,-0.6024684768703034,-0.491208469674773,-0.46099076363086183,-0.47815837281269086,-0.5245777724149147,-0.5811650874479506,-0.6257559745591028,-0.6485324392193028,-0.6604361994806235,-0.6767262832070475,-0.6973197793486294,-0.7071913820434357,-0.7023619121448105,-0.6927579968338591,-0.6885610641999118,-0.7016871890237405,-0.7344892322974769,-0.775459597319608,-0.8132877740553911,-0.8459061921046358,-0.873404281927245,-0.8913120227511525,-0.8838121333479912,-0.8335055871298109,-0.7546371121065042,-0.6815495342860057,-0.6331031382195271,-0.6032778183602052,-0.5747581922208674,-0.5188515301902529,-0.4147220239808463,-0.28545554602705075,-0.1774582839052669,-0.10468963027525816,-0.053818255317382234,-0.009626755220326818,0.04119017936688481,0.11126978753004586,0.21713023141157076,0.38452206713382636,0.6066143465812657,0.7699074705999539,0.8062088616500521,0.7805507567863248,0.7313624513080266,0.6654112181564827,0.5877190957459533,0.5142798249471577,0.4650700819249567,0.45420626770443184,0.48927199015149786,0.552297223288409,0.606107357173811,0.6245940271655797,0.6208684928153257,0.619661732841296,0.6358277123958557,0.6776017627770924,0.7475918478721093,0.8279302264199688,0.8942989147229325,0.9289492945480353,0.9340450357953802,0.9214495151866933,0.9026683754817013,0.8851823719011167,0.8703762817253141,0.8622260714456667,0.8616141085010451,0.8431758657229282,0.7497894577923186,0.5581336291525816,0.3365840193838847,0.1475891686766338,-0.008895505934636222,-0.15031862803932747,-0.29324049219726,-0.44095188259774526,-0.5406676296925161,-0.498112647557926,-0.37104896917081737,-0.2690947597021108,-0.22753839927945657,-0.23505786991586097,-0.254525113052121,-0.25391620822365485,-0.22182182880665438,-0.17514455189450737,-0.1421303478307214,-0.15697314548990493,-0.23144076809563327,-0.3284589142064217,-0.38050065715749404,-0.3724959601277584,-0.322936259410468,-0.25016927709419046,-0.16747198018881485,-0.08844022997252181,-0.030679759022290497,-0.0045501370876655884,-0.004399551762759776,-0.015850058062396345,-0.020893782660224992,0.0012643817417710393,0.07317361797008468,0.22699022660710425,0.3978099195081649,0.26654255732883975,0.12867989873116006,0.0512381934363298,0.004664300299595626,-0.027288379652133956,-0.05296877083077101,-0.07780601352582735,-0.10685375746310034,-0.14502104358357412,-0.18971808634045675,-0.2186781590186672,-0.20598359244280115,-0.16529910673843531,-0.13073480779311633,-0.1173357148922479,-0.12842360450821577,-0.16454346781141005,-0.21639072077358537,-0.22747063377083332,-0.04856387549364552,0.156644185016818,0.254618097767909,0.27377979238982025,0.24297257210408824,0.19491531899132641,0.15632283275150682,0.12827117821343048,0.10594198334161514,0.08799629635990264,0.06998067452568524,0.0381525866972651,-0.013636230026641572,-0.07753956475443796,-0.1406032150892516,-0.1994306370128247,-0.25608966004771605,-0.30896683919680296,-0.3521040577560454,-0.3738757751010733,-0.35409880798083326,-0.2747243500081624,-0.09758516950785699,0.25543807581198913,0.6639932438302758,0.8497100204405014,0.9130874765994871,0.9455604664978702,0.9661737176329357,0.9762890588688949,0.9756120716218455,0.9643146138023343,0.9390947677625339,0.8925197381872372,0.8160501874447091,0.7119062291057381,0.6021527266797668,0.5071049671277277,0.4193209753905272,0.31240214335669153,0.1551702651390902,-0.08205995791734037,-0.39865305880930785,-0.7074937825072095,-0.8881768742884656,-0.917112054679989,-0.8510430048554439,-0.7382487544763023,-0.6150922738684445,-0.5170319920178956,-0.46073728303174816,-0.43721629601639633,-0.4319045194815029,-0.4355230008414973,-0.4442440095356201,-0.4612264873218968,-0.5018491359016047,-0.5896125978062562,-0.725692188469909,-0.8501146159040477,-0.8713955450906988,-0.7517688454875461,-0.5443048249489685,-0.3293953783121699,-0.13577088350861216,0.019539454090162958,0.12687363893690395,0.18794183846816082,0.20547718915275462,0.17964438893954257,0.1036023423026225,-0.050564888869129854,-0.2985118228041442,-0.4959425168184833,-0.5279187172316845,-0.46679613162177325,-0.38096101669403803,-0.3024999566888104,-0.24895003986978514,-0.21768180041029211,-0.19276143084221806,-0.16568254403943214,-0.1398016553626348,-0.12865800069147726,-0.14711410142998457,-0.20576810169309426,-0.3115973522405556,-0.39593035806375954,-0.35718060729217266,-0.25282965865320484,-0.1304005619658743,-0.006583274864331109,0.11334895194740235,0.24189959607549594,0.4043628070125391,0.6083549604708395,0.7466590844797912,0.736621378530132,0.7007035416040764,0.6862043581487162,0.6845887053026368,0.6869406416519949,0.6837457495302084,0.6714829321388674,0.643033000357588,0.594866610109747,0.5356389796250951,0.48824350149444684,0.47121862259966446,0.48264091498748557,0.4895206793392446,0.4365354192380245,0.34255083352778914,0.2543489616701535,0.18193570270855083,0.12301770477675211,0.06924563932207262,0.011555415188749084,-0.06200295078578398,-0.16425767719902473,-0.28129792414929766,-0.3835222157770476,-0.46249862028948197,-0.5160294034648394,-0.5365065229424595,-0.5044175904092727,-0.4131099261750948,-0.2920978541757673,-0.1813552745628708,-0.099167513417548,-0.0458109511805727,-0.0120371650971516,0.014058021645750306,0.04306033966962386,0.07378306588452589,0.09106292883245065,0.09297372340386696,0.08692777200323586,0.0814821698357263,0.08034007260075021,0.0807719096631722,0.07189449996543819,0.037509084249831175,-0.016385738847576495,-0.08019894392362709,-0.13684680888576303,-0.16043065824647781,-0.12928686927393,-0.027265989806260073,0.13956370424183046,0.29748595371834796,0.39406812752299514,0.43383209536785367,0.4288313905585368,0.3833365708442796,0.29396342311365564,0.15494873608969698,-0.012180546409552372,-0.1192067126281865,-0.1402941861620809,-0.11571855126309742,-0.06251576454929622,0.021374693682036424,0.13392683040346676,0.25620705636217445,0.36057923487106414,0.4287509028229523,0.4597719134782754,0.46790515292204105,0.4758774832132322,0.4999131934537296,0.5249652537109938,0.5273156267013475,0.479492765105973,0.37081349486814025,0.20355479249626834,0.0065746350172135645,-0.1781076369941905,-0.3138823028558166,-0.39365627957013166,-0.4296673797440136,-0.42400200022658513,-0.29666030236911917,0.029733704347516137,0.23409018688209873,0.351890340221601,0.44360299615982124,0.5214450786764063,0.5734037149386567,0.5651603791815211,0.47315591416235836,0.3383045571425452,0.23015637295082378,0.1829585546274254,0.1645137192047878,0.10252817886918981
