0.16382226087708837,0.0008602892025856847,-0.1604387111270856,-0.26520821654918203,-0.2921977492543722,-0.1939578757931949,0.013128490515795595,0.20111094287129633,0.33916341268308636,0.44041547939037323,0.5108265441272968,0.5423030505039438,0.5150500580119164,0.4091760616281242,0.2734798225737825,0.206628232759258,0.19950189734650697,0.20745142482775353,0.21242850872988814,0.20623202088546774,0.1788781850636866,0.1212949838905377,0.023058373189177223,-0.12069759848303128,-0.28428633229235195,-0.4202426164076605,-0.507709469781258,-0.5555413274476176,-0.5800675179609995,-0.5902900139138006,-0.5843089730919443,-0.5531227939585941,-0.4799886414688447,-0.34441428953901104,-0.15572691917243783,0.019419741263825105,0.13168227181618664,0.18736539196284405,0.2034635120365325,0.19003694478595887,0.1492400119498583,0.08765762750178913,0.015511046974439644,-0.060159280158300375,-0.13441570831476174,-0.19984607461001228,-0.23656775472607885,-0.22498724635002587,-0.18225738026195093,-0.1536052958252229,-0.16566366275196456,-0.21785995878310588,-0.2946933450045446,-0.3816079292202265,-0.46561560227560445,-0.5403224331339099,-0.6031626648350071,-0.657710720438736,-0.7067843358233711,-0.7480349769144833,-0.7654855702075856,-0.7247053340743913,-0.5657490123275497,-0.2562492482918306,0.09403383451957764,0.34750298456714807,0.4956524419968638,0.5705430702095934,0.5908562441177119,0.5564320074138892,0.46073912088176117,0.3221775243741541,0.19840267003944606,0.1254621018386372,0.11100498291667046,0.15879530896000252,0.2684654388180306,0.4034683651603384,0.5101190872584712,0.5783443166477227,0.6276076850834347,0.6721857654484913,0.7167764778295159,0.7462225025052668,0.6302325673376352,0.2548666632401591,-0.006146643123357753,-0.14293966233818528,-0.2384165133026973,-0.3309379016256501,-0.42858845232439957,-0.5172886238780842,-0.5477977657462941,-0.531638178568194,-0.5465795985578206,-0.6007621275423498,-0.6695161389573683,-0.7324784073305931,-0.7828935167254123,-0.8092476476650036,-0.7953769435148386,-0.7431154973722403,-0.6665997994249082,-0.5762997604830008,-0.47191875236563147,-0.35051110822488946,-0.2013961619262428,0.013294222632361966,0.3440355465691022,0.6327873361419015,0.7089870344972278,0.69391124790755,0.6649793510673748,0.6413039530850699,0.6203951396990418,0.578843381921692,0.486044137704344,0.3789667315482328,0.3292047393485728,0.346334377051708,0.3943050394906606,0.44267063416207936,0.4882578983750469,0.5417415784869695,0.6140779618461828,0.7094556355309208,0.8149190070574795,0.8949665111483697,0.9270984675953952,0.9243083581004222,0.8944979623154253,0.8249399343236743,0.7117358696842905,0.5819712060587635,0.45672775429254986,0.33509955925305207,0.21389897430825758,0.09784064516380558,-0.012532175577894942,-0.11793367377778566,-0.21642931020704997,-0.30801589222679127,-0.40541210606036027,-0.5229881940902739,-0.6310308222859667,-0.638938784763981,-0.557378323670807,-0.4632516760465133,-0.37590452428399035,-0.2928606543369561,-0.21751446520425533,-0.15702427384470882,-0.11085340270481273,-0.07215259263292681,-0.03562419950294171,-0.0014209283256498486,0.02489127341661999,0.03665645656108382,0.030586614940777808,-0.0035995967614027426,-0.09440068759810431,-0.3051639272634922,-0.522631184504665,-0.5892834579785013,-0.6190352658898831,-0.6432672301860775,-0.6613034609877286,-0.6698880295427355,-0.6673356052612698,-0.6529447108128571,-0.6256326870654376,-0.5810789797314242,-0.5187760461644303,-0.4444497126096413,-0.36358244993384525,-0.28412309357838084,-0.20722275966156936,-0.1281586787391487,-0.03608695664622014,0.09871515909523074,0.3047022723438266,0.5399763046910483,0.707826865982745,0.7948105782791551,0.8381439406127086,0.8665568166315741,0.8908230787607523,0.9108610996631982,0.9245353486764073,0.9302417042566756,0.9238509440481717,0.8909352863396186,0.7605565873498794,0.25865445536592563,-0.4842632737100166,-0.7686420835125938,-0.8442396985292461,-0.8461753233483114,-0.7748124590162409,-0.5414888729273013,-0.12059946145402575,0.1814140938376364,0.2788479687438057,0.25029255845774445,0.1378018106491427,-0.018251763154368043,-0.13427377447333014,-0.1842754169675908,-0.2096461694110863,-0.23889840714492477,-0.2868082831074504,-0.3536142154091196,-0.42168965708651907,-0.46645097485902853,-0.4789901591930371,-0.4659182526723997,-0.43455708280703625,-0.3919412221416794,-0.3482882061636241,-0.30831308431532406,-0.26755797045015356,-0.21113712439112373,-0.1138564480448832,0.04975470400335907,0.25245359827357206,0.4335038795472535,0.566373624793581,0.6577206782241674,0.7116194135134579,0.7326910305504442,0.731962259826882,0.7246026097464001,0.7265137420198994,0.749411537845871,0.801131741371501,0.8771435847173278,0.9382229072279766,0.9319767532274748,0.8692862185788627,0.7953820261339698,0.7288992338095527,0.6664600834472107,0.598479467693894,0.5104966527681042,0.37984014326274956,0.1837163971950946,-0.0689836208424047,-0.3032795239862432,-0.44971992446218295,-0.5033541997615676,-0.48113145414223585,-0.39192222190435083,-0.25246573683823426,-0.09917522698051212,0.038530401684908545,0.15684999041928413,0.25373258212531624,0.29048377658944,0.18072271930981076,-0.1676890158175118,-0.47518228849839445,-0.5785091557446044,-0.6014650828952767,-0.5968954143332174,-0.5811477607010489,-0.5704164418850428,-0.5745466538959851,-0.5877034890490384,-0.5893757359149415,-0.5696536325790038,-0.5241410132818088,-0.45899452620701586,-0.3928792375118094,-0.3527229842664978,-0.34911343780839676,-0.36957081784377294,-0.3972103977006684,-0.41123316939026555,-0.4047153396818437,-0.38508704942606575,-0.3651990129032475,-0.3526187489701331,-0.35000057062429957,-0.35275076592485005,-0.35557816041963636,-0.3526053940509897,-0.337506483215678,-0.3106517290594952,-0.2797300935708953,-0.26130883405977096,-0.2667492845028285,-0.3056305162540899,-0.376697517341502,-0.46096762886723847,-0.5214921878791604,-0.5056316186693534,-0.3084033223676138,-0.10902514277661497,-0.13447478759054854,-0.2439327435129185,-0.33757622961098455,-0.3915345032299781,-0.41111632359866024,-0.40594909245573124,-0.38792094060527993,-0.36073816698885103,-0.308947109202909,-0.2121385348106278,-0.04607940865053214,0.17751314012775843,0.39236437369656146,0.5329186191611156,0.6060887444216637,0.6413268539329656,0.6601609507309197,0.6785727701846418,0.7112008149535768,0.7660590163100582,0.8301534429324104,0.8796325362608438,0.9038663928837819,0.9104048314255806,0.906984915844543,0.8949578941602006,0.8713656663862291,0.8271041587682446,0.7499755864173213,0.6315553427765819,0.4815483112565398,0.334522495716565,0.22494731801397366,0.18319072998961072,0.2850547160804227,0.22874695831475966,0.14979267439434907,0.10106368991576686,0.0591231537118263,0.01835449561321171,-0.028426714375726327,-0.09087698544117977,-0.1845551892342911,-0.33432233292488034,-0.5649838159971998,-0.8122666127876177,-0.9288393565969308,-0.9370782518772544,-0.9216506308081959,-0.9062775258740843,-0.8912303534006206,-0.8746846441403281,-0.8531162132075948,-0.8234705608971943,-0.7892631658321165,-0.7585918675489232,-0.7380463386836402,-0.7227228945166055,-0.7037700475832014,-0.6737252607711759,-0.6253547632318728,-0.5448604610158571,-0.4117424919335771,-0.2010315340200777,0.0595701070230533,0.28010157522021556,0.41315079259409127,0.47090080763555864,0.47870603755160374,0.4556491406694703,0.40672942558194763,0.31983075523349375,0.19459071545943793,0.06257979545588428,-0.030891550002246335,-0.08620247325916988,-0.1339041318545607,-0.20838598051904192,-0.3438169166586997,-0.5530238814588139,-0.7495401249659943,-0.7981036124955858,-0.7297901030441596,-0.6188181740858857,-0.4862078983717653,-0.3318520958557792,-0.17041906791203165,-0.032898533696031185,0.06242404673439258,0.1196175954825529,0.15106154306490896,0.17041948502113272,0.19164579820004832,0.22786109642437816,0.2912125510256872,0.3890821053022951,0.512892692320042,0.6337483289406545,0.7240758793144522,0.7822024014947879,0.8095727667692906,0.7493055186352379,0.492013878429354,0.20758435957080484,0.05905575601130914,0.011993753567613284,0.020675036615264798,0.04828270937683927,0.06851764820454959,0.07645292968307218,0.10023080404037968,0.18714394198099246,0.31950145287126036,0.43330834774406773,0.5140640914094987,0.5751444067212963,0.6280462028324654,0.6837139643606189,0.7515677022143677,0.8295687298949179,0.8962007860159549,0.9266328908283684,0.9220010744158257,0.8994258204558919,0.8644887708631838,0.7964845055107563,0.5968122567485503,0.02274898579894844,-0.5330450086635773,-0.7227751715781983,-0.7713479683088985,-0.7732772710063789,-0.7522831249105224,-0.6977341906952765,-0.5671175612898466,-0.36233297550846144,-0.21944413688092104,-0.24331487990586065,-0.41426674978110234,-0.5664109315335314,-0.5562170091673555,-0.45719462259649196,-0.3459503551553975,-0.24947963932071854,-0.17641389421435624,-0.12703003729484735,-0.10323986257830066,-0.11827337857441864,-0.21083857451412708,-0.4458021394348358,-0.7558705066234221,-0.896681061331664,-0.9157190165411306,-0.8834023436854678,-0.7549421215521109,-0.3574373650432508,0.27264311262346363,0.6497316209951346,0.7216750174008173,0.4960204911566688,0.20213279483884947,0.02493838413821837,-0.03894896150895078,-0.03891686759034784,-0.07029374062775796,-0.1576977418127978,-0.24546143085966007,-0.3025564182299271,-0.32635558519493457,-0.3427145175241953,-0.38277908980904235,-0.4770427163666821,-0.5733499948137359,-0.570546171654302,-0.512285552338791,-0.44657882832508383,-0.37279142668237514,-0.2863435346936565,-0.18933332976682496,-0.09095236560366676,-0.0002064058982619584,0.08962588939121076,0.2109895552507193,0.4336236001799969,0.7285692250175663,0.5896267851075512,0.3887547063853877,0.2608113835931474,0.18082152331536594,0.1429905684491627,0.15428492944459396,0.21758332949538284,0.3192038877886943,0.42312465110026387,0.49355216533227414,0.5184626811615087,0.505574118786168,0.46270342785401725,0.39381689179687224,0.30732151255926726,0.2237690103470135,0.16495809132080824,0.1401575846727275,0.15405523328558746,0.1967897832769959,0.16080057810146617,0.04622030115107732,-0.060736216402518244,-0.16738223968358265,-0.2672471100508378,-0.3467174877550567,-0.3970475269035134,-0.4290266320980351,-0.4566894838630158,-0.48444718607789766,-0.5108076666152545,-0.533650391172811,-0.5458115493456026,-0.5239383420065171,-0.3058659888549606,0.2171055045424714,0.31842790194552023,0.2832128473654013,0.22391954059245084,0.1571732976362163,0.07926259549181586,-0.015557057365294983,-0.13665261941199602,-0.29813409716432265,-0.4994472467894535,-0.6846559888479663,-0.7852849117533647,-0.8107920225285528,-0.8048998323711852,-0.7982119140422685,-0.7957042963289722,-0.7772357535043267,-0.6771310512141786,-0.3015729103088179,0.36030503303964206,0.7489092916711078,0.8954570458774995,0.9548790435964735,0.979983107777891,0.9876943152693444,0.9801859022395978,0.9436844989538073,0.8459276140336207,0.6750826300772161,0.4937132694031402,0.3734203229782494,0.33874831071141814,0.3791871603417912,0.4766663203045463,0.6054252315302616,0.740705383872212,0.8437763413288514,0.8991747769477406,0.9095680147698615,0.8561417887244912,0.6499781648442428,0.20123529999555556,-0.20113483556206088,-0.38428566944277,-0.4392698443077206,-0.41778474349334316,-0.3470950146077592,-0.25323354782534796,-0.16995068359810986,-0.11973474891435656,-0.1088261440839465,-0.1282866436407187,-0.16823015646533412,-0.21190693552537004,-0.24642954409033008,-0.25692779139539573,-0.23421395732878805,-0.1925799587753033,-0.16831502051295416,-0.1701102007372832,-0.18254158083089547,-0.19568453681565529,-0.20827041847408934,-0.2377227217724568,-0.30710282721380333,-0.42478428630429815,-0.5743652454464346,-0.7089250318038927,-0.7817201913337966,-0.7845779378909059,-0.7389753097528902,-0.6623312789174037,-0.5620064423321938,-0.45126580059658844,-0.35246220331677075,-0.281958375216889,-0.24201969239183985,-0.22183874225076275,-0.21105655124469785,-0.20362430234764747,-0.19348976495664816,-0.1764109498508758,-0.14420514644964638,-0.07906891261383563,0.03523551798495644,0.20187943256605773,0.39803805366650935,0.5765029406093146,0.698486703525548,0.7551202875085798,0.7571192935587859,0.7073890846535416,0.5931374488970717,0.40510314209723913,0.15885349422200384,-0.11595786759177976,-0.37542423016632187,-0.5700230403894824,-0.6921419696721371,-0.7709417737779382,-0.8333451676542344,-0.8920405233036178,-0.9424792440583414,-0.9632406181985358,-0.9247962186686024,-0.8304094834692761,-0.7047616978261331,-0.5577935334746427,-0.3953500074340118,-0.259129672756835,-0.20390573453033353,-0.2688790206665189,-0.3994564562570497,-0.4630898454807452,-0.41639430971911845,-0.25146236554252555,-0.055702758310170374,0.08285678032182571,0.17247456151107607,0.24531647575045645,0.322897677670536,0.4091417947399467,0.4999588262955268,0.5920911147207835,0.6829036463062742,0.7668477009148997,0.8294536002456757,0.8524463575554911,0.8397820487047392,0.8134121999138004,0.7887422526264383,0.769739125156813,0.756296865237105,0.745796198859476,0.7299932038131958,0.6963079750983077,0.6284644771041563,0.4998358134467808,0.27391714363810094,-0.038201889569243946,-0.2730993997995115,-0.3378680659106296,-0.29874242291768377,-0.22207438025812928,-0.14247636568989075,-0.07697529352538797,-0.04125776127772304,-0.05047411047219406,-0.11381921418111912,-0.22404089381565673,-0.35304725534810716,-0.4608173731256851,-0.5259227187742009,-0.5565570165558638,-0.5728241448915199,-0.5993072007256893,-0.6630224273354813,-0.7768637987814407,-0.8418618419813282,-0.7285155771918363,-0.5994366984460177,-0.538634314832028,-0.5128052032044875,-0.4861144297071441,-0.4635451722630031,-0.48602769772896426,-0.5774556564106467,-0.6367988709111714,-0.6132107373705137,-0.574106761988777,-0.5287177072613749,-0.46915289805640586,-0.39323948161327055,-0.3112792545683792,-0.24340185236089118,-0.19835825570018117,-0.1720300534718216,-0.15668502126526307,-0.14431397777958976,-0.12695797478989912,-0.0977765110509526,-0.05245424625072188,0.027504341396436864,0.16129227494273923,0.3462318448714599,0.5155467789664161,0.6060322104442691,0.5956288036320407,0.4882740041173236,0.34525935198457197,0.25517713311956475,0.23656102837864587,0.26948763179762464,0.3269456184940133,0.3977235468595557,0.47725530149627404,0.5524367843407689,0.5855865284482702,0.5446724571679588,0.44459812044638153,0.3104590500170742,0.16841654910307147,0.033726315960322446,-0.11807311241885335,-0.3626136131900171,-0.5254582089774382,-0.4958866286835469,-0.4539400834848509,-0.43222698531083686,-0.4463816892626252,-0.47518019270883116,-0.4786638618277201,-0.43232687967800626,-0.3440569764512542,-0.22968328298287177,-0.09477131871979183,0.07904777415895854,0.31074988869204007,0.49071800707696484,0.5232951675699584,0.4187617105113052,0.11859557469909503,-0.34931770903994924,-0.6644192227146763,-0.780043633797357,-0.8039601835158243,-0.7852073099559216,-0.7414578525951845,-0.6879981108318546,-0.6318744787797347,-0.561541252576215,-0.4593631120679061,-0.30869505221848675,-0.1072272273873861,0.11930123932349257,0.3338521752814092,0.5236578631426582,0.6878537690236596,0.8172969559670085,0.9051479050899084,0.9524553168839279,0.9657766667799795,0.9551212921196531,0.9307780920052092,0.9006665294159762,0.8718369854852379,0.8497662387214282,0.8324521184429925,0.8149871211626555,0.7856262138224258,0.7281903230616982,0.651828266491783,0.6046207078918036,0.6040425977641273,0.5979380512316891,0.511103323888628,0.38512523368646046,0.27997178293813224,0.20708366715658985,0.15804961007308452,0.11033401727336466,0.04516510366658097,-0.043880199488308624,-0.15651173092501494,-0.297057832237327,-0.4696263604273555,-0.6680853974131055,-0.8565118261490872,-0.9573940681237442,-0.9184647868969253,-0.756341002330939,-0.5234122826057491,-0.3075642759028425,-0.17244595436077298,-0.11520439326048505,-0.1035472294498377,-0.10959775786501226,-0.11936649625616767,-0.1282343789489969,-0.136100349732345,-0.1483721818703548,-0.16712594521533206,-0.10443025362377387,-0.027235594648062245,0.0037906854258369467,0.02070803934483515,0.03576600920554815,0.056655326138093175,0.0966434314747287,0.18137025446293917,0.3430023332172426,0.5234482779943582,0.5400899081921581,0.42095337390145016,0.2485518208548255,0.029185750350521,-0.2693957486879174,-0.6309773260510998,-0.8460991790390124,-0.8308152996003217,-0.745417291122935,-0.6573340872891514,-0.5696863748374771,-0.478837087019478,-0.39284244802080437,-0.32501866296488613,-0.281847383903924,-0.26520236358930327,-0.2797743017256522,-0.3310210431177663,-0.4218937340998352,-0.4723541240066129,-0.38183166471874574,-0.280262497115303,-0.21479807096101788,-0.18237391584325985,-0.17847931644029433,-0.1945259808413906,-0.21780886460883167,-0.2330558802346109,-0.22049751877985296,-0.16309587303836956,-0.05751596069090231,0.08281058311257612,0.25310666196959314,0.48100269813856744,0.7752897321459239,0.9593894874631135,0.9448419909022857,0.881492380626686,0.8159518508831503,0.7351591115064117,0.6176243740540961,0.44943216033396116,0.24678032053140134,0.06666318505945347,-0.04122315660299,-0.09741722965484215,-0.1450377282869286,-0.1999578987132479,-0.2472716699293726,-0.26855556856808493,-0.24028209377539336,-0.14502276317094673,-0.004234858779027927,0.12149823514535457,0.19758178617186054,0.22552205500906883,0.21610142224745138,0.17518700316368302,0.12395062828057592,0.09340406279508752,0.12427073421147217,0.24873227018400745,0.44159413295615113,0.5988566847506522,0.6621692059982066,0.657941062593867,0.6109982028727121,0.5339699597758915,0.44638105128287126,0.3771870235340239,0.3446396340392486,0.3465881128157262,0.3733610679696026,0.4185721852023984,0.4760312758712441,0.5446046064557263,0.623107490629728,0.700674618035463,0.750442502368285,0.7492778779178774,0.702084020548581,0.6150213942606566,0.4788292725799504,0.2980317556646015,0.11472905245896985,-0.03153189981597041,-0.13530028468798638,-0.20622009917004974,-0.25313828989043824,-0.2782218869153617,-0.28506793398784924,-0.28734718244661767,-0.3117539070584089,-0.3812793652927372,-0.4840422013178527,-0.5700861473370018,-0.6075999641898611,-0.6022483432903759,-0.5703862753433709,-0.5258507293684737,-0.4789540905004523,-0.43155618119623956,-0.38083773402465404,-0.3178470777602703,-0.2375672283804719,-0.15254580161955283,-0.08505252887821539,-0.0543167349183043,-0.09274008863653499,-0.2517849210595483,-0.473937518145397,-0.6318766365871268,-0.7167678494088185,-0.7606217000991966,-0.7796824321303385,-0.77608993286356,-0.743593197603923,-0.6688883337131344,-0.5422422354676163,-0.37551771276099755,-0.20609171016054995,-0.06110537616799192,0.05618479961896575,0.15362766735205338,0.23553351197071432,0.30582968551087636,0.36830286203744356,0.4311161388680185,0.500628382336123,0.5796254376047685,0.6709604220848573,0.7745972015953231,0.8555280619759202,0.7677796657637153,0.5144184396810019,0.335062022786056,0.26732971504882025,0.2787376981153865,0.3462518654088351,0.44520329587169416,0.5427625307981255,0.5998029637935519,0.6036426555722172,0.5862434207970048,0.5681549893561487,0.5229373832772146,0.38608882121639826,0.15956479610024243,-0.08519543736245852,-0.32267235432566943,-0.5201802864223871,-0.6149417565189321,-0.6256618747352801,-0.6284620092348131,-0.6543928626481013,-0.6849850148318406,-0.696822371094387,-0.6787589994191328,-0.6330684195668888,-0.5752429714330086,-0.5267045876077403,-0.5026519894076766,-0.5104937624240973,-0.5493648007468714,-0.6085513055337699,-0.6695313014608272,-0.7138164650797846,-0.7358817441045107,-0.7442534964901446,-0.7554095581101691,-0.7168218598278701,-0.4976309951001113,-0.18854431384517173,-0.020340094462543423,-0.02064744921618205,-0.14618184813929547,-0.3326104013971779,-0.5032084046054375,-0.5971855761584843,-0.5873154382738288,-0.5050890474074511,-0.410511910443275,-0.3289208340643857,-0.24796360885091587,-0.13327630365405266,0.04318700942925076,0.24193681743770873,0.39726737057848516,0.5075590088497114,0.6042823584971587,0.7136196966018717,0.8292660548664355,0.9181107230225708,0.9635737620532739,0.9782871373235955,0.9775118058099228,0.9670345665640222,0.9444692190858153,0.8995334931482285,0.8175653978956249,0.6942807895469384,0.5565676554618647,0.43557875056813966,0.33673429261435733,0.24302316934628737,0.13396251902032527,0.004612217300189234,-0.12795312509903822,-0.2371516081899998,-0.31594348702512604,-0.38952665375271983,-0.48720593734028983,-0.6153915078525651,-0.7487340057012527,-0.842698522762738,-0.8811984280478888,-0.8851276914092197,-0.8833324174432119,-0.8875223291602535,-0.8809932685521752,-0.8513587786287946,-0.8011334274279417,-0.7380842964351965,-0.6827052099537287,-0.6531482492717889,-0.6542412898164351,-0.6779056161642346,-0.707730735967561,-0.722005732423401,-0.7135006389747399,-0.7078092713592892,-0.7243237731061121,-0.7429632558218495,-0.7432535526178325,-0.7376478777871214,-0.7286918258354539,-0.6752659481919805,-0.422114943732065,0.05540718153490133,0.3898445889155012,0.5630076134183567,0.6584511166492537,0.710751254190011,0.7271130282129233,0.7063802570898429,0.6462112277173818,0.5549069091583284,0.46178327676826453,0.3994282554669972,0.3946804445908214,0.4575860637773596,0.5591067718716277,0.6357038590824899,0.6445723845590563,0.5580324136933913,0.37487514476813355,0.1930240159529493,0.11730988416770011,0.1436731393309774,0.2270549797082623,0.3194551913005962,0.37901936169996775,0.37725361620029096,0.2946252385249738,0.13964921969746158,-0.034211656349250386,-0.1669136583743698,-0.2359353001815822,-0.24759224901553903,-0.22906182266536662,-0.21540555702865674,-0.22712171714734108,-0.2668689390842116,-0.3337840636702528,-0.43094182998485886,-0.5740998010028167,-0.7800614487496202,-0.8972271049269032,-0.6508322688717898,-0.4046351259171091,-0.2571752403052927,-0.16310215394289934,-0.09798217510111755,-0.049608808863373516,-0.011520626474941382,0.019536783410493173,0.0446034865120572,0.057825311044549736,0.04651396149988359,-0.0034213238291911597,-0.0888338881551449,-0.19417812754895492,-0.30766412544975713,-0.42740317339830475,-0.5594307843815262,-0.7126126578970692,-0.8701401400004828,-0.8865776843621608,-0.6605502588081043,-0.3916097883887459,-0.1505715328559694,0.0989238975613993,0.33666770866512724,0.500255732510173,0.5829487524484472,0.6166262970808987,0.6454638410818047,0.7209569509111752,0.8258389434715715,0.8910117632801701,0.9060689476454747,0.9028090467110417,0.8998093772192218,0.8994280758513867,0.8987939188166306,0.891434485586717,0.8728597190866442,0.839942125476223,0.7802820093047195,0.6466197967332453,0.3410468310820489,-0.05226652654493731,-0.26442467401263664,-0.32081591915089536,-0.2975262075715814,-0.21784049355929083,-0.07717456730693922,0.1138908438176604,0.3043594254797011,0.4288877740078714,0.4538436174433064,0.4044245519057277,0.3479200323521383,0.3235757922585613,0.30400283011683843,0.2646806900863687,0.20742636976951323,0.1428220309454703,0.08403537023593682,0.04052313295225778,0.015506066968809065,0.008781796844271182,0.0203812998710007,0.05085799048603239,0.10280905900956754,0.17661218104667928,0.26303080324041783,0.3223946772744993,0.04180493253703952,-0.1220148492242127,-0.1548178575319067,-0.12898120885736983,-0.04194075680806315,0.11989916312315578,0.34493588099117345,0.5705733379133363,0.7280340657634295,0.8097340256967643,0.840509664923026,0.8361649539147519,0.7998808640693028,0.7282240768681365,0.616776091102151,0.4652561293172435,0.2735974903847079,0.05810316342843696,-0.11937752909521898,-0.2351846072413134,-0.3235396582389949,-0.41955884659339104,-0.540124925427181,-0.6833935415424958,-0.8208837418224465,-0.9154329034356792,-0.9598898561522532,-0.9702459732208227,-0.9567212122093703,-0.9225762471711171,-0.867939699061838,-0.7931159902103924,-0.7083192466761863,-0.6360420659121349,-0.5916135017934298,-0.5720729660009266,-0.5714931212179762,-0.5811027016525993,-0.5890739113829404,-0.5753896567185878,-0.522891369978495,-0.42131714334217135,-0.27860526962141624,-0.142519839629996,-0.05459279478598655,-0.012568383345274959,0.00011075775973134569,0.005510925331346506,0.027281175394219356,0.07980988420443014,0.1574876763738555,0.23204967727499765,0.2832383034801546,0.31146803567534337,0.32581063924619413,0.32870858694497485,0.31509625406002634,0.2790843231635406,0.22568414909446907,0.16858760041486281,0.12185478070881936,0.10486500822122553,0.1473098543853691,0.27756807394725863,0.4910986089135308,0.7039192234576458,0.8179052016518661,0.8392822392404797,0.8223899060525512,0.7886179444928192,0.7403745650101977,0.6819637760009705,0.6223501734426327,0.5688659813153258,0.5218410179957718,0.4667528944165925,0.382290619747123,0.2571658323682744,0.10814718584483295,-0.027234274500002393,-0.1190309458648989,-0.16442649811648027,-0.17396515677522253,-0.16547631468455748,-0.1545496056741846,-0.15119867044605842,-0.16074685367634778,-0.1964977783317557,-0.2892511435150934,-0.4527398149001228,-0.4309672017887379,-0.2939081428185299,-0.22373234064762137,-0.19848707659360793,-0.20258167261677468,-0.23298602903079005,-0.29272128316323415,-0.38628730757278296,-0.5111722825459596,-0.6256486599088912,-0.6139308445403948,-0.5044353080735856,-0.42113970414714963,-0.3568016457971094,-0.24188900444959832,-0.01415503331008251,0.2872559045966202,0.5303097503595676,0.6609061968540371,0.6918546930106829,0.6212303107813044,0.4502437441333481,0.275091557693466,0.23325727017425973,0.3815036351004926,0.6225618557068511,0.7687395803884917,0.8237504135287259,0.8436148861532108,0.838844612013045,0.7982213676621556,0.7287266598985565,0.670106939245957,0.6567239328650165,0.6994827135206508,0.7780314516343069,0.8553883650817568,0.9043712342315097,0.9232297424436129,0.9220468472266713,0.9057953893619815,0.8729211194555642,0.8205708268942307,0.7522422131551548,0.6666834140984147,0.5374692571849247,0.3276877175665557,0.027815130354123013,-0.3213648385249289,-0.6492328363881644,-0.8474208393956908,-0.8999226013885201,-0.8919188556336066,-0.8710312332451992,-0.8322546817597407,-0.7503939922201331,-0.6671654883224609,-0.6863907483366112,-0.78482762669622,-0.8725185272029792,-0.9174479372053931,-0.9276031121167473,-0.9159000555893941,-0.8943836320394172,-0.8732206355506176,-0.8603743455370403,-0.8629869118422272,-0.8807891603728814,-0.9053675733667862,-0.9113939041891417,-0.8498108060432876,-0.6969492519510531,-0.44190575359247053,-0.20555356678332953,-0.03805060835357562,0.12312605376531154,0.3004023288731032,0.489747027609431,0.6788987014929053,0.8357784206687315,0.9228898349550034,0.9338230226660458,0.8843335041517997,0.7925779283644085,0.6715722359432876,0.5227519374789051,0.34189056229357756,0.1423645382030724,-0.0348935369367291,-0.15433629793029263,-0.20830552797657742,-0.21099825416192244,-0.18839453199779385,-0.16714857471754313,-0.16150368633681692,-0.16936875611971552,-0.18669190128071125,-0.2097092911793691,-0.23632354353260357,-0.2618899226324463,-0.2808699483897264,-0.29054297420550856,-0.2958257527042473,-0.3021086850370344,-0.3121159293827783,-0.3154800366669956,-0.29896567213207675,-0.2575052422911288,-0.19328014310439176,-0.12052415395495568,-0.07300378005679621,-0.07106250778037429,-0.10643840404906221,-0.16892747002221678,-0.2461229426354779,-0.31805058426658317,-0.34783499032439097,-0.28770251451688134,-0.09566370680802538,0.19744733915870621,0.46881589848339367,0.6458390909948524,0.7245975404406216,0.731126948060552,0.721957702069136,0.736430549417038,0.775300717403634,0.8303417210434351,0.8905291133798192,0.9192095219026097,0.7945878238043206,0.4728199143436196,0.19538429710035546,0.06988762755996336,0.11096625180727264,0.3351441976823157,0.6121467378731555,0.7407417770190591,0.7568567747466418,0.7364160585135702,0.7081620754937888,0.6796847827027561,0.6467654624938179,0.5408043069090389,0.005669540092292236,-0.2824118300503819,-0.37031257848343796,-0.43890708949594276,-0.5164640895463317,-0.5965361865557365,-0.661373766354506,-0.6882583192047629,-0.6282091807856555,-0.49802954939708644,-0.39712649738901695,-0.31524397302582385,-0.23213554451670085,-0.17231557450303156,-0.13381217371184567,-0.10494098015767027,-0.0770844902137705,-0.04392993539005512,-0.003463790490031485,0.02854856369552387,0.007332657312780911,-0.0668434288925384,-0.1486450248067365,-0.2049813491009225,-0.21486659546638232,-0.1704045713656969,-0.09105105806456566,-0.037923490468095816,-0.09238732116125979,-0.28128160782561007,-0.5127258014254156,-0.6723022135158696,-0.7492455978821249,-0.7739557036187398,-0.758455508281279,-0.694732313014453,-0.5604684809903847,-0.3306362552787341,-0.01605466897729527,0.2923715757613423,0.5128440421445745,0.6368395507912017,0.6896516903250757,0.6871936892241465,0.5965733728549713,0.3593863404407828,0.07591991217297839,-0.07843150482951705,-0.12099395987606268,-0.11084527400417676,-0.0720551021967848,-0.009932191962907838,0.07473656215326363,0.16904847862124048,0.23740644362820845,0.26373361277513757,0.2649386003222242,0.2525444345606982,0.22226601095264265,0.140441671871353,-0.04623506763193839,-0.19017489456619413,-0.24081302022315826,-0.2609272553011514,-0.27433931406403195,-0.28748832112515504,-0.303622806122975,-0.3228528575324998,-0.34017244016940723,-0.34696097579494534,-0.3350270181850677,-0.3128688294441302,-0.30959177767860857,-0.3660400104725386,-0.4990969053538449,-0.6548731065999029,-0.7368934778933258,-0.7575844055382,-0.7714216084929092,-0.7880706479121633,-0.7813597043312765,-0.7264329701435921,-0.6368434022143648,-0.5374720822523277,-0.4350035012373486,-0.317429744038021,-0.1372487233350536,0.19741240096506718,0.39542378699613934,0.38715305661324845,0.35412941400445036,0.33314327437796976,0.3329668355590623,0.37249931037424,0.4906885184745857,0.7096002175071132,0.8767937979655009,0.9053418531391044,0.9049513528396541,0.9149728562337387,0.933242465315112,0.9520600094743609,0.9652227767378586,0.9717783698334937,0.9736449658321868,0.9694288383015943,0.952186551756912,0.9150734531676786,0.8608499741802003,0.7930591514876328,0.6893244521102028,0.550223038411825,0.42599712958780694,0.32141191573663386,0.20925544017996164,0.06962053816321324,-0.08132894944161681,-0.19963494944521806,-0.26117057050561354,-0.2859380184384585,-0.306268394016295,-0.3437827351860821,-0.40475995830201167,-0.48521501808682205,-0.5696867681107615,-0.6332745478629178,-0.6517246353560695,-0.6155467495253121,-0.5327439886877784,-0.43761303134707924,-0.3705310653302439,-0.350818745313207,-0.37890117060281453,-0.4386422493262436,-0.5057653635664746,-0.5599339019145184,-0.5999607746860978,-0.641177739271036,-0.6900828388812751,-0.7244529409760453,-0.6932634321922478,-0.5743187562059601,-0.41502578219007114,-0.27428918938871716,-0.17721717452971053,-0.12883162768946974,-0.11981649078739351,-0.136669029165106,-0.16442151805856908,-0.1899685063000653,-0.2052317457073647,-0.20271371786517003,-0.1767007118338084,-0.11620606019756102,-0.00788185447370747,0.18622448432424918,0.45442124445290566,0.6033598041955658,0.6233361161859086,0.6251813679822383,0.6393187316070665,0.6712288649011435,0.7256609450990971,0.8027508964789944,0.8815302025527877,0.9331171746594088,0.9525268203914455,0.9567915803882561,0.9580297590409914,0.957847670463661,0.9484379651994924,0.9174026427089005,0.8531465096113362,0.7560559414306074,0.6445957236653268,0.5390002945482958,0.4386291193738987,0.32732535053464107,0.18360333165504494,-0.009642800535754196,-0.25840240520923996,-0.51303763991182,-0.6990718416220146,-0.803959508380648,-0.8479825519386504,-0.8597661407095064,-0.8696155817354871,-0.8919942088854614,-0.9211320613131145,-0.9472758736752672,-0.9660496967576832,-0.976951531575074,-0.9804113721406728,-0.9781230237565045,-0.9720883031604998,-0.96183631851072,-0.9384402366705875,-0.8691529768499077,-0.6073741989272466,0.15908348162471506,0.7064934024224324,0.8761767181083113,0.936984569356182,0.963148883709425,0.9749139307921751,0.979541210614987,0.9760376225011137,0.9483560545156104,0.8607305675546986,0.7042989958627629,0.5328639823073005,0.3915098134752751,0.29833908248724195,0.2682028346384373,0.3027344478597367,0.356413662075448,0.3022120742706376,0.14638184707336255,-0.03851123320381297,-0.21637535922579115,-0.3637112315960146,-0.4609919508162022,-0.5108568023233555,-0.5312065379915861,-0.5393449988536073,-0.5516916099900794,-0.5812614773841839,-0.6345255477687235,-0.7110263929859046,-0.795592595459054,-0.8512854593595757,-0.8543201611567731,-0.8304609405850488,-0.8052431247771167,-0.7820883536706726,-0.7548853297625225,-0.5946377006335989,-0.15615766404089304,0.06817122623057072,0.14631623232314658,0.186053273797097,0.23033851685048376,0.31298470895059005,0.4869655072590983,0.7250043428735464,0.7472685260852309,0.6909504528682415,0.6751149208635634,0.6816998528992301,0.6913026176919247,0.6942557074602118,0.6860792437674641,0.6600658687583748,0.5991621339167682,0.4795563999991262,0.28715608513290364,0.055408838549250994,-0.14805310244890774,-0.2822825330758276,-0.3512620926016807,-0.37952186069474536,-0.39021272022628406,-0.40285313916799514,-0.4376097635542681,-0.5397461003540958,-0.5624195033180316,-0.20893182281345296,-0.09729241321686553,-0.0712370391900354,-0.07142177938520068,-0.08280148354723478,-0.1025616309087516,-0.13388971881530926,-0.1890288596690499,-0.28797823581432824,-0.4010397779398937,-0.41225630413448294,-0.3645746632606964,-0.30458259608120936,-0.21056743123358077,-0.06362408667909389,0.1109407640475195,0.26065687130604354,0.3360325156787965,0.3493461047639075,0.3395644850173388,0.3317389066896883,0.34156769800871395,0.4012701815106375,0.550860966599176,0.7242638905110709,0.7776399582611296,0.7634876178531822,0.7413688784272406,0.7138111662553783,0.665097523274994,0.5839792434825535,0.48035976994953306,0.37518855288471725,0.28419648281175525,0.20303476319582392,0.13075455709507428,0.06958208200728622,0.025467760739049463,-0.004614367272873755,-0.0234807174584379,-0.036059450189409606,-0.044061135157940794,-0.04465002450211343,-0.03322168860004317,-0.01152034710410522,0.0162083370725203,0.04454624468187116,0.06718900210881318,0.07911122861716866,0.07854263934908362,0.06665683044452006,0.037120318202574304,-0.00650610997082156,-0.05959719075423894,-0.11382068487882674,-0.16580628939762726,-0.21059769154474542,-0.2359358682492929,-0.22606601937146037,-0.15981082588544251,0.04552671546524707,0.15376319578596434,0.11160213535140985,0.06555208227105244,0.02185938695053123,-0.0229286387196704,-0.07606090687813644,-0.15547455304733016,-0.29615319214391905,-0.3730095439400596,-0.30406513460131374,-0.25646871062972887,-0.23354583725586575,-0.21980042327815,-0.20748803108130826,-0.19541564857903343,-0.17824414379824957,-0.1441218013654878,-0.08375947425517427,0.008634782343312756,0.1316204872306034,0.26945641200086834,0.3981172079853489,0.49764061681182276,0.5745108612991651,0.6684641071364391,0.7949175664764282,0.8681851192405768,0.8451180858465248,0.7552278396526207,0.5669548644562507,0.37333606142324216,0.25464721649577443,0.2064765820791309,0.22077811014579107,0.291597904411843,0.399364506857416,0.502576540673344,0.5787823511853563,0.6245758022870107,0.6427987245758283,0.6365590253257555,0.6128116296941007,0.5768565238178022,0.5372814374553595,0.4979946662790378,0.4489050561926911,0.3705445520931763,0.2359924529899836,0.025861842001322414,-0.2289973536892628,-0.4565106731668754,-0.6203013213642737,-0.7130184161068314,-0.7350239883023214,-0.6907445651586751,-0.5885775493963711,-0.4606061567442031,-0.3646929363746733,-0.3391585633327055,-0.38217162608135763,-0.46978468380633404,-0.572050626021591,-0.65987314015289,-0.7182116244945679,-0.7410464889795342,-0.7163574385544408,-0.5897727924175615,-0.27544240965848743,0.09483957802963239,0.30263679191332327,0.3601698869838439,0.3151983952157671,0.19231155718272247,0.03440595838654763,-0.10317622145417794,-0.17422241477678024,-0.1688871732550593,-0.0918960005121705,0.042621680750517046,0.2210761345816099,0.41796924246304357,0.5114000490309296,0.35233749700236355,0.14221166587088296,-0.021676448485429583,-0.16102936382270733,-0.291499003143621,-0.3894979431774037,-0.4191359312553523,-0.39542662612632945,-0.3833435852859204,-0.41417036453677014,-0.47570473295389476,-0.5497723798796905,-0.622598843323251,-0.6701303324736255,-0.6266157159018256,-0.3425430660062619,0.18160802906594462,0.5886518987399396,0.8083238408196544,0.91578631146537,0.9630134985556514,0.9727354898709174,0.94742655097798,0.8653558499383964,0.678784469116526,0.3806324502192473,0.08898406716006595,-0.10949211210823137,-0.230049118282381,-0.3075543246669802,-0.37116382347097543,-0.4483342561802692,-0.5546592662633005,-0.6537424290762683,-0.6968375799616898,-0.6992668156208955,-0.6814310077125916,-0.6487381738405081,-0.5949022135180045,-0.5063816264128871,-0.3798479146300943,-0.21192764448711687,0.09670400728988705,0.4709806884003652,0.3663232820771495,0.29513402074247114,0.2586389225957163,0.24814903856480164,0.2677898600054875,0.3238697847553963,0.4179659322058085,0.5347255092783186,0.6383645486785379,0.7024230230791125,0.7253258244589634,0.7076584771877928,0.5278966337193641,-0.38640116873862296,-0.5163842568645324,-0.5088995291315427,-0.4968148790018044,-0.499254146219567,-0.5104776461519216,-0.5096935098331489,-0.49519706719467377,-0.48552815259751253,-0.485188684305505,-0.47990621612150347,-0.45431096855954406,-0.39947795119257223,-0.322218031248074,-0.2457420216085647,-0.20001985055108018,-0.19063001852401265,-0.1840947975763247,-0.06792135091873291,0.28925755642763434,0.6602232167137557,0.8149078908707662,0.8749011554873852,0.9108497584383828,0.9290814166838055,0.9073862887655012,0.8411447239314913,0.7775905675118203,0.7538143993220101,0.7614979296172559,0.7776751770388572,0.7848820946357833,0.7602545469842816,0.6681009586320964,0.4768087248772485,0.2292862904959704,0.025514656524258744,-0.1007119802004239,-0.16944673149992384,-0.20619591304214646,-0.22842128549259777,-0.24670605209972427,-0.26887556031642523,-0.31024680193275594,-0.45127977983547424,-0.4510153355942875,-0.2029782825717044,-0.1759561513261931,-0.18904050637352401,-0.20817265595286488,-0.22119907456150706,-0.2204598395667595,-0.20348394044723989,-0.17435123301287725,-0.14395770873978755,-0.1247957592965293,-0.1275093969497488,-0.16088154351283354,-0.23538870275000925,-0.3603081238289719,-0.5169568839834748,-0.6440704910663673,-0.6898906842108479,-0.6397870084972592,-0.44332434215153477,-0.0769459207551895,0.13675578946928607,0.12162829323239646,0.02288434326252628,-0.08655295789983374,-0.19611521060021042,-0.3187403494201282,-0.45886555111144156,-0.5263873418042544,-0.33018144894233453,0.06196097272045128,0.4700832521844584,0.7844672835040486,0.9380508962741894,0.9811753016508709,0.9859597310013511,0.982816080670692,0.9760933674561186,0.9617918295710611,0.9340458648488448,0.8894282692042825,0.8314494354951253,0.7660380371693164,0.6932256165142188,0.6087254899216981,0.5098736154179079,0.39821736713169875,0.2817880461946327,0.16156047404198273,0.02860059928312901,-0.13557174231714503,-0.3565306766757608,-0.6451209300563091,-0.8829411185290248,-0.9003019790610032,-0.7791674631922744,-0.6382396652766921,-0.5471504556494668,-0.5602877520731758,-0.6747798144353198,-0.8083162465118484,-0.8904366849451997,-0.9222306829471854,-0.9218765120791483,-0.898253757256716,-0.8567626806273946,-0.8066918456393485,-0.7545129503493323,-0.7000238237638151,-0.633083847946047,-0.5365751324845331,-0.38168981684448144,-0.1813581228728468,0.004202056491172857,0.15195796584600543,0.26712228629762197,0.34182253701485743,0.361445454447109,0.3287294737367448,0.26893821591614003,0.21349161992798804,0.18169585293468113,0.18070990859899128,0.20721126708691212,0.2514393365261782,0.3030017749051361,0.3496458126800011,0.3836937616452831,0.403310091592655,0.4008521895741987,0.31373777594631225,0.13094571321516899,0.0017681994747950364,-0.06479037491899367,-0.09150643391363883,-0.081308902249672,-0.034770796146157384,0.04396740468242661,0.14581403183067035,0.25951255111543275,0.3728211664654981,0.46626463456301254,0.47636627707514273,0.24280287799234304,-0.12269522123812583,-0.3286931526118695,-0.34541393702929113,-0.20064918980019203,-0.07252812021330957,-0.02299586832094036,-0.03686831824314095,-0.08776696957436864,-0.14701168849781784,-0.2012229968235671,-0.2557112167894102,-0.32654050721596617,-0.4401107546867373,-0.6104831860894885,-0.5537256684067144,-0.33715485931748523,-0.23656230148638077,-0.19836957488365206,-0.18991490399106284,-0.2011712551373341,-0.23324818848466553,-0.2955442914391407,-0.4076202644109503,-0.5807481007279812,-0.7271083380884683,-0.7431088152162979,-0.7029808700471515,-0.6509654196666923,-0.5732960509209969,-0.4461470551375855,-0.26947654282610445,-0.09404453697198556,0.02654569779975387,0.0832381739794224,0.09825971705557261,0.10166060614312218,0.12430286914189057,0.19317999830418447,0.32011746225825255,0.4700469042673431,0.564580694518034,0.5640597867686655,0.49999741592439484,0.42542434579927596,0.37364762552480696,0.35169535920968753,0.360585094040388,0.3991324125789141,0.44952352845386456,0.46603254593880244,0.4338650569885217,0.3563255365287307,0.23699639041439408,0.04376756582458994,-0.32125913130724154,-0.7128417767163433,-0.8259900965890816,-0.8489828840565293,-0.8569406111304091,-0.8633815372293518,-0.8741088113707651,-0.8771363600072748,-0.8606255106609453,-0.839109960808395,-0.8289631616890226,-0.7102230666005853,-0.2634501724265702,0.07717436608324874,0.2748100681300238,0.42567918695847196,0.5528307813856917,0.6509170878945335,0.7205081386854416,0.7680776777179181,0.8017769323746784,0.8286885399040397,0.8492310162209545,0.8624191533745318,0.8672950175722115,0.8638595684791698,0.8495383575646297,0.8174031679722777,0.7567395260245338,0.6569550227265779,0.5167750841889178,0.3462461933395092,0.16710140791750205,0.001771259267510475,-0.13380631688542635,-0.22316237909751743,-0.2596920673783034,-0.25141448647441195,-0.2246493859883697,-0.21850635127809187,-0.24775389176918,-0.2953491499706102,-0.34374655709555413,-0.3969912019625266,-0.4989232001797573,-0.7045110003102798,-0.8751958581816932,-0.8352490504267547,-0.7108148828400463,-0.5687798385604382,-0.4357055545055398,-0.3270328291530239,-0.24046763653432734,-0.1767224957037394,-0.13483319926009593,-0.11310557027471342,-0.1035802405109104,-0.10166018852270789,-0.10664138058105165,-0.11251367267717585,-0.0943899103314605,-0.015661853409079378,0.15582757960964036,0.3999639146322739,0.5695806620799865,0.6017300912301949,0.5549630195625154,0.46338419408710685,0.34507453660573834,0.2210968605396031,0.1114599676752426,0.02607020557109113,-0.041218586678250096,-0.09895973521380064,-0.14874214290443843,-0.18596893020560268,-0.2101347653740427,-0.23650987428702383,-0.29692946233920486,-0.43066242806154525,-0.6349729740403502,-0.8097391121772788,-0.8869416191335883,-0.885904005905108,-0.7688845593713821,-0.24016993053269997,0.5407460074764676,0.7854697007059416,0.8408091804089767,0.8502769658286402,0.8530279400532969,0.8681330354308069,0.9004679380470686,0.9378778592979721,0.9680886155923514,0.986653244154302,0.9897578977257997,0.9749634364622146,0.926456862340026,0.7925435149528071,0.545976916487426,0.27484036919862187,0.058976581890755685,-0.09271823888298207,-0.19040406887487937,-0.25044968737338674,-0.2957130090561883,-0.36142462519976504,-0.495931868503837,-0.7257721765512005,-0.9272112779883275,-0.9603515080848786,-0.9189211172654619,-0.8821037869296972,-0.865026329185789,-0.866429188928273,-0.8798250148349872,-0.8957422222854319,-0.908344973648047,-0.9186022674675115,-0.9315761362013437,-0.9501939154226636,-0.9689584677493916,-0.957564648014215,-0.8610996753289607,-0.6795518143513872,-0.47846676086231654,-0.2695208255565305,-0.0022825373564522287,0.3405720469854007,0.6558914880934216,0.8465129360207931,0.9368274815784633,0.9714062613879473,0.9714200947380499,0.9406418043515556,0.8613926404885329,0.64869475280972,0.1661410104167239,-0.3018446929085714,-0.5004788387264129,-0.5206188535944971,-0.26472312418334326,0.7419341989641836,0.9103566241686712,0.8788336902690868,0.8421455316887141,0.8093583779051475,0.7825373457903183,0.7605932544640188,0.7330448459274502,0.6710147813280729,0.5549777520342455,0.42350332279662994,0.30465195030625414,0.15650763367302054,-0.09818533601352415,-0.3386531036852437,-0.4165160719630952,-0.4237629255418294,-0.3985405529186151,-0.33748597045649054,-0.24450762035902718,-0.17917032563987892,-0.16253307615495854,-0.15882306883825026,-0.14193672350557904,-0.1008206281579769,-0.04440528483989063,0.008603142322708864,0.04214534474319883,0.052511895808506265,0.049882989152686054,0.05340671455170437,0.08496122666423407,0.17629288356764725,0.36351106131539085,0.6495075920901325,0.8921665886237017,0.8450454302843752,0.5696856737905536,0.27780063808126854,0.05652627754044606,-0.09210217961547514,-0.18787773189621793,-0.24828412967845534,-0.2848018424833003,-0.30494534028316306,-0.3152135431745268,-0.3214941115332508,-0.3249853048010909,-0.3276842702136746,-0.3346516878684775,-0.35105769380252044,-0.37427102690956615,-0.38649609888937003,-0.37473317158712977,-0.33691654328314397,-0.286686138279344,-0.25561252462301487,-0.2729129173454661,-0.3384856378226792,-0.4180159989709321,-0.4611626875253824,-0.4527537714684933,-0.4045027753273742,-0.32083810577394645,-0.19736037733763248,-0.0007728972145695155,0.3155048390000076,0.6871084741477954,0.9136855268381585,0.9719376086235517,0.94312369958373,0.8749982001100522,0.7762896370182635,0.5759776820401042,0.05327659052721542,-0.46587588034534994,-0.6280223909996028,-0.6267983420350568,-0.5308819824777383,-0.3987921413561761,-0.2776883649849343,-0.17901233635427788,-0.1028611289350468,-0.02952474287952382,0.06512036108006365,0.1819173242665756,0.29007299934013603,0.3531338037925466,0.3664124632780312,0.3364905490905549,0.2589260507173717,0.14127221892595657,0.02038195722537622,-0.06761004951922048,-0.12180788315197187,-0.15951952677533413,-0.20739470828100698,-0.27426638306333895,-0.31516846519696945,-0.3093924838545924,-0.2747662237446807,-0.23009657962503965,-0.18304724476670828,-0.14544282860268143,-0.12201362265781344,-0.10055748084888408,-0.06583883178652446,-0.0035034371050773126,0.09381842254355106,0.20255257546868569,0.29760074739919334,0.41017395876863916,0.5559236535377604,0.6574688054768821,0.6677845889480694,0.6385136144293415,0.5995833575349669,0.5545829225849512,0.5028944595888524,0.44780543544403917,0.39235848222510505,0.3377864686329956,0.28611921894211595,0.2416557777780081,0.208060508876458,0.1936184412241906,0.19210847732287234,0.11184525506964384,0.08345740949202617,0.08877870108884106,0.09996057980766371,0.10575138575825913,0.09719872678964088,0.05928763801740003,-0.023775304674686897,-0.15228457648086421,-0.3018935544781076,-0.45541928735566695,-0.6277294127748213,-0.824374250663182,-0.9629521821332229,-0.9451810097074227,-0.8539132066656516,-0.7734701425225834,-0.7148304646646402,-0.6725891666075141,-0.6428269588908467,-0.6202362413840155,-0.5939663968556199,-0.549339041775179,-0.4707529412598331,-0.3475289694619444,-0.17219890853870637,0.05668971545779984,0.31244254168505214,0.5247893390922334,0.6530120842694893,0.7044548595405098,0.6988481520634967,0.6535130542327918,0.581098043263313,0.4983971110693904,0.42448948363820294,0.37197081331473447,0.34125044430870144,0.32707078488388275,0.32126064060560866,0.31261329785320247,0.288030545508973,0.2383845922053122,0.16714379423749753,0.08350525937934213,-0.014719798435220113,-0.14964846622071587,-0.3487642452429018,-0.5836644654245872,-0.7745714772146188,-0.8897807909659945,-0.932887834903676,-0.9060137691080075,-0.8268099941063402,-0.7222034721241933,-0.6134436897386027,-0.5125244504161534,-0.41918686378574077,-0.32692998795101286,-0.22978672724715804,-0.13063081827313908,-0.038201975620272374,0.04225573639464229,0.1142773287286981,0.18986145389882142,0.29017097712561213,0.46853878940438676,0.8129257533050019,0.7212581471179269,0.43394651365280545,0.30519261874384707,0.24676494568986573,0.22502662366630108,0.22898827643914002,0.2536778877106333,0.287351881868967,0.3031923004499347,0.27994778950592736,0.22239668680150365,0.1505908328128869,0.07825804555563388,0.02144936857343012,0.006173344318744611,0.1113517049978871,0.23051278333165026,0.2526232308717606,0.20753720601036363,0.1129367421989514,0.0007997131322810008,-0.0959395677981388,-0.1719898068955858,-0.2346152082336913,-0.2913636413745164,-0.3502215562192302,-0.42415265158008375,-0.5278080979361164,-0.6058227129650868,-0.47148942944473693,-0.25514249724598587,-0.09054914683002588,0.03388081888582067,0.13160631504564715,0.20116421266211415,0.2353612559245026,0.22974783271727492,0.18919359129461513,0.13196282006224777,0.08378818877685638,0.06696678583261204,0.09481112222593915,0.17065539954581505,0.28928959901446377,0.4339850295764235,0.5504537552502495,0.5327450154555582,0.35679140395891473,0.164590342605726,0.04532555407175697,0.003867926156660855,0.025466463338149233,0.08341635698768317,0.13418996640298295,0.13131095031849066,0.012124001100826697,-0.233135336301815,-0.4828728930871276,-0.644293979137936,-0.7325121529575331,-0.7761562284446528,-0.7882504943222979,-0.7725939448707652,-0.7285942968093705,-0.6616289816668447,-0.5793159517288086,-0.48739577916174615,-0.3839385632806322,-0.2685016763590835,-0.13662627107444422,0.022233179054689422,0.19506983465585284,0.3496716421720467,0.45627461965896093,0.5029311050811454,0.4901370097102066,0.4362898476835709,0.37408071363098094,0.31988900045384583,0.2711002005042482,0.22041389944043271,0.13755781145395665,-0.02302524895708689,-0.2671881248187458,-0.49450842262080824,-0.6245445368516275,-0.6882405181870677,-0.7210388307655674,-0.7347820139530747,-0.730523330242283,-0.702046693421546,-0.6408124012985484,-0.539679064593822,-0.40226950179481497,-0.23806888628856107,-0.06351210650510297,0.1024076172085996,0.24427862090521624,0.3595364938457711,0.45867949652900636,0.561242825327169,0.6816414058157406,0.8071812844998985,0.9005326512620229,0.9453583336106234,0.9601614558049554,0.9654057530682824,0.9691230800856502,0.973082989141838,0.9782192687264248,0.9840853031813337,0.987342605720523,0.97633497506899,0.9033485289720647,0.5399014338534291,-0.2789315958769187,-0.7029194009164714,-0.8411723049507455,-0.8967658938528015,-0.9246754180636434,-0.9386685015554695,-0.9419237006752299,-0.9358978068962671,-0.9210963479359835,-0.8935611820227503,-0.8453612790053107,-0.7704184433731099,-0.6738127837435031,-0.5622067444115416,-0.4180599092779025,-0.19879618299869678,0.08635846982534823,0.3284109748600408,0.4702823330734545,0.5336298506636392,0.5286827533953754,0.469189727218889,0.39129524263967164,0.3549986899236781,0.40398040537586544,0.5398265057703645,0.706865898226156,0.8359657520478856,0.9130269664357151,0.9505912402605596,0.9595720129018659,0.9368197790945755,0.8593986462196709,0.699861417979293,0.4968546872329201,0.3168209056196715,0.16095495245535082,0.0011986183096338995,-0.1704578856980883,-0.3393714601385876,-0.48945322890433796,-0.6117434147042525,-0.708043586562002,-0.7912569624484876,-0.8686434521674797,-0.9326182089149199,-0.962957306795029,-0.934975880965784,-0.8476392932770623,-0.7346802637568205,-0.6313535596686064,-0.5505738397869594,-0.4660471811222224,-0.33679413256636853,-0.13787281071146407,0.09880944021698825,0.2950362871579129,0.41534691335662677,0.4717520458064733,0.4797062954943969,0.45120312907344434,0.40644355966568524,0.3572141641450439,0.29965650385008835,0.2268699243712147,0.14545015538653158,0.07432992758639974,0.0362202642774834,0.04047098844782618,0.08228419528916334,0.1456746214712249,0.19277951249737962,0.18277358727488585,0.12854141676690187,0.049847806499694475,-0.04191144864704353,-0.1336160436673693,-0.21261875659686816,-0.27142741642318,-0.30778890501693124,-0.31847120290238834,-0.29618413318821163,-0.22973238776863872,-0.10925651677280895,0.041932399652273786,0.12478617230881217,0.03410825801853543,-0.18586485172317477,-0.32212324702487644,-0.3292328247706331,-0.2749566428596671,-0.20919734315402852,-0.1554880570610517,-0.11205851852565304,-0.057480222440269096,0.049674373852179904,0.27455884633619326,0.6147714206861667,0.8625517764844146,0.9534396001277938,0.975622497657791,0.9772825914862542,0.972356735883567,0.961975396535125,0.9404328448716474,0.8942106399501475,0.8025642182701143,0.6564867247077155,0.4849304705604931,0.3346581084380151,0.228078643193712,0.15533425228608114,0.09117832864801169,-0.0024611804461457643,-0.17120831066722367,-0.30245396987303214,-0.32613071391735976,-0.34254600339189,-0.38889470296635764,-0.47082790860153595,-0.5439885909840694,-0.581389456300686,-0.6168643528530267,-0.6576548318144535,-0.6828437792623632,-0.6933853608484759,-0.7214265414278476,-0.7761865968127356,-0.7800363057188483,-0.7003437054340491,-0.641793387886904,-0.6288949423533201,-0.6428695147645166,-0.6623304996770818,-0.6685109214765675,-0.6529201356027963,-0.6237649849145445,-0.6031486232780812,-0.6127852782428774,-0.5391043859332578,-0.13142049364354502,0.06868050792380584,0.14743393850480307,0.18846433784455383,0.19589131533320264,0.12285561192695688,-0.1304939987785381,-0.4594712704615018,-0.5910112190748296,-0.6100653576248921,-0.596448246926825,-0.574171863332674,-0.5454979231162111,-0.5039987059190117,-0.440807612096414,-0.3596225985131985,-0.2721424298586349,-0.17605290068033544,-0.0626013257900681,0.0708646471054858,0.21156655636282742,0.33197819849403765,0.4188186022452536,0.47972321827666964,0.524972148656605,0.5551986323363003,0.5761217173072087,0.5991584261235046,0.6389206527380092,0.7040794003020211,0.7745652603395872,0.7807294501720384,0.7101945245204969,0.5764848205250301,0.33031247398403135,-0.018679259540679016,-0.2746217059076305,-0.38355602821172363,-0.41352285144068895,-0.41598793851019733,-0.4160502193830922,-0.42490481316137957,-0.4473037134944965,-0.48622505492404455,-0.5022671524929191,-0.16380467955195857,0.06180918625228648,0.11849541178476078,0.12676180899819744,0.124755951998513,0.1344182426806849,0.16744255175479092,0.21565898634224856,0.25577328148171713,0.28186791657720134,0.30048436181545857,0.3238779681527243,0.36860355672026807,0.44728303020625243,0.5406702838745133,0.6016932532360665,0.625922538669129,0.6382668595072585,0.6500524032998342,0.658357707605698,0.6537278810049103,0.6214218285063615,0.5537957874697398,0.46331294499839804,0.38814124130042166,0.3653105405361989,0.39186636920353896,0.43069387326839104,0.4545408906675679,0.4547437766175766,0.4281910168791402,0.3831963395410837,0.33789377676835086,0.31011726421428193,0.30500421410304357,0.2947483410699133,0.19335283841676693,-0.026682029731166252,-0.24361410829486388,-0.41545299747325365,-0.5563834854534119,-0.6604037053042806,-0.6650959263031133,-0.5340309252298646,-0.3924392370560757,-0.3300545826922491,-0.34734253586592173,-0.4211920978840123,-0.49966923304077243,-0.5105617364557384,-0.43668685151726827,-0.3353415925619433,-0.2512980721358447,-0.20316567091247575,-0.19374411826731663,-0.2159114248774725,-0.25580062737636594,-0.29781444204128554,-0.33402984993537516,-0.36050307678846927,-0.3809573417428759,-0.39760291399060627,-0.4098092200914289,-0.41405976754441887,-0.41059855596775735,-0.4001324815486553,-0.3867919364319794,-0.3764271236598516,-0.3761787162400878,-0.388804373766537,-0.4109552619291684,-0.42900230023360775,-0.394186650000319,-0.2784163008503493,-0.16291782969152235,-0.09230694394679143,-0.05492233127765124,-0.035916250757243126,-0.027264229857842236,-0.025493251992578046,-0.029900238052130143,-0.04201156823234052,-0.06425031492334804,-0.09350526050645071,-0.11390660720902109,-0.11601922536946806,-0.10494309924906149,-0.07975874250947892,-0.02688541684043935,0.08027217074317138,0.24331683329971235,0.3777619584382947,0.4382673214655982,0.4562565282468736,0.4621847625635531,0.46963402320559083,0.4855017685004115,0.5083354260943637,0.5278734208082805,0.5406961061595913,0.5535372922923034,0.5684628175371783,0.585760857147803,0.6014604043504193,0.609587078663494,0.6110604756959649,0.6069178508333961,0.5929554747448441,0.5663785488224934,0.526003119811953,0.46343065787137533,0.37323018726240453,0.2782159862002425,0.20660635806604025,0.1677963734274046,0.1535661663193368,0.13297579747249305,0.05064748691675235,-0.09750836730241982,-0.22612148070617397,-0.3150061477092937,-0.3783154580533134,-0.4166804050769362,-0.41661566262413935,-0.36269614037821113,-0.25936519117978724,-0.13259895234789534,0.0058835112230408255,0.15634018638943242,0.30819857682007,0.4623610719291491,0.6407688787270847,0.8151244317109886,0.915583148964091,0.952333467746537,0.9638326588729701,0.9656187495490889,0.9595247459267213,0.9289808980761448,0.7475374995423079,-0.2791778146434294,-0.8056921129291534,-0.8877505608503152,-0.8996059415422936,-0.8910632664864248,-0.8710916588910571,-0.8363788152270426,-0.7862338703127991,-0.7419776194271648,-0.7375159115783176,-0.7777051207082065,-0.8140385726545804,-0.8134065288197433,-0.7900198805605315,-0.7776796128579515,-0.7913365686531395,-0.8190419769076541,-0.8436357171487137,-0.8547954244853798,-0.8493075793342544,-0.8242155739126212,-0.7735952877300453,-0.6651594846007587,-0.39854600463081274,0.18020147772944314,0.6610745764252813,0.8084012483417433,0.8350826104427893,0.8162232369319357,0.7508002427463369,0.6006910425476715,0.3256157761011572,0.032419164604930946,-0.138957039136497,-0.1742197710642631,-0.05579831278205314,0.24239944617527454,0.5768447801818897,0.6967171201041452,0.6936112704585982,0.6475532548469376,0.5713609286665198,0.4715896985888567,0.34978527509815377,0.19333796361549654,-0.002085717105917865,-0.21273165376603476,-0.39828587567796353,-0.5385719628217919,-0.6377652493203789,-0.6955812513903671,-0.675231222217922,-0.5062316014086283,-0.23425473682752312,-0.014738238647327519,0.12122227643855067,0.2043369305344384,0.2607720459810694,0.3104651486376399,0.3728467157690251,0.47306921477023356,0.609020884705393,0.6187406258604136,0.5336743449185999,0.5068502151194467,0.5597073555683749,0.6566113653494682,0.6280106755346547,0.6076233590363355,0.6248086397884005,0.6313453765384041,0.6100740821853784,0.5473983369188079,0.3806204720929094,-0.023797493120351454,-0.4973809447149521,-0.7251244709376024,-0.8216239512618592,-0.862390552249185,-0.8125741016416819,-0.582629610537248,-0.36751395345900084,-0.34507458672697605,-0.4763652567556427,-0.6383591252114125,-0.7306671674959712,-0.7602831013329051,-0.7599680977929018,-0.7449414406016892,-0.7131236433077922,-0.6623946660182469,-0.5987737241140834,-0.5347818846211444,-0.4660187882822733,-0.37126668546216374,-0.25625211387485075,-0.1380038198723371,-0.03717983426376967,0.018923113405892446,0.018633475719100435,-0.031410145564794725,-0.12253376654340169,-0.23151194398564814,-0.3155611583274226,-0.33615725110884853,-0.2452891751954821,0.1489379274530419,0.6410980418260972,0.6948447579899354,0.704355087965656,0.7306183678157457,0.7618886455234066,0.7868273900308258,0.8038414025496595,0.8135393438066811,0.8153370542708775,0.8059925892752688,0.778888447171872,0.7209717969845004,0.6100220599560955,0.40859985034872986,0.057826870134451945,-0.3636716048591509,-0.567043860001154,-0.6254489153726723,-0.6597693953020675,-0.7021086851957725,-0.7481656387003597,-0.7840209024283848,-0.8022197251548516,-0.8080886076396196,-0.81176714241523,-0.8204936824238799,-0.8356398964166165,-0.8537257720038592,-0.8671601996476425,-0.8715090283562356,-0.8671840210438592,-0.8590914835653849,-0.8563306910569193,-0.8627083311517246,-0.8702912107466715,-0.8529563874981615,-0.7587241687660642,-0.5293202753096593,-0.21191972507407117,0.06813012371659588,0.25819518413386755,0.3719209091476571,0.43036085695147847,0.449315184656719,0.4430059670571938,0.42808760036271737,0.4173365997659768,0.4177265794738542,0.4285646055613167,0.4467502518756898,0.4679795348311476,0.49760170436043843,0.5482121954029258,0.6191984199080173,0.6646306984731124,0.6360743353994749,0.5547190180060052,0.4571236074614224,0.3684588902357729,0.30213941349122886,0.2610790704163692,0.24243055961162502,0.2471812564811259,0.2794226162990507,0.3372404616858391,0.3831307528905758,0.3833040633001229,0.3768764777999057,0.38175825386472856,0.38079894891104593,0.33092571973443613,0.2069501416738209,0.07527742178333534,-0.02073269306942276,-0.08882412722135166,-0.15210023022924962,-0.2495122320298563,-0.44887962534637754,-0.7570400921935514,-0.8579593753130279,-0.83115206148902,-0.8292835420973895,-0.8455852755228274,-0.8566538429535311,-0.8447692232295853,-0.7948080755675085,-0.6979187719934041,-0.5720725733551274,-0.4495391303140453,-0.34308373658024544,-0.24732766533146452,-0.1524180590845302,-0.053940750103962806,0.04739169893606382,0.16061905973721785,0.3055229184335148,0.49497612540414687,0.6711214286032021,0.7727494525383383,0.8289552928310795,0.8686228677260486,0.8857106205963912,0.8197179889957319,0.4710486017523785,-0.13427923518778812,-0.49052030305522754,-0.6494812066003678,-0.707462371489256,-0.6469097445732747,-0.49641223271439766,-0.36928798199794044,-0.3193673575093945,-0.3475807969270547,-0.4401069169883786,-0.5766445809683842,-0.7356222563408971,-0.5817172514272914,0.04344624016560131,0.21443712540614318,0.24241115521016532,0.2236430499543365,0.18736088006729756,0.15243150265635444,0.13699944797764435,0.15295061671303367,0.20743297496011726,0.29698755092888246,0.4013588814079431,0.4915639034202167,0.5500945238114184,0.5724745204905651,0.568177898902417,0.5449240019754465,0.5023065074051674,0.43461327327826194,0.3516877154933278,0.2786170831467273,0.22719905732063975,0.18906231895910441,0.15819160879033148,0.1358479932079369,0.13046814604701926,0.15840283353163367,0.2714087724700559,0.6584354187790465,0.704565482103008,0.4131123162864648,0.2763182247372056,0.1868755687590205,0.1159008421162143,0.0541849481883876,-0.0006238929512978042,-0.0479111333414142,-0.08670890605204322,-0.11789806918444708,-0.1460629851608668,-0.17847189075506933,-0.22288944695349652,-0.28943991647422534,-0.3882176432411602,-0.516320898626458,-0.6424943314803803,-0.7256023768653281,-0.7663876918970418,-0.7842932367487222,-0.7665895564549445,-0.6167322830566603,-0.32544991570593634,-0.12481534320309681,-0.03950583698017243,-0.01295238880784105,-0.012567787347638523,-0.02054130262061516,-0.024644852256254745,-0.01885942399187476,-0.0039332723696387335,0.011393649640253026,0.019865662154776115,0.02389162047628417,0.02633208184950788,0.029280619831271597,0.03486010080669448,0.0492642796909187,0.08503368100076047,0.15759520578457173,0.2377642159157288,0.2890130879547369,0.34371870483840666,0.4387864484190846,0.6137869945026295,0.8349852023572802,0.8867337236826707,0.7850208280270958,0.6763516529432171,0.5887568144487921,0.5179080146453933,0.45850540606775947,0.4064965120393691,0.34992176648491485,0.2297885214766158,-0.0007072543926500454,-0.16351827374851133,-0.23488464823688052,-0.26819101058577505,-0.28794833680231435,-0.31016506165114194,-0.3453033215158868,-0.39840436269170565,-0.4541687155166533,-0.491825579247935,-0.5004343517936297,-0.47729357595611255,-0.423699282633308,-0.34922853506087254,-0.2628505105112446,-0.1587515774378914,-0.01637073839225824,0.16139616275179414,0.27425865702353475,0.2391461180043453,0.05858085642646479,-0.1988106047701862,-0.39472335113148976,-0.507035130676063,-0.5680186015714446,-0.5875095197379052,-0.552480420843222,-0.4350426471751991,-0.2579796437037562,-0.11299342409726885,-0.02633084559800732,0.028377702165251453,0.08237917827797128,0.1574236682199627,0.26336314710996245,0.3887365862348144,0.5101916657469946,0.6076454493208949,0.6742881468902219,0.7160935282500708,0.7457098641575877,0.7761665969845694,0.8145761746498316,0.8528049759891214,0.8617830138805911,0.8195296719511073,0.7406849335077453,0.6471490591027569,0.5264937200766868,0.3069109004519895,-0.12259987639072062,-0.568333293409082,-0.7713399151992797,-0.8273324062207993,-0.7884618003055722,-0.6295197126236579,-0.3473756945051936,-0.02052876429512689,0.2685892199144514,0.4835652394519916,0.6197641214666895,0.6874887905082075,0.6984326253046645,0.650302157062613,0.5202835794413344,0.2821688820932262,-0.033520099332485155,-0.3345057633594373,-0.5674845022388384,-0.7175578839074838,-0.789053107661125,-0.8070534112498379,-0.7984636880996996,-0.7769737718646624,-0.7472472556129843,-0.7119019148751126,-0.6729779824499532,-0.6343891823579514,-0.5971110571867954,-0.5567673440576952,-0.503906237468697,-0.4188800417368377,-0.26179188096274264,0.03791124155735505,0.4468170527920713,0.6812434412916409,0.7104929727445818,0.6633544301019094,0.6131586357078457,0.5928894184296244,0.6077891621500834,0.6477708202881619,0.6985270986805194,0.7403493248132869,0.7643680745592104,0.7735184739925691,0.772810406141962,0.7678842689260383,0.7586775370481963,0.739578010617516,0.6982609490900488,0.6184908478472609,0.47650534694333524,0.24704337882223495,-0.05627809125364298,-0.34156479088642044,-0.5464470833154723,-0.6801571114841387,-0.7680805773786984,-0.8247539281903222,-0.8616960892232456,-0.8924840733540025,-0.9240381918819984,-0.9524853139918822,-0.9694588374721335,-0.9712680897855712,-0.9558586756051057,-0.9114950344431794,-0.8124942910586613,-0.6424770912788914,-0.4115788958266298,-0.15249740504958678,0.0751178233161232,0.2260595264876323,0.29727301787932736,0.2886374872993366,0.19923973819116736,0.05208916634140282,-0.07752175843270567,-0.15871535016470376,-0.20924050184356222,-0.235853729182948,-0.23187320771320621,-0.18787531452992837,-0.09680622908093096,0.03223841633157528,0.16823968868343522,0.26722468260568777,0.3036611048460871,0.28055090745584044,0.21674077112505044,0.13311259193426417,0.050926351025436016,-0.018407145176524305,-0.0809552746322471,-0.153717083625445,-0.23958565872875376,-0.30874576199992126,-0.3626664465102708,-0.41337187041361595,-0.4303405382669141,-0.3966867146432695,-0.33983703985949476,-0.29194862003456035,-0.2627090939604995,-0.2515495254043185,-0.2563231554757086,-0.2718344434011227,-0.270122211917425,-0.12953555833954639,0.32206081071577103,0.5984760234648488,0.7050065645936867,0.7437275423158842,0.7335767972928438,0.6838845298885108,0.6107655054366704,0.5366930960461693,0.4921061633411692,0.4950696511776345,0.5603226821012921,0.6734797363589052,0.771889340964648,0.8212892472073323,0.8472295577092974,0.8703153912043526,0.890872515066665,0.9038748441046761,0.9088652982261084,0.909729195974094,0.9094355019572465,0.9057635489840804,0.8936630571614329,0.8598149871215793,0.764691915916076,0.45653904067910694,-0.22113376221119238,-0.6259225466704162,-0.7270989601950655,-0.7132003518710252,-0.6284484384254655,-0.49892564699986636,-0.36146080338001063,-0.2484361616696405,-0.17079739295769172,-0.10461456289063517,-0.012678938410705939,0.1050863470503153,0.20714335155841226,0.27376864162514636,0.3048428215696318,0.29635328490947926,0.22737196382308467,0.050167733562726795,-0.2874119035927515,-0.6370044093135847,-0.7595904842790814,-0.739110043444511,-0.6694343180260655,-0.5915830238864652,-0.5182253894963141,-0.44094929785810033,-0.33783759151657566,-0.1970468370524598,-0.04327047050646813,0.0860679710162446,0.17655192200656775,0.23295967512247118,0.2673321034073128,0.302215552082455,0.3233273393045782,0.2147407076121967,0.11865842362910582,0.09195022881965645,0.10618393989445307,0.14197230084764856,0.18085990950094835,0.1965255961956694,0.15489331035600348,0.06898383823684082,0.01879506529858563,0.03065862723243804,0.10350464528862566,0.2365711210550761,0.4042217933594003,0.5437820924651081,0.6139798535930074,0.6398306373387219,0.672006726016081,0.7477315373387485,0.8465033899973878,0.8936867593787194,0.875657092654157,0.833748911191269,0.7798307589926443,0.6906662860254463,0.5086423070199468,0.17183530937492297,-0.22965462133710726,-0.5070262415448163,-0.6705664652337104,-0.7917268468515766,-0.8717617238608731,-0.7979223318587679,-0.5785110440404653,-0.459733511793645,-0.45105565971143496,-0.48431519981694343,-0.532988225924896,-0.588026192859724,-0.6426193540948164,-0.6895941572071895,-0.7254417865681198,-0.7559200720758751,-0.7909765248939176,-0.8112509472318612,-0.77002532063534,-0.7033293155877174,-0.6519672445912043,-0.605151843723063,-0.5457722148064582,-0.46970652033651955,-0.3865633391399187,-0.30905094793734406,-0.24381799402217672,-0.18601083514074734,-0.12793728533049736,-0.06642868537364606,-0.0019112905999968469,0.06000416636463674,0.108969694640192,0.13855038290874971,0.15036362577788331,0.1594797182531963,0.19603878967939525,0.33742739725009707,0.6169878093502561,0.33244693515136325,0.2018247031312415,0.1403155042028326,0.10109284751796573,0.0699386196098048,0.03808363407129454,-0.0029918430479913497,-0.0630171298345609,-0.1487440740360745,-0.25031326218494665,-0.342047346242568,-0.4149932116745905,-0.5139999413512191,-0.728179365321562,-0.6821400969236273,-0.5593304063122625,-0.5408257554063803,-0.529629629916275,-0.4990001670370824,-0.4597107559172885,-0.4321919320991397,-0.42505427100545684,-0.4294434646172955,-0.4289120240307427,-0.4093778914640981,-0.3489430940404679,-0.2151521460114439,0.018144388883530694,0.31028977031261906,0.5477875962134366,0.6711669057541864,0.7043552517058175,0.6852486875853679,0.6493575553247656,0.624891666045042,0.6263859918648778,0.6531203398047485,0.6963379747101645,0.7406143577836652,0.7672305836662641,0.7612099782639392,0.7159289176891425,0.6253882539614933,0.4805900561369234,0.28395335601120664,0.16033864182585603,0.2075847216471107,0.3297442672020536,0.44989849501314727,0.5373557249017444,0.5790996904897577,0.5723374761445928,0.5125077317034789,0.38279985341468126,0.15379899462615504,-0.1674948405457432,-0.4504980850347417,-0.6065295753165318,-0.6722251564083289,-0.6998022227813565,-0.7231025454311327,-0.7541632674170093,-0.789073579951268,-0.8114547558926553,-0.8074087082716424,-0.7766005719451938,-0.7305989849430373,-0.6886112957125555,-0.6706082617022572,-0.6868633667435173,-0.7325378412062874,-0.7828220881538821,-0.7790869037542584,-0.6506371398172863,-0.3602521190410228,0.09641034665195086,0.5646949735603748,0.8309024517010082,0.9310395187281534,0.9613736033101851,0.96801049147182,0.9670730311390573,0.962651720228397,0.9548417298546467,0.9426841493282384,0.9247702316238825,0.9005713757013847,0.8709895568038664,0.8380508514959439,0.8036390391312126,0.7678719101024329,0.7291290729010288,0.6841826020601892,0.6308472767695623,0.5704082017621632,0.5110878181447334,0.46561868180486193,0.4356358221909912,0.3971246123545771,0.30500665525146936,0.08306993713431972,-0.38407303719751706,-0.8527044338085685,-0.9688638605818207,-0.959990599859946,-0.9372019985023021,-0.9170801815080433,-0.8996401091466196,-0.8830746455106195,-0.8660997990609615,-0.8472574633013727,-0.8242150288923495,-0.7945518290871618,-0.7577599562938382,-0.714879489046877,-0.6675477302873336,-0.6209077511828891,-0.5809985133746008,-0.5504674546693381,-0.5293841743316404,-0.5156300399988691,-0.5074416540112627,-0.4995735873980976,-0.4860293277708875,-0.45999264374383386,-0.417104666576611,-0.36153348427487036,-0.30665979783203356,-0.2668682178402575,-0.24892794268230503,-0.25435220579672274,-0.2830355999336889,-0.3273049746241142,-0.3416247970985424,-0.27069031209843153,-0.16772675582554714,-0.07487123515146588,0.004488475471756962,0.0677968448337994,0.10581244097987719,0.10976025477334526,0.07877166375748333,0.021987703226893238,-0.04242505706324278,-0.0955590388134645,-0.12596007842349702,-0.13150770276263157,-0.1132327200602661,-0.06763764759941157,-0.01486545974578106,0.014927335686927936,0.027772227915441355,0.034122907495014655,0.042334742331658154,0.057366874283100396,0.08059423360686714,0.10616001929963181,0.12429852703732135,0.1352858865764223,0.15433178757589938,0.2059823519974542,0.3280939077311265,0.5385105977718535,0.708912430782439,0.6960153164232722,0.599724148111203,0.5068294251560985,0.4391727512359722,0.39644659408090155,0.3778639679244702,0.38296495021856725,0.4111262133102873,0.4536080912284492,0.4890988050711671,0.4937227677483883,0.4592163262451081,0.3922984542390247,0.2966041118169359,0.1847261262861252,0.0975045680711651,0.07320950597381541,0.09702463739899823,0.13539066834301428,0.1728493939662597,0.20561287179353266,0.23603678131707004,0.265631550087032,0.2967796439199567,0.32796006148673834,0.34573802196177245,0.30996625045432713,0.2036255364399012,0.11608843917460625,0.0858383201968672,0.057997444209825805,-0.015863341677075565,-0.17529717233657183,-0.4475220721993465,-0.7144834768114673,-0.8285797201299934,-0.8720109191069914,-0.9160039805954254,-0.9531341767015308,-0.9446733255104888,-0.8421598782903436,-0.6180950725608005,-0.3314373433254872,-0.07773783546282381,0.1257061293601479,0.30863638839131213,0.5076683452887943,0.7036562707386893,0.8114043918320433,0.8450321803325141,0.8637847344779964,0.8731832806201456,0.8672006864236681,0.8601170581633713,0.8689246939258666,0.886697034899304,0.8645854170139049,0.7253102000347995,0.49573143629035576,0.2916411504162414,0.15321856555932178,0.06845043166421419,0.01979150435975485,-0.0032235678156501764,-0.007424661263543978,0.0061961892880452825,0.04130526648459865,0.09439831794835173,0.13958794992395013,0.1345676954667466,0.03983363144621444,-0.19214787503723815,-0.5392806626792966,-0.8100437131691433,-0.9276500324114965,-0.9617923243464773,-0.9632166668999084,-0.951388431439313,-0.9267848407603786,-0.8768866384854952,-0.7704660969519518,-0.5943337801754472,-0.40962363297957,-0.2777753768584378,-0.20164724076738852,-0.14946283894415568,-0.08445386383455561,0.004540004691707331,0.10429001443002875,0.1997580998446712,0.2822620093192806,0.358326217121788,0.43491154981177915,0.520754190851453,0.621120950221595,0.7249004304442195,0.8083897423753735,0.8648557658163648,0.9098531031764634,0.9508233910857667,0.9760830550838536,0.9788570360117118,0.9620880616779293,0.9203239033989011,0.8121662125418145,0.5576036882814533,0.1907874888120679,-0.09602746010771095,-0.2669450905363472,-0.38276366083025787,-0.480894201356074,-0.5644488399609767,-0.6265187516389411,-0.6620944755615684,-0.6648639387087636,-0.6278988794220847,-0.5390754261699428,-0.38863670407271195,-0.2118524431552668,-0.08043674619616514,-0.012107946700780251,0.024418418199224856,0.06356610693857805,0.12370164043422494,0.20663067322499795,0.2870769678063848,0.33678087893608705,0.28530238682226466,-0.0038120553579470986,-0.15493914963751007,-0.16740882122098374,-0.15263515862286622,-0.1424963030292945,-0.1475820694955721,-0.17246233798285523,-0.21947333114625028,-0.2931952118464359,-0.36605583528957575,0.08592838462729849,0.3805076130544309,0.501833480038684,0.5670836675414962,0.602150526666987,0.6143575411516323,0.5668060534439369,0.42940655879525985,0.31652885234360273,0.26715035465384246,0.24623447300818763,0.22479169963388132,0.1610077651540219,-0.013477766403683259,-0.32998878391500497,-0.5846957203386571,-0.6888216536508263,-0.7230733031121512,-0.7219709215195835,-0.7019532912366714,-0.6782654063308928,-0.667805665212392,-0.6773942250169241,-0.7002305400699096,-0.720147383355681,-0.7233895284624547,-0.6996845330237103,-0.6406959333235,-0.5519389648475349,-0.4523447912620839,-0.3784555350606466,-0.35175813530698286,-0.3660720721509701,-0.3765815901582808,-0.33324396970304665,-0.2106709260164494,-0.0370424490649811,0.11969620390095585,0.22395333708983511,0.274996002867302,0.284898843919997,0.262652274964773,0.21201783082872236,0.1437720742938726,0.08607497004642878,0.08369734624557146,0.19527147115782012,0.1319178860009667,0.10364929103477846,0.08685000787154656,0.07836678997863374,0.08294211921925772,0.10621249052945203,0.15022371928592557,0.182806498197021,0.1634468388645876,0.11431542879413711,0.03964311655917118,-0.05044267319950182,-0.1138935867874103,-0.10936312779063238,-0.0011782593654703073,0.20715629064353766,0.4258198284950732,0.5578883572503119,0.6088493556821758,0.6072017912919343,0.5695866173976536,0.505019895633915,0.4264326245827299,0.35075481609090525,0.3072759264418985,0.3300664844358726,0.434349870287434,0.5506162407914313,0.6145774165443761,0.6007745422341165,0.4874718008453153,0.3270239159009434,0.2050601636588898,0.1457710285914438,0.13347315863669013,0.14902974015993892,0.18138819415743956,0.22346989244001428,0.2639659259718388,0.2896986013005568,0.29331388305272554,0.27594766203449433,0.2590376515892016,0.27801070340336764,0.2841399243328811,0.2411920809896581,0.20088169755291177,0.17208634309565288,0.15250058620910467,0.15395007670541766,0.18401831369118976,0.2106495333622527,0.17309438714080458,0.06839222387762597,-0.07077133021105013,-0.22500186463900954,-0.37896829289970546,-0.5154115729632182,-0.6183420014271436,-0.6775976036917631,-0.6966020386587859,-0.6978077110199572,-0.7103625810955865,-0.7474136197038723,-0.8037497027258462,-0.8494613288758401,-0.8035247826321081,-0.5483036590091497,-0.15174384626210127,0.20159266552664987,0.45198844357625007,0.5932864668920825,0.6447884069462189,0.6235297977217196,0.5419638287219255,0.4081552588103497,0.22063317646366495,0.014275526172409,-0.14041485894247085,-0.22778336398225313,-0.26315620465414696,-0.24843355477243265,-0.1749300732062154,-0.06761044841863043,0.03096904925079563,0.10564453997254215,0.16147266331794188,0.2064197275548894,0.2274666089162833,0.19799066134153687,0.12183037738778432,0.043072975204061385,0.00936077885864449,0.018653781802780416,0.038261331511611804,0.030915959117661485,-0.043751585325826764,-0.19260361793002467,-0.34438413483796154,-0.47000104091487577,-0.573982613342651,-0.6556835025034459,-0.7220691245964642,-0.7672933116999057,-0.783520734112124,-0.7803096683608414,-0.7673998082437727,-0.7468498830005146,-0.7195838273469997,-0.6815519486888998,-0.5973225288198647,-0.3076524098137467,0.004591123648086235,0.05459816873134393,0.015550616849011573,-0.028693164602961355,-0.05634185145567411,-0.06847399501689955,-0.07532123789133413,-0.09085308338788499,-0.12210339289425044,-0.16337535015363905,-0.19253275326617433,-0.06645950145869194,0.27564634222615847,0.3313548140192595,0.34133384061235267,0.3297266696208456,0.31038667099480377,0.29577427447055926,0.2887632836965204,0.2892362308246536,0.29940074202867345,0.3190855875098969,0.3446978173741971,0.3711688682282323,0.3923874277938476,0.4058955329393392,0.4146025582221935,0.42616476414578985,0.44486273947751,0.4569640949478708,0.4193341667370475,0.253516381731611,-0.007730901289352881,-0.19368826104684977,-0.2918286502915988,-0.33915587585371015,-0.34346733865404727,-0.3084921293796884,-0.2549236772816401,-0.19872750674833256,-0.14547602793103606,-0.09564027206312842,-0.0533683856448413,-0.026227447134784178,-0.01646651198532427,-0.01559501882104235,-0.010158319746676551,0.02274272935458015,0.1327410620559064,0.3607420361151019,0.5317145537178438,0.6109483267339223,0.6882110957956975,0.747713704304129,0.7337591058157596,0.6421649564712392,0.505348280804478,0.3484295633512822,0.18846419647235776,0.028679623045563027,-0.12790317820902783,-0.2618463785285389,-0.3633518713126679,-0.41788351489401226,-0.3805927622706667,-0.01928284174289831,0.6371428152218637,0.7967404546803227,0.7748299167730369,0.6705569428113465,0.46574383203768344,0.1464989413807338,-0.20371760756755575,-0.46736407797686064,-0.6267185853090301,-0.7129963712869791,-0.7553462718180604,-0.7703265208328527,-0.7682580475786558,-0.7575019654462586,-0.7413636739586432,-0.7184411978098654,-0.6878215619158199,-0.6413006468219367,-0.5661257455752686,-0.443912107319745,-0.2576420326920206,-0.021122521019355786,0.21312704573529306,0.3777262105174509,0.44376923356478054,0.4607819750872942,0.47361443202176884,0.5036209231849862,0.5549884562339426,0.6145924687715559,0.6608510975361497,0.6844280975589085,0.6877980420200729,0.6762904250848772,0.6646221635403669,0.6722137877918462,0.6978646495006001,0.71170320991205,0.6835172949345298,0.5957291670840092
