-0.23856021221080886,-0.3512788126439675,-0.3575320644071426,-0.3162316909769221,-0.3052751639713123,-0.33442200405237993,-0.39469814879018716,-0.4318336906761594,-0.41970727810982467,-0.4002303202434758,-0.3938655756958597,-0.40153364565892846,-0.42036205127834786,-0.44860286292038926,-0.4815520158157106,-0.512601607939227,-0.5421985176083771,-0.5855525862429841,-0.6571420006419734,-0.4729747516005575,-0.07124126381448093,0.12120543063910802,0.2562261866496166,0.4078433498279427,0.5765065052741715,0.7105083346634409,0.7795470697863753,0.7946397244687956,0.7708957802410621,0.7161457284878952,0.638958744771854,0.5533170557065061,0.4737985705479735,0.40849232544920744,0.360121636657918,0.3254983058959483,0.30296126331340356,0.29615323861038106,0.3112548244119449,0.35385274078670814,0.380987529850832,0.23648137963970292,0.07222807378204814,-0.0415830034290466,-0.1427814760017975,-0.25597228257145194,-0.3853856458338013,-0.4857376864589322,-0.5249090672448099,-0.5237126056913833,-0.45764295137389516,-0.32637185069939895,-0.22261660782101553,-0.17873146845904112,-0.16782106062241028,-0.15261176451244135,-0.10586672687380998,-0.05154385005372087,-0.01438306283161441,0.006895969885932382,0.013368388857279508,-0.006927788683806408,-0.05969603133281707,-0.11693283577523239,-0.16066117616784048,-0.17544084976910024,-0.16492015780278768,-0.15920783338098393,-0.1697310671077574,-0.18412577884084794,-0.18580746675105952,-0.17270539474059932,-0.16242807075477253,-0.17360533126625913,-0.22181416177131003,-0.30930025192742955,-0.43183284697280616,-0.5572777369725876,-0.6112917820013332,-0.5737023144075273,-0.4955475884379798,-0.42228802488089995,-0.36763661927321295,-0.3166032445650404,-0.2651869969191135,-0.23353273451387205,-0.22793933856836548,-0.24182366946343184,-0.25905558836501935,-0.25831721325176066,-0.2165623112662292,-0.13728334076984158,-0.04804809853000914,0.01594122174969826,0.03270416432066975,-0.020655735496174953,-0.05570495598293701,-0.05243937953019999,-0.0498187361903281,-0.05942292822027848,-0.08491412088108899,-0.12645610226832182,-0.18230340522596492,-0.24655080184144357,-0.3015426509637876,-0.3231293954430764,-0.3029882058391837,-0.27122688599446293,-0.2679969307838742,-0.3128954989132117,-0.3874934284627777,-0.45918249042302045,-0.5185111091283777,-0.5753394209846086,-0.6546638040947815,-0.784200475406593,-0.7882185948336191,-0.5445278081885311,-0.4193095353646412,-0.38551997969547813,-0.3795200748613405,-0.34959779086063575,-0.23512400320050947,-0.0292616578898528,0.18436723425639429,0.3468075483134705,0.44803563663589313,0.4923291603106999,0.5014898828587614,0.502206465978521,0.5064679172755043,0.5142061210075267,0.5252571480166038,0.5419886761703762,0.5670328607411794,0.6069156606713915,0.6622296594484659,0.6640028494758176,0.5186024729317427,0.37348877532874875,0.29895839005916797,0.2648100142744454,0.24703302398336258,0.23325161284568205,0.21679653154952602,0.20038562954983383,0.1957783211877617,0.21100960660705223,0.24099725226826066,0.2751386497454469,0.30033625866448094,0.28778209365152113,0.16282160582344501,-0.17790473638063128,-0.5203225367703709,-0.6806083071394785,-0.7511411338776395,-0.7824376715962983,-0.791575550869252,-0.78368755181965,-0.7619236313513269,-0.7311535806358873,-0.7027400380368112,-0.6809649324235295,-0.6622247226144998,-0.6492780340316664,-0.6437953956239046,-0.6425117406041265,-0.6428282126161067,-0.6477238272554999,-0.6629553023816899,-0.6881251967426939,-0.6953445176853107,-0.6363502940524085,-0.5018994989585295,-0.32548352936003944,-0.13747847154394546,0.06511131413997856,0.28737889212916906,0.47290409109327397,0.5599523963737976,0.5532861342908035,0.4977947433040316,0.4293203315246054,0.37032484710865216,0.33545755758926343,0.33220980950166507,0.35773322898305937,0.40898969335771573,0.48136204264318816,0.5499125900953181,0.5702201030113255,0.5336037307917185,0.48139190734041215,0.4352191561917429,0.39411113828169403,0.35735498528697773,0.3334854369685555,0.32091602476363296,0.08688328538392279,0.00945507001893294,0.001955138898999133,0.0017650762313270198,-0.0023966270803006586,-0.013863187330052635,-0.03510559196792107,-0.07358875731458274,-0.15095304285641215,-0.27704599437670363,-0.34400393878093455,-0.40480327097886454,-0.5972031933675417,-0.9489090551018068,-0.6124011337973163,-0.3759421673900367,-0.2725473374358848,-0.21821191540036658,-0.19237417945232071,-0.20124392621153767,-0.09730558663965491,0.051788623981576964,0.10459973346594591,0.1719817056143738,0.29417679298456423,0.47703041271753804,0.5914094883092507,0.5783597721285266,0.5166422009570194,0.44301547766949095,0.3677238721852276,0.298561085922988,0.23324458129984704,0.13216877656897008,-0.045397682446751554,-0.22971811843401313,-0.3999735837473979,-0.5761428950927514,-0.7325737146999752,-0.8148152298963567,-0.8173710635110142,-0.7783924138748828,-0.717706660199895,-0.6211676283783706,-0.45563342436980797,-0.24669057209762993,-0.0678603848965157,0.019047298466090563,-0.01769802152288248,-0.1860020055239021,-0.4357851146330342,-0.6393696538534611,-0.7052968814868444,-0.63380987369446,-0.4885211512152685,-0.3347314454724379,-0.18082553097994658,0.007891809140593148,0.26951704553948547,0.544138546675801,0.7194053317327447,0.8028133436655155,0.8230259852371413,0.7680294408138043,0.6161405177249482,0.3914094336624737,0.16818401494122803,0.010905451717104378,-0.07003107041811416,-0.09504716995452293,-0.08771022381068734,-0.0644848594325762,-0.04066397359793685,-0.035251706706813976,-0.0710013353500363,-0.1712979663039536,-0.3458125396371256,-0.5642482569025353,-0.7488179735465326,-0.8562207020023131,-0.90564479751944,-0.9276821031799151,-0.9357526923879176,-0.9276014718803759,-0.8984296374128823,-0.8412905428637425,-0.7244377983701065,-0.5706149708330667,-0.4440167447049591,-0.35871107393081,-0.3028835400298539,-0.2468127012480017,-0.06938471265927212,0.10482982375535106,0.16898750880140576,0.19085225669614267,0.18618275508899848,0.144255252559957,0.006401139334438483,-0.15615980674641314,-0.11460754108703604,0.03738042899688458,0.18072275310288477,0.21677624494413336,0.18866019022539104,0.14157478568173132,0.09474135700990421,0.05585369586074446,0.030443869984957354,0.024019596603329793,0.046311851396007096,0.10953096620949468,0.18836856573026442,0.21766145615950364,0.20570100278083256,0.17683247210165928,0.14156665178011604,0.1088981478005269,0.08442457676284146,0.06994319047657159,0.060792321514033416,0.05274321937974638,0.04022100460889005,0.00925264081011822,-0.05398793504404674,-0.1251559241845536,-0.17998268198157968,-0.21682372116186602,-0.2188261953636441,-0.18039684878133672,-0.14221393454131656,-0.12318529864619741,-0.12417326782484178,-0.14192274291658397,-0.17490433476001835,-0.2276538252069183,-0.31561047337374143,-0.46500339512844197,-0.6532525445970974,-0.6983808494193073,-0.6307708103614226,-0.56267529690338,-0.5052671749847294,-0.4456761206563892,-0.3714227889196959,-0.27560498773682757,-0.1550706882408466,0.0004061935253215039,0.19485377550956132,0.39650567800429554,0.5457086633461673,0.6205588612068658,0.6542985891158123,0.6817372838923074,0.7199213985995428,0.7656661972710848,0.8032423049679639,0.8261226489516342,0.8433683331880033,0.8624608787961642,0.8657305715421904,0.8039276883728343,0.6711932923186833,0.5295655561989793,0.42011482553284274,0.346292269085646,0.2965205571860762,0.25334661588566776,0.19698067147848916,0.10882816553880975,-0.020204166144057064,-0.1891241084732035,-0.38883945448561325,-0.604911169535684,-0.7987020298245068,-0.8737419464290369,-0.7814618768633068,-0.6315652258560941,-0.5200431334425121,-0.4607795892698404,-0.43360628728548567,-0.4079447562366441,-0.3730125902244816,-0.3354247509350618,-0.30065959930492875,-0.2705609291234767,-0.23610162734181545,-0.1800961866782992,-0.09534498865449512,-0.014953982926641959,0.034350072936899616,0.05044748087441541,0.04489731622044202,0.030615617936817465,0.018891039947249794,0.01717199624473529,0.022132302637025564,0.03076406098068912,0.03551733601473474,0.027565108806061948,0.00030047788423474516,-0.03754209126097834,-0.06113088436726894,-0.06865147908365211,-0.06503540510252383,-0.051457356531009454,-0.027108728296520113,0.008153414454379223,0.05044699988135315,0.08871881975716647,0.10436909979708951,0.07684669141871571,-0.012832219775794225,-0.15884861946801498,-0.31107508263311173,-0.4228790986644838,-0.5060265528816328,-0.5867870135497946,-0.6578155305671322,-0.6087946872271148,-0.42395401910417446,-0.26648912737362573,-0.16777701592032665,-0.10090535246429234,-0.04591384077856702,-0.007180778775828186,-0.001043727123243413,-0.013939949847569204,-0.02312197263683341,-0.019162802675938655,-0.003675493882756177,0.021769536997661428,0.056471321931152896,0.10359085831673663,0.1698146354267959,0.24748551848760286,0.3143066597517285,0.35072448742204715,0.33851848371277327,0.2678885117233798,0.15599941267251075,0.048234744381785905,-0.012607030072862378,-0.01643540074133672,0.010579727541052847,0.049066975621328446,0.09335529424118318,0.13865139758471148,0.186070773736923,0.23461290839623172,0.2804550593426313,0.3159469072841826,0.32936517124948594,0.3045561627275198,0.23508992007496532,0.13933923275513146,0.06615734677081858,0.038588815094202776,0.049792250188352156,0.07382561395290836,0.08066786681403937,0.05339081386440635,0.0001415745423023057,-0.05382943031699468,-0.0922383297181625,-0.11600788755076587,-0.1306699589264141,-0.1389084822145614,-0.14169216576508864,-0.14214341877727774,-0.14260532531488648,-0.145479252063333,-0.15831344871999636,-0.25042541470039914,-0.06436577910813567,0.014118627513605604,0.024351174963506212,0.02377444008472617,0.020343084770832125,0.01676315076390906,0.01349917403519392,0.00974615765130249,0.0036386195602503267,-0.011791120622697706,-0.0679936733484289,-0.29038307041521644,-0.5686905734564531,-0.5668525245694488,-0.5251736790616894,-0.47045594586547,-0.4071623821481524,-0.3422421047233995,-0.2768005683503611,-0.21283376742954288,-0.16914652484382228,-0.15068581186772564,-0.14841220236758998,-0.14927702049402658,-0.1416725716608797,-0.1205682555821088,-0.05551596953612157,0.017553602121596505,0.05278682855670591,0.0767005405926901,0.09994569478706605,0.12178248194777073,0.1446957672408448,0.17389194924390158,0.22042146720137631,0.29031482797957986,0.36620675000865743,0.38014133158196267,0.31879558038285166,0.2489661684039185,0.20254867783828784,0.1871133401667856,0.21740011466482675,0.3028884248328214,0.4313391477833717,0.5674162274695513,0.6840448939582162,0.767595242697456,0.8113566875758629,0.8063771909679331,0.7315476475853959,0.5826512296264822,0.4328967272682827,0.3361561917812066,0.2693704676932011,0.194752091620045,0.0945449317956643,-0.020486303375256726,-0.13227625097967224,-0.23847874772034508,-0.34496787180417265,-0.45816923125516906,-0.5773109666396985,-0.6811786363776934,-0.7451691444494492,-0.7703676662120162,-0.7790201931378253,-0.7668899753278847,-0.6968870180237778,-0.6054955836438771,-0.5418537067967565,-0.4965503360391846,-0.4444674267549987,-0.4063751726266844,-0.4083128390110819,-0.4443099204443419,-0.4838742179228226,-0.49805113978443594,-0.46628198984261715,-0.36338355200818817,-0.1719147032567497,0.0665396281138285,0.2630213348623412,0.37890452161297944,0.434132354957274,0.4546138800569716,0.4621068656095909,0.4746322666712349,0.5062116778642208,0.5512894399788704,0.5983899702140333,0.6363673098455194,0.6606954721728326,0.6696972830781835,0.6747380576892896,0.6953182101634289,0.7388939813358245,0.7977910365792453,0.8439700953089402,0.8547907504022696,0.8524148358978388,0.8678510836665851,0.9063453713840407,0.9461405961184487,0.9479509540947569,0.8970468325303521,0.8122962911446342,0.7056852909625739,0.5615753341073978,0.33630835859949354,0.006199814620171608,-0.3068506865331939,-0.4887176271621312,-0.5819241088427581,-0.6487480878239277,-0.7250562814644947,-0.8223162854068077,-0.9187583164378762,-0.9485117859732692,-0.8697104965346165,-0.7416986058472098,-0.6246114388735049,-0.5257653413971427,-0.4387948339088223,-0.3622248139980207,-0.30195955209226966,-0.2642749750720487,-0.2566190337288068,-0.2925483492003188,-0.37326829498064534,-0.36790101260208874,-0.2900484833875531,-0.23054646436502932,-0.18226399545269176,-0.15248489512803287,-0.14557445367617922,-0.15647540313697006,-0.18162153673092343,-0.22849861216833428,-0.31370564701565684,-0.4293541719857392,-0.4428867909595436,-0.37814854153510724,-0.3623719053125196,-0.3979148803044346,-0.4383072896152229,-0.43560708359795125,-0.409537207567299,-0.38796632980879175,-0.3707916302676283,-0.3505990786513751,-0.3308176019549702,-0.329965352524913,-0.3841667533267186,-0.4684448807950451,-0.2036506298738362,-0.06961631886837817,-0.010508287100444302,0.031216354751953113,0.06604038262955479,0.09395288343688418,0.11603716712338934,0.13412257221157867,0.14830251105503023,0.15567538818052823,0.16046045568313272,0.18138301498017312,0.25184184872983567,0.41034242704724117,0.6413168574361645,0.8159582557868212,0.8952738721594844,0.9161537933657705,0.8841369989253732,0.7656690200140811,0.585035963536117,0.42980870748959565,0.3203231561749092,0.24330459300005025,0.1943859546480657,0.17426549635734032,0.18662932208804806,0.2376840769531762,0.3333280838479737,0.433367375434535,0.4238073103236122,0.3572153292493997,0.31947361118595013,0.31826713120428146,0.3406576956330743,0.37605517017499873,0.4096655495911476,0.4301806553074598,0.43989146299355475,0.4489871689414824,0.4685339259862049,0.498526437227877,0.5174803399609004,0.4811654635466338,0.31203893453523057,0.04374508448340908,-0.13672119325309923,-0.2319469733236408,-0.28634689650808737,-0.3216503727142484,-0.34601098973715244,-0.36645090148939014,-0.39172163594196285,-0.4230248254919969,-0.4529983216702896,-0.47932898211425495,-0.514805741856255,-0.5815563504839203,-0.6980138070869848,-0.8371435575400861,-0.7795555114250056,-0.5057120202447495,-0.28073958683164363,-0.1280104862868093,-0.011127670337674228,0.08600269415533994,0.16087268007188113,0.20681687611107413,0.22425721927406259,0.22207421676605577,0.20368899094330567,0.150866756249264,-0.08719101440868847,-0.2912927477554025,-0.32407558849174267,-0.34059344507196443,-0.3263240727457277,-0.24279363052119468,-0.06093221541521806,0.16709389447859427,0.3659080791831707,0.5559089364571794,0.7565254954608082,0.9081539046932143,0.9468359343628664,0.930871712650428,0.9212991697547303,0.9314337145507435,0.9528455342977414,0.9654381008236131,0.9409245319766713,0.8417214764659015,0.614754452975542,0.28286265810257133,0.015597653409798844,-0.11597760728005882,-0.15421820094901328,-0.13507109367152031,-0.06673778629495673,0.05569080269820232,0.24105847655340104,0.4973792191876752,0.7168093832898167,0.3458006372016588,-0.021155209137386086,-0.21468470462313502,-0.3341210916793408,-0.4275421084394206,-0.525634645734885,-0.643330998362835,-0.7625508518894583,-0.8180117266545386,-0.7931742607166958,-0.7541981622380332,-0.735570305594611,-0.730152620656331,-0.7235922895803628,-0.701488135535912,-0.6554170296874511,-0.5895250740306014,-0.5144634519437173,-0.43658415198741307,-0.3556831315868158,-0.2737368490189868,-0.22187000337147794,-0.2635142416732732,-0.44650271377573436,-0.6338080261004486,-0.536885290875909,-0.3741555575316126,-0.2501560402047243,-0.17019195306271054,-0.12342034622739995,-0.09929854240466505,-0.0916105889076087,-0.09923309647289323,-0.12597678992452327,-0.18256429593620127,-0.2851192028762167,-0.24796727552089817,-0.056271408010415934,0.05572708480180699,0.1285533863946549,0.19272867923324052,0.2727076467723065,0.4062804095848044,0.6377356344441484,0.8429634883285593,0.8978240650546289,0.9465406338370774,0.929161285309627,0.7773472367124328,0.6240346138354673,0.5275467591407916,0.469637577375652,0.4212779702383327,0.3526929166311978,0.25379176586719315,0.14601270562629032,0.05770086379676527,0.0002485541875965977,-0.0282243709979955,-0.03399822715433585,-0.024783032431036123,-0.009462058841778793,-0.0019828646259278486,-0.023949494734248802,-0.09628278363390674,-0.1929896561843356,-0.25581634718240304,-0.24930427981931896,-0.162855557266161,0.01299329648541842,0.20128506226831655,0.33126659244453766,0.38255918176512027,0.3627317235778985,0.27249222658694483,0.0834762879462217,-0.10545214894394361,-0.14680068833388935,-0.10931530583471485,-0.05525036934506423,-0.009734791773549103,0.015408326656833362,0.019485113248963546,0.008408529013138624,-0.010002882763780278,-0.03248402250099761,-0.0614390210686458,-0.06322264147757252,0.0047839165264658605,0.03405872995257826,0.04892056596899353,0.05203931879507225,0.030568355998745505,-0.05393012054716626,-0.2601360158310799,-0.5878520606599901,-0.7750183641742012,-0.7447912094134973,-0.6429175148597331,-0.5329777273793408,-0.43135445414152496,-0.33903659357885974,-0.26671503148281117,-0.22295857975828245,-0.18071558176162622,-0.09750148992061378,0.01285292098585613,0.10629236675920975,0.1575153209766815,0.16295114096354643,0.12640250298142283,0.06815691232872044,0.0015579127960326671,-0.07786476901644654,-0.19763090025784694,-0.4405016178477508,-0.4714750883997715,-0.2209639111022485,-0.07423918679130122,0.027544583180276094,0.10841538758464665,0.17611151372438513,0.23656501901443033,0.30076550953696757,0.3827564923329502,0.4999888242129725,0.6696818680035905,0.8625571060420374,0.9195590989970591,0.8176215762777731,0.7215422844020936,0.6880700811782515,0.7160312557573383,0.7492711379765152,0.6447904587708531,0.44466056786953373,0.2801381146327386,0.15787825834111463,0.05577267276094863,-0.03879763242267476,-0.1263960375133307,-0.18692974465553955,-0.2013330745764988,-0.17731566425375667,-0.14210395860719233,-0.11534315781270328,-0.1057504428341535,-0.12819756967947363,-0.22590659227674106,-0.4282898888412035,-0.40904793569120285,-0.3918499082925083,-0.42908600413202413,-0.4963547570695299,-0.5617882107803953,-0.583506149503427,-0.5427841345226998,-0.4573071975406721,-0.35854368953246946,-0.26715240148313624,-0.1852682705133326,-0.10647694602282093,-0.02543521088489383,0.048171375742783226,0.0945485001790794,0.09183718153645455,0.02396866283006062,-0.11177979963240886,-0.28818796480618786,-0.37324880678603667,-0.25114155818072725,-0.09513488786634341,0.026110008823436424,0.12100904856922387,0.19427947643144217,0.24288037105772747,0.26408556341689654,0.2640731353083901,0.2618043266351953,0.277953788967501,0.3045601824545778,0.32087376621104213,0.319391008664813,0.2930368834409339,0.24827715939936656,0.19070716657241493,0.12069453813531872,0.03780443818718024,-0.058893077307131045,-0.16705879083191985,-0.2723296687032611,-0.34807730084941857,-0.38274921756526425,-0.3834574007948998,-0.3669564869616829,-0.35394411575497187,-0.3624902110832955,-0.39427652447276174,-0.4327354360983759,-0.44234019936435154,-0.36226048356118373,-0.20856379644513878,-0.07338865019594647,0.017369237987656938,0.0769754291306396,0.1266000390920498,0.19036054276614892,0.28455099799206707,0.3529493778904139,0.34974439787223044,0.34911351533296175,0.3760404387119626,0.4338591367381902,0.5219036908054085,0.6314638644520211,0.7167896980700715,0.6104799564312945,0.348236375592497,0.16645584230426896,0.05633756167247803,-0.036707264218995214,-0.15184383720920205,-0.17314599016109414,-0.16814427037991686,-0.19112275465197134,-0.23880741363164085,-0.2880690499814436,-0.29469301869908165,-0.2584852172400813,-0.2022284955617489,-0.12181191955717446,0.0033109157600857263,0.1852689501611911,0.42256973729899305,0.6908015588991558,0.8820697016349776,0.9392396859013705,0.9387326082140348,0.929565022242061,0.9197507950669803,0.9056845759374001,0.8798948124598939,0.825475189386412,0.6890398529666455,0.3139203338313527,-0.36486208625164096,-0.772511053065296,-0.9055352013025233,-0.951124428195409,-0.9681669591113887,-0.9719005359919798,-0.9654371117295423,-0.9447801925107447,-0.896794260168567,-0.798664757144834,-0.6504933343918358,-0.5080979447861222,-0.41142420563041165,-0.3473319355012653,-0.2787441124980292,-0.16562283899184102,0.02655870266315728,0.2504169301831335,0.35289975375085547,0.3978868230334684,0.4711444020751967,0.6250201991375237,0.8703956861518679,0.9335750290372953,0.7845054075004059,0.7026366658234886,0.7004784330632968,0.7045234642217925,0.599339657590327,0.3706096398906886,0.12065090678505669,-0.020289611633983365,-0.11246675899542198,-0.22445833605408758,-0.37942657525752527,-0.5008028439581814,-0.5788856507012624,-0.6725169097687119,-0.769442905737949,-0.8303682822068046,-0.8422840697736392,-0.8301970053242188,-0.8244909363235884,-0.8305009672379297,-0.8404991006683886,-0.8537175997372732,-0.8761001594703608,-0.901572460172708,-0.9138352210904396,-0.9002807399005538,-0.865045386233621,-0.830215576040972,-0.8056580721778854,-0.7361764780259991,-0.604294860855786,-0.5191097371566323,-0.521908602817227,-0.49784951641342445,-0.42395472845879867,-0.3827228126137395,-0.37561620893123754,-0.38823105294308724,-0.41569656101578417,-0.45414028170423304,-0.49031495486783,-0.5132643821782619,-0.5183105989449965,-0.49594511790612034,-0.43242677309702826,-0.3305272577613149,-0.19604135960958993,-0.02965997822711624,0.16190263623894666,0.343634004865406,0.4904669438164869,0.5937944922055459,0.6609058066658822,0.7091446124849088,0.7565187698390827,0.807801803686068,0.8549742995182525,0.8914742320598446,0.9169896113098335,0.9340330637000211,0.9435959759842526,0.9455641247581454,0.9356930980880614,0.9080885190770182,0.8662009481465845,0.8263959357256835,0.804013225642807,0.8050103925261423,0.8131995223445406,0.7770268114565745,0.6701086598160484,0.5542341589304425,0.4713913014732432,0.41104667098365705,0.35573940854991987,0.30403023075406277,0.25067111763477556,0.1836750437810953,0.10100217264330123,0.0143640174334732,-0.0640873256448752,-0.13318617891389284,-0.1906601874949108,-0.23066541020069453,-0.2501540963150918,-0.2513839100173872,-0.2415529670706231,-0.22422891893731964,-0.19446775878387162,-0.13466520177164346,0.0482277556584467,0.15603651452719475,0.14135239130035596,0.12157613328409629,0.10607816301349007,0.09403457130726374,0.08424808951861702,0.07477285937074754,0.0635793850254644,0.049095025938611314,0.03068372054519069,0.013557134479150856,0.004547314291255154,0.007721569586713563,0.020929385693643412,0.03820687965082493,0.04743297029900855,0.04587564201996151,0.031929433657786443,-0.0016763608287095962,-0.06891298558815419,-0.17639290003298258,-0.2818150895860225,-0.33788838430467366,-0.35380164159506766,-0.34606483554605066,-0.3202117462411526,-0.283154027986497,-0.24451242741095164,-0.2092896241096052,-0.18433859488757737,-0.17422314137015962,-0.18133936072228327,-0.20576126957820826,-0.25127339708502994,-0.3141777512148127,-0.3604163331077655,-0.34718916783409687,-0.29824045142547034,-0.25544268096833844,-0.23217128770193138,-0.22783681723895238,-0.2421670947951143,-0.27972250377486446,-0.35744621989816344,-0.5241636405504666,-0.5651480383409598,-0.21038081948286744,-0.05520044422700361,0.015527962960152604,0.0561077544649364,0.08719854517860556,0.11951206556640942,0.16447196084899926,0.24071590673849827,0.39922745907088864,0.7926946761585997,0.8314495661181158,0.4934017176416345,0.36181002953073865,0.31405927675489714,0.3125508522675347,0.3526856830015641,0.43670678746627023,0.5377164468688469,0.5407776921784895,0.4556327077414043,0.4075524904482248,0.41456437610077995,0.4445276033069197,0.4638188081234806,0.4539991183350801,0.39810405177757785,0.2883005203563183,0.16428877773735842,0.07100968026477496,0.014566646853683043,-0.012306041559734741,-0.022638815097455217,-0.029370177929776187,-0.04098824726361801,-0.06142653465189,-0.09795445018204643,-0.16922822415960853,-0.3310559547457069,-0.6879691895338274,-0.6906160313995838,-0.45009794627164446,-0.32491359640886136,-0.26069552379397437,-0.2292179789150248,-0.21540165982355822,-0.20226260561955675,-0.16957589499835837,-0.1094294169254726,-0.04068887386961968,0.017520634655117287,0.05864953690845694,0.08186694797976042,0.08923748912530412,0.08507818795501333,0.07941017848906753,0.08344449916283311,0.0858098213675116,0.06785784318339796,0.02315739911797282,-0.03708989234239425,-0.09039453033519801,-0.12165092375990466,-0.11162906200805567,-0.019793997899566058,0.18422527758646684,0.36183738954376093,0.36077100054087685,0.2101150019669721,-0.08909601773859456,-0.4749121208658713,-0.7318113426428515,-0.8051391001363382,-0.7637680455611695,-0.6417946654954452,-0.47833264322578095,-0.3338984358032096,-0.23648469389339938,-0.15876439793857136,0.002972042437968859,0.27434694713957286,0.4141322787156532,0.5335610263088614,0.6589113467572535,0.7635510308495288,0.829260963551388,0.8624971070783534,0.8752443289633732,0.8714941325614889,0.8483740184985978,0.7889459688474793,0.6410117220389094,0.28605916668908005,-0.31743177244984294,-0.8131737025397878,-0.9766239974355472,-0.9048804695653438,-0.7612044269346615,-0.6363232455409309,-0.5383606516154891,-0.45156293946853376,-0.36815137057960184,-0.2942124289511277,-0.2311731454870802,-0.1783958009799563,-0.13447672190630328,-0.09840840918433258,-0.0755432351475368,-0.08050539202728055,-0.13251570762977208,-0.24909187998631793,-0.4030683684523434,-0.5370848908926045,-0.6346101226428142,-0.6965374027421758,-0.7154402605944502,-0.6449932602175181,-0.48242059567846424,-0.33941081370267384,-0.27018574491006025,-0.2424903254753259,-0.22105859883531642,-0.17373626849195092,-0.09006516936943626,0.008572730529816008,0.07135659986682465,0.11921070947562468,0.17503257904410546,0.24854336210804678,0.3240688982245133,0.37309209851883696,0.39557231555460975,0.42246941048465764,0.4716798358599958,0.5131575483284626,0.31661194281607263,-0.04758329550790812,-0.2803299235035916,-0.4067145241938496,-0.4550317255369896,-0.4427292660594201,-0.39251751642381083,-0.3264486991079441,-0.2710617588378964,-0.25175150104985894,-0.258911151353677,-0.26050715812722347,-0.23895832308838164,-0.19956221602055718,-0.1636038530153836,-0.15042292123993545,-0.17902757127955224,-0.1540255426159483,-0.04832532450446661,-0.0013146869226522495,0.03039471631197897,0.0734720561558552,0.1775039024014209,0.6289024207480117,0.34914022630876923,0.2036132979736937,0.15818651549594318,0.14686987424437806,0.15994965569962605,0.20054731045264346,0.2781818816240665,0.35526124542928034,0.25319486222069176,0.09240144115219691,-0.030680893917375444,-0.14729897828685717,-0.26982761296770663,-0.3818024238584982,-0.4613519098997731,-0.49312537508302634,-0.4938501587341254,-0.48719194148775646,-0.47529122589524153,-0.45069347273431987,-0.40715504038500966,-0.3513412361384737,-0.2962813893954744,-0.2413048202193521,-0.1777872218370784,-0.1300633637074183,-0.12028163793814274,-0.1462582337489579,-0.17513848654022288,-0.15657541835188676,-0.12063653798159002,-0.08626501293030414,-0.052480076608912886,-0.0166217362287332,0.020229568580042632,0.06158094770057004,0.13476018279892205,0.2755487754858422,0.4446315479482342,0.5822371802478747,0.6820051503490723,0.7488496942348659,0.784159542752235,0.7968587811028438,0.7981925105081438,0.7995514167549247,0.8086785020118564,0.8281180012109054,0.8555261717670698,0.876170451387952,0.8658521470923474,0.8116598154546619,0.7264527962809653,0.6367377678689162,0.5642957164308644,0.5173795397130205,0.49542033493364734,0.4896601602615319,0.49002936264514657,0.48176291686189726,0.45093912324251967,0.37171254400797854,0.23012684480173834,0.03783358477423627,-0.14969035716177614,-0.2861235886360607,-0.38373421699355353,-0.49026653247142565,-0.6065119971069052,-0.6914026475282028,-0.738209071812388,-0.7637555599016511,-0.7735849598767638,-0.7682873838845657,-0.7447985460903065,-0.7177694930728192,-0.7182982610920394,-0.7661302350337656,-0.8470247634035537,-0.9021000681724682,-0.9079326716130639,-0.8991117493297293,-0.8919763499975865,-0.8845751565198459,-0.8756252886982018,-0.8646686162012137,-0.8483623092571556,-0.8136690591849488,-0.744229141817365,-0.6383361939147332,-0.542557400002246,-0.5065014193266947,-0.5300622336705183,-0.5817806771501516,-0.6297046472038779,-0.646429249432266,-0.6056583348134734,-0.5065639736870223,-0.3884078941844698,-0.28176483306884664,-0.18823423310356827,-0.08403889855775555,0.028320595711433135,0.07409064477505928,-0.029184361430888928,-0.2353538754303947,-0.4330666034874421,-0.5575991950356352,-0.6132052746283969,-0.6289085061505952,-0.6286975718877215,-0.6218502957753835,-0.6036587711208432,-0.56382618935306,-0.48407306259962357,-0.33703376927626055,-0.11677765031599471,0.14328337873189362,0.38204670272306984,0.5449527775828276,0.6205223670241802,0.6281730230456651,0.5916487294927627,0.5358207907674754,0.48409661625959477,0.4474086204690724,0.4308009546146006,0.43552149811625535,0.4614264504116663,0.5076590021191978,0.5538606085302404,0.5271906504917379,0.3747368905612605,0.20579455360709445,0.08949457617713424,0.01723411963040239,-0.029305105140377753,-0.061655972820270674,-0.08489091019590368,-0.09835629031292195,-0.09312600151270485,-0.032037966888069876,0.24096622290921052,0.24999107984915056,0.20764214251857968,0.17031933739949948,0.13264253251747654,0.09934403161091052,0.082417008994042,0.08410048853992391,0.09817352827246797,0.11494713204032092,0.1290430612889146,0.14016564333577555,0.1533987744972362,0.18219778154605848,0.2580298085092564,0.4232312890734302,0.5969934908325412,0.6372861008936103,0.6101012944283363,0.5552016780998772,0.47911132196738787,0.3866758771073933,0.27289965099256286,0.11706914087843741,-0.12010174548494035,-0.469388800955245,-0.7934392806234897,-0.8810790057291662,-0.8362411883763504,-0.7726766227465036,-0.7244497800728209,-0.6933356292849037,-0.6791134519853628,-0.6725922519091141,-0.6520434792379299,-0.6256983778519107,-0.6284630870570557,-0.6683661754441308,-0.7006190009265503,-0.6644922421120335,-0.5915373475853071,-0.5554617354673038,-0.5919792244969359,-0.7271273196682936,-0.840349017010004,-0.6458698792787788,-0.4177061703268404,-0.24838922169416144,-0.11745410570487771,-0.026333771070104334,0.03635272184465485,0.0873468065372903,0.14805976708763405,0.24846233251914193,0.4252565143115491,0.5178544893126755,0.3960206203883338,0.3012774300814386,0.25009945082501367,0.22783616529071232,0.23172014640878244,0.26512514366785733,0.33095795735994754,0.41595162410761416,0.48665976174258563,0.5176165284438934,0.49893710789048734,0.4434264971386714,0.3833211581917178,0.35167619447462184,0.375824612902458,0.42480797104843465,0.31479946054360863,0.23824665382353102,0.23515609244107724,0.2683230044144757,0.3144789214077282,0.3439811625739335,0.33471432913504406,0.29666907633326756,0.24731156942239899,0.19332709895122074,0.13965537498520986,0.08990330820673616,0.048692043743953216,0.01846378749863585,-0.011539791634315183,-0.0646610967741096,-0.1468830668553362,-0.1922267896281398,-0.19692114405589697,-0.20041125623887213,-0.21317089210925774,-0.2440697258347081,-0.298948693272999,-0.3792184570471026,-0.4676577045991404,-0.5310325226222248,-0.5416924084907686,-0.49343920306097894,-0.39712101292967916,-0.2816085381042605,-0.17012212375720864,-0.06906780656005228,0.024345268846234433,0.11157563434070078,0.1922435300263043,0.2709031894211225,0.3541898327771083,0.4465007614754238,0.5413738658579761,0.5836120001278698,0.5130644151913754,0.3938516105684347,0.2947596290576879,0.22503204561776413,0.18677272662528727,0.1808762422455769,0.21227564696422063,0.29259855966904064,0.3960223723444247,0.3796654832771585,0.33046471153097184,0.3228927041597467,0.34489920393005297,0.37939230542266206,0.41453097196249744,0.44019064309302774,0.4450678767799746,0.42252652607229974,0.3832528115459825,0.3434260097536201,0.3130008771978385,0.29109505300843025,0.26600312353061806,0.1673701739776028,0.06855243594040265,0.04392712740899876,0.01717994079401305,-0.05355642187506898,-0.18143096372857756,-0.3098719681205477,-0.34930943042470997,-0.2451305975030246,-0.08343236265695478,0.020828722047335022,0.04896091451784128,0.02205853005745731,-0.035197730438164446,-0.09601678556927169,-0.1377210589078152,-0.15112076915423817,-0.14152360847092138,-0.1183724364863666,-0.08962028471913319,-0.06534020261004041,-0.06038627505276956,-0.10267885541363136,-0.20689966569264445,-0.33992221476300283,-0.4746802696209472,-0.5964947246803722,-0.6720305343942093,-0.6856850107147399,-0.6552895875926917,-0.6039199985108871,-0.554303117642865,-0.5220690144350564,-0.5059772462397365,-0.4956056766893689,-0.4819789232190024,-0.4668397188391801,-0.45116641254483203,-0.4256605367962056,-0.3675958154347775,-0.24430174866897283,-0.045694659674146945,0.1668537375376426,0.2739272780593837,0.2612460981117522,0.18520192020607673,0.0960572385406656,0.026645451274041738,-0.013897881952370753,-0.026227644644153805,-0.01486431291639329,0.013351525208574157,0.045209267589505005,0.06881472816831011,0.07108454975550058,0.03403629801906789,-0.03850974446755419,-0.1250808786082212,-0.21492608594795193,-0.29333126287788647,-0.32765228466326873,-0.29546535177268124,-0.2279151610985313,-0.1560467349941416,-0.08770749919636762,-0.021892530311425906,0.043579690046957165,0.1120726235102836,0.19080831673981577,0.28410823409706915,0.3865334035873263,0.5000808280717628,0.6270047579919353,0.7496189668012178,0.840982262141024,0.8891039490082461,0.896000664313187,0.8577100313163857,0.7622308671302142,0.6152425056425488,0.4518562855276367,0.3006873515616444,0.16955994542964525,0.06500535702975865,-0.0011406244986801699,-0.0315211589730737,-0.042728957768398704,-0.06469861627169224,-0.13522598040141576,-0.2633659972237765,-0.4154239580369013,-0.5311101001487686,-0.5515954516796534,-0.4535641172967503,-0.2471063884247757,0.026341643514526013,0.2936613855615088,0.5096674470718439,0.6750540753065022,0.7942602912356583,0.8363203131750916,0.7538574316203908,0.5957912690431828,0.45989371250424976,0.3710855499952685,0.3156073599191767,0.27900918055751345,0.25015448576515065,0.22518051024104574,0.20566169040544893,0.1978142675146539,0.20446034727067522,0.21897930610804073,0.22020814945492798,0.2010663048430928,0.15580457223344232,0.037481551825195934,-0.21498080475488973,-0.48172838202834284,-0.6645007393677554,-0.7752951381486609,-0.8390774262604462,-0.8772943110580935,-0.9005087535285831,-0.9073275260202633,-0.8873587272350231,-0.8223978437648752,-0.6921187981119905,-0.5099387844779769,-0.33986498049321845,-0.2247218063200034,-0.16271188666612182,-0.13275598008296677,-0.1171036581835892,-0.10083077445306449,-0.08194031855500682,-0.0628057208220415,-0.04541475805901077,-0.02827931570023174,-0.008490627966913663,0.021044125993423656,0.0844161248576077,0.32048569670991817,0.31462508405525585,0.16380629120035678,0.11379706349831842,0.0887533002488396,0.0749387972239051,0.06961129141353904,0.07342082030216392,0.08489231073275354,0.10247555291460408,0.12808600275124932,0.16959000665697505,0.23445017697246062,0.2673780705859255,0.21715472858198284,0.16688575694147592,0.13234845394888395,0.10364905594728531,0.0740762595751484,0.03969178383835217,-0.0002663113135206901,-0.048145804995185885,-0.10439321888806331,-0.14051461967148215,-0.08395391307186481,0.11256501837244315,0.3464015176419975,0.4913553002089448,0.5653221612867467,0.6097918162480747,0.650476263717326,0.6924989763468549,0.7107569289204124,0.6867062112158978,0.6329382050581287,0.5679649095263551,0.4893790407588745,0.3422950098015842,0.054931015725227704,-0.19014850510423204,-0.31999588810387336,-0.40436818056869783,-0.4772696881770432,-0.5465565924548952,-0.6113577977449868,-0.6696897009777586,-0.7155833420119612,-0.7369296194863169,-0.7244305218605326,-0.6750052728994841,-0.5970525106338318,-0.5114334442610728,-0.4394279405920349,-0.39145151112756704,-0.37513836258463584,-0.3771976355032776,-0.37222537501025993,-0.36490498862113885,-0.37427331712048345,-0.40550011952856035,-0.4515257747282506,-0.50177281518941,-0.5427041613025743,-0.5606922873179565,-0.5456685703600862,-0.4936303468871495,-0.39964445255241876,-0.2516540717004125,0.051657291628549394,0.46320320209867255,0.5488380224058432,0.6391586937583222,0.8264392764108194,0.8416669041142766,0.624596980923461,0.47577620365841755,0.4023156954458106,0.3756362018913843,0.38315363958261633,0.42410158776412377,0.4955812621604065,0.553251386497097,0.5653456513994752,0.572513300329121,0.5859460780347582,0.5888743398003086,0.5639593862935813,0.4944494969716407,0.38306553370984575,0.26073319317313615,0.15631489910477972,0.07810325576182568,0.02330661967002076,-0.014032975739289629,-0.036431774711562316,-0.047829630845277714,-0.05735486112349049,-0.07156716300160626,-0.08402175846831653,-0.08263601963275602,-0.06381495658990857,-0.030413462100098005,0.017060322507048035,0.08588938067531157,0.18987927000424965,0.32722151228953594,0.3552008474238569,0.23390639630946405,0.11199621375161586,0.013649581228887613,-0.05618043301043448,-0.09954469012594788,-0.1272235179816713,-0.18050948733436353,-0.3099033844528705,-0.4814820158635278,-0.6152849351088,-0.7095395370014608,-0.7715940165013961,-0.791435384523183,-0.7538675978247458,-0.6724253432408333,-0.5842536964104631,-0.5114972107421594,-0.4521178151709617,-0.38736986798738215,-0.30473635183897024,-0.20890884366280524,-0.11787206147547366,-0.045703548829868,-0.0026809858848653332,0.010368746313928827,-0.004557411068068492,-0.031044562301750192,-0.044441591203417424,-0.0013104871403352854,0.13042992154804645,0.3827169935871611,0.6769636798831171,0.781263984538097,0.7462206320596239,0.7014200728591743,0.6651896937485453,0.6248200904206084,0.562419557984878,0.42852509506170305,0.18962175776536916,-0.10183321520496352,-0.34593495442561345,-0.49455031268203886,-0.5578098646225714,-0.539926751381068,-0.4420541921738732,-0.30292495994309804,-0.17520007463255305,-0.07981652129113581,-0.021471961397690698,0.006667339062682578,0.02165064324845448,0.0335220599099875,0.04513240689308173,0.05386988270325731,0.05054527149364689,0.03155978380001837,0.010702429608771727,0.00910127068314589,0.03315205044666048,0.06637579052810592,0.10175588733372032,0.14485543215621935,0.1967519958857539,0.257916349031369,0.3258484895820956,0.4016961950377847,0.48540987937254615,0.5704074476919692,0.6383479321120265,0.6720017923449806,0.6658731618038657,0.6270168409566859,0.5946663697994737,0.609912843570595,0.686575164611786,0.6920097090713524,0.4950116066481089,0.3544816217964643,0.305130722848393,0.315853711988133,0.35415955567250534,0.34395588314095343,0.2952841754447962,0.2529998820935034,0.21887208270787495,0.19001949424970843,0.1655748267847426,0.14073564159284124,0.10638843642187115,0.04491049301645451,-0.0778247965783157,-0.31730129504827986,-0.6588353662197224,-0.745616369133856,-0.6090675675313596,-0.48020241903932015,-0.3968383162229471,-0.35280821083821123,-0.3438416940537893,-0.37459645337357367,-0.45245724917932856,-0.5759204053399092,-0.6846826073616344,-0.7000390549157778,-0.643716779313507,-0.571225000182424,-0.5108483554642922,-0.4700354634406828,-0.4472892149198432,-0.4375644993572646,-0.4240391110433387,-0.39533051187772916,-0.3726016725711261,-0.38636070876642237,-0.43290306526857947,-0.5033846724673482,-0.5888450729283672,-0.6673573164256963,-0.6977246639249524,-0.6500780853430355,-0.5622462293182567,-0.495105363156019,-0.4603705141995438,-0.44885305921808083,-0.44126572717848866,-0.40707940841088713,-0.36367724438026044,-0.32632546176631533,-0.3038660897134571,-0.30359165541130034,-0.32686865006785726,-0.37047220740220654,-0.42916205516040207,-0.4660938405346535,-0.42371657265817847,-0.275617319254352,-0.0877451839560213,0.06685006121919303,0.17396421888128738,0.23038652765415882,0.217729819877174,0.0994717728158504,-0.1712209881105183,-0.5146325475905527,-0.7338759485139662,-0.8064071282269656,-0.7729541375560244,-0.6623519010379266,-0.5300425127037118,-0.4193166831491117,-0.3347906224501251,-0.26318386976128694,-0.18347196039131297,-0.07501793832505961,0.07046919120828098,0.23599400237649562,0.39060363162108847,0.5178023183044925,0.636980751357218,0.7819766451515006,0.9021979445305328,0.79894184911086,0.5953175465976565,0.45769169877262983,0.37897054700093924,0.3344761126801007,0.30831092115739706,0.285775412401958,0.25911889572861063,0.2337231646110517,0.21646237372039945,0.21112091242629397,0.22481623188369748,0.2720137692036225,0.3814029564061198,0.6091287661309263,0.8867129271709218,0.7233907626864906,0.4815529744394288,0.3165724488257521,0.18149316455985512,0.046175164102567355,-0.08766581770555026,-0.18080721450897896,-0.19721149224660278,-0.15659374970159412,-0.11467202346814659,-0.12100870306676012,-0.2165901088693352,-0.42144602478757076,-0.6513875811404802,-0.7796749994256615,-0.8291153113320021,-0.853923501792207,-0.8666447769935879,-0.8621277775189741,-0.8356607640941245,-0.7975133726115554,-0.7643143923261427,-0.742612930672775,-0.7289035008138506,-0.7155506744530534,-0.693661079130947,-0.6535810582511633,-0.5935465106119111,-0.5250426459393499,-0.4655261254548291,-0.41870993024105285,-0.3738774714125312,-0.3198084520349442,-0.2602947563406184,-0.2029278774252885,-0.15687518818992627,-0.12675288084749148,-0.10320059801075704,-0.07001136159479675,-0.020801917158152695,0.03583785797070678,0.09535353576510096,0.17049812961717611,0.2870304765633505,0.4789648840856817,0.6853853846845568,0.41577912130461775,0.11977167374890677,0.003098496046645624,-0.05675394051376703,-0.10682994747078671,-0.17499021571205456,-0.2906346591993875,-0.17099659168503323,-0.06456324986451668,-0.03452056217522773,-0.03266460530151542,-0.04589140464696694,-0.06585949623841834,-0.08521050086741279,-0.0946195446547658,-0.03904987075554421,0.027790983238138937,0.03496136670337431,0.031150343509108145,0.027392897496248753,0.026731898368890478,0.03291331141928452,0.05118984240125443,0.09358098461708617,0.18079314672540112,0.30362460806733427,0.38365764848594236,0.4364328837658431,0.4701966414766225,0.4406939825119778,0.38430412497330907,0.3368143081923746,0.293682220786458,0.24539637022730332,0.1922216612987137,0.13595342155654616,0.07364769061141606,0.008873619593618985,-0.04799324793159232,-0.08280060010103642,-0.08815786572255678,-0.08189725481699804,-0.08469588585690851,-0.10336293186137836,-0.1466777207481477,-0.2326949666386452,-0.37679523610652443,-0.46742777919142925,-0.4475991674106322,-0.383749429224031,-0.29785676399396394,-0.20808604220815888,-0.12289355647037724,-0.04234625242188871,0.03200461289180388,0.09854024927804601,0.15413027979670996,0.19070790443808427,0.2048874449867422,0.1984726754974735,0.1780495157489178,0.1507304942966097,0.12740432786105413,0.12180315630672867,0.13653722622185316,0.1628989996144125,0.14794310670619543,0.0189872636380441,-0.07201550666717618,-0.11816477236217554,-0.13422517236029752,-0.10946282609027254,-0.026403512098969798,0.08513798613613205,0.1354971013836439,0.13367969977576857,0.12225164006441346,0.10936140365452655,0.10207399112569916,0.11001963718511555,0.1090829159688722,0.07358483151221845,0.020568742056111502,-0.023151933581018913,-0.04905724046007638,-0.060752657145216014,-0.06484666686474083,-0.05600022411261883,-0.02250685478860969,0.061057271366979644,0.22821666415964487,0.40288530199479994,0.5005464527186594,0.5451668389027463,0.560545581713481,0.5725109264446105,0.6101048399187352,0.6577230617022836,0.6470905333798699,0.5666188397850698,0.49531756019189743,0.47638215386713395,0.5394310867797769,0.7499628912687103,0.7547861483337768,0.47042583685525846,0.3670276603317168,0.3594154042520603,0.39644765932852216,0.439168469349163,0.46092544326373175,0.4608501959676852,0.4349635771534427,0.3828595812967266,0.31570965661961203,0.24434536898618608,0.1676075474159187,0.06517869302629956,-0.09274231383090861,-0.1894203000253768,-0.17770219408811888,-0.13600342093626622,-0.0868812513880629,-0.02195147895433198,0.07231404467334496,0.22535370125955612,0.497986779670029,0.8116712977644521,0.7662060001589764,0.5753163923261287,0.40480151959920074,0.26037177277169093,0.12656365279476953,-0.018022871820410038,-0.21299446657672966,-0.4638864905200567,-0.6506729531115657,-0.7258944311140021,-0.7657132571109363,-0.7954587363998892,-0.7947397396091844,-0.7284821974218184,-0.5984657835195419,-0.466770911229503,-0.36945427195694563,-0.29901154828909154,-0.23297368055205261,-0.1443088087739701,-0.01267174225972944,0.14166649046972718,0.26235101641757785,0.3163870785857508,0.2976970978705343,0.2133952195456931,0.08647429544082912,-0.05147086496923769,-0.1819778294559477,-0.30105049562948716,-0.3946646267636125,-0.38494563089278255,-0.3379105809444165,-0.3493353495526304,-0.3679242399541615,-0.3560024023590836,-0.3050614359115946,-0.21455922849455297,-0.08757162349929569,0.05415506298041797,0.16620089373956845,0.2281343771982481,0.23294972585497606,0.19013091750407698,0.16752778359714188,0.28707924163702087,0.5684983802338365,0.7793781751887262,0.8595190703351467,0.8871203705895839,0.8939377258966842,0.8878168313676869,0.8678920486876385,0.8251655673982266,0.7296223515005205,0.5142432374163926,0.16396795550040968,-0.14552310298789026,-0.318148114302119,-0.3965277891088453,-0.4145221438154518,-0.38947571688969357,-0.3562221310244981,-0.3390795925870116,-0.3400420649004849,-0.35724649161990396,-0.3898412555274714,-0.43769932232974246,-0.494091630621703,-0.5448432556702436,-0.5827134901047165,-0.6127224769759722,-0.6449520592105885,-0.6967149221166529,-0.7878093200259434,-0.8757250063695156,-0.691298595320082,-0.37232070690966734,-0.1831135444601277,-0.07936655689911903,-0.017953395298718908,0.018834557277726545,0.03882554588565264,0.04846434545028112,0.05515296261029188,0.06526469028671782,0.08174066688398826,0.10254137803929429,0.12015978326777878,0.12428489032878333,0.1051211035928922,0.05448994366118566,-0.03909300661516352,-0.20979037423385802,-0.38737209531552547,-0.37466043817431977,-0.34098312476508436,-0.3423529456128127,-0.3628278026206998,-0.3690137264893417,-0.337792114488093,-0.2918415975548149,-0.2576233364665097,-0.24552908236323576,-0.26241058203268525,-0.31577947362057945,-0.322308634873411,-0.19360237024672772,-0.10105005671217883,-0.04315970577987223,0.0020243747262941206,0.04732956233255034,0.10086665635318243,0.15723782625879554,0.16809530048817112,0.12329509533215834,0.06153324158185754,0.016653557278590848,0.03163712739526747,0.11990575794660767,0.22013908728984266,0.27431227411653786,0.28702448558768306,0.28358746309075883,0.28245431056539705,0.29222328284307475,0.31791513742011995,0.3611460410292631,0.41776857054700756,0.44904638111034667,0.40431024717317265,0.3111165311814696,0.23974485776519158,0.20442228352018216,0.19633768411167207,0.20786855780761473,0.23614299771996705,0.28111265243407746,0.3438204531164306,0.42337049252783476,0.5075547533066983,0.5819122011774464,0.6401181529014567,0.6815487533972382,0.7000819090707843,0.6838703485615732,0.6361945814546076,0.579710085901689,0.5361480353449407,0.5147559954428464,0.5186796336243172,0.5538219430260203,0.603252582103106,0.5784683509175684,0.4406838752521761,0.2596338429089028,0.05030843806820296,-0.16280975998229727,-0.32873808678127986,-0.45123805003091627,-0.5518313361351843,-0.618811085138911,-0.6382486649343637,-0.6399547471373275,-0.6498834593401888,-0.6706459064826691,-0.6995826305683333,-0.7291852241398884,-0.7395922211722502,-0.687622814549201,-0.4489800771240547,0.03275206743769048,0.34304034188211857,0.4879974112911556,0.5916674661206687,0.6994520423635776,0.8069491604266488,0.8498384860954342,0.8208145520526415,0.7950989203104156,0.8033635229229236,0.8223507975294293,0.790889041352409,0.6613932623539699,0.46145210151788046,0.24949039749954868,0.05048299993824436,-0.13846443670761294,-0.31553816764205384,-0.4744842325859406,-0.6077934861616933,-0.7190500347308597,-0.7712424897750292,-0.6630589888262582,-0.4783909460944327,-0.34764584533514714,-0.27977780623096177,-0.2702163029653457,-0.347267470975926,-0.6151061591659402,-0.7542058207174609,-0.5609079045842864,-0.48033163018719927,-0.4608750242312318,-0.4653330153233737,-0.46319979066772127,-0.4399887131285532,-0.40345037907332204,-0.35558327469992435,-0.29020294518966616,-0.21258706017260862,-0.1480853602842912,-0.1163921942027664,-0.11202502244163973,-0.11563351333682713,-0.11473363476180422,-0.09978388575883726,-0.06739583148181788,-0.02448398858873847,0.011747286015630782,0.03234957468397941,0.040778607226224006,0.0419585976530884,0.04227037092452388,0.04221403253362865,0.027307181685029398,-0.00757154754984313,-0.024432441949676562,-0.031243975432866614,-0.035664672001357076,-0.04101934956158992,-0.049155715007596544,-0.06245556085902418,-0.08434151555836542,-0.1191248844508383,-0.15981499145495834,-0.14834753944110177,-0.011885487632419001,0.14630122945726962,0.20054196853650555,0.17240143895797205,0.10864814399681322,0.043650839186648804,0.0012285194393421791,-0.013594727848738162,-0.018401415921680372,-0.04759403453443191,-0.19626742060552188,-0.34317092418977624,-0.37687807887480523,-0.4056446280996314,-0.425313801436891,-0.41892261613131393,-0.3768477268947494,-0.317909692366264,-0.28324059197280593,-0.28224940014395344,-0.27611056747672297,-0.24939602204864808,-0.2159494806083247,-0.17649662775634714,-0.1266949697632527,-0.05763301982706111,0.03817325603758023,0.15252585303227562,0.26134646663531,0.3400610142860753,0.3734888341696152,0.37299328690326466,0.36595958814780954,0.37728693495767734,0.4172251745556842,0.48191662459538764,0.5606465343227546,0.6351024791522977,0.6897571728444631,0.725268016424167,0.7459527706072508,0.7302987827394165,0.6467413988132646,0.557125821606401,0.5220182110741657,0.541742573178264,0.6000604536451117,0.6759198195311914,0.752707592386523,0.8218376277359652,0.8734237495017638,0.8564702327963211,0.558217560346875,-0.05868647589916281,-0.46739544719810794,-0.692546151452404,-0.8375984506054805,-0.9130985167640461,-0.9220793432315083,-0.907204764635124,-0.9051935605430832,-0.8915388518277404,-0.8158005344420883,-0.6958036057353185,-0.5805811890039837,-0.4890498737059722,-0.4209700898231351,-0.37561466678238137,-0.3531939448347872,-0.35453190780986477,-0.37885430555881977,-0.4218952188841342,-0.47290881204106766,-0.5130525732955631,-0.4897285059619795,-0.38764253810943783,-0.2831772541024677,-0.21282425678978065,-0.17287209643642504,-0.15330047348581669,-0.14343969162208353,-0.13949742602729281,-0.14014016437297241,-0.14921360888067536,-0.16921559351881776,-0.2004304879728023,-0.23816615712150133,-0.2821501773359398,-0.33444297844854753,-0.387183469086058,-0.4048755240676051,-0.36205488916336664,-0.30071000377121476,-0.2634165072529755,-0.2686295409892909,-0.3054601197778544,-0.31671636188952357,-0.31905030606641765,-0.35990126032934033,-0.45212484425726496,-0.5883456877504251,-0.6671196301339705,-0.5978067278952399,-0.46278256281849106,-0.3398773322095014,-0.24623772139531108,-0.17784101517013062,-0.12166773965421354,-0.06819019477385094,-0.011128223588338716,0.05192521407893255,0.12221474639179543,0.1931655376243451,0.2628836450590482,0.34567427112198207,0.4933173047561333,0.788808020457126,0.8728779044182325,0.6738924160759899,0.581408462735398,0.5792010071926884,0.6351801060066827,0.7192809428855167,0.8008640105965426,0.8603095814130598,0.8960524577183381,0.9129939611636023,0.9156058929740247,0.9045113358295852,0.8679939071151468,0.7676555640851399,0.5049951244238328,0.06424906322019704,-0.2792607334702473,-0.43568555533336717,-0.45822591966682935,-0.36917549072520145,-0.1882668971132469,-0.0020579861094566837,0.09493339099508126,0.11352934410929624,0.08836260895367008,0.034760829255035035,-0.04179040030129512,-0.13907998843847955,-0.2525666087157712,-0.36013062908995086,-0.45415114831925263,-0.5609864299885143,-0.7083592581104726,-0.6496527400056185,-0.2970724471012498,-0.14073560010865382,-0.0987652608906869,-0.12884182305746655,-0.23008692501761702,-0.19327010275925977,-0.1524465032703225,-0.13941725992794465,-0.13998903115196565,-0.14703631107277457,-0.10948527305413049,-0.03036446933056229,0.02333620758960722,0.0677701317167695,0.11291189569158037,0.1639704129794939,0.22276617702320115,0.29208662484879483,0.31610378464718564,0.2606764449555818,0.20578021413167358,0.18509239077688006,0.18559345314062195,0.18641431587109578,0.17481970138999647,0.1522364700673448,0.13250148554821475,0.12628269096172945,0.1338119096641311,0.15477939635356502,0.19003535159623766,0.23277590715860205,0.25966622672894524,0.2571052930002683,0.25392419553628504,0.27164343853197287,0.31068440461247404,0.3551491069797308,0.3850090027454185,0.395068405636667,0.3934194524371786,0.3903221677890614,0.3885179266849497,0.38556735517177443,0.38088497216807937,0.37452388947934834,0.36260327274096227,0.3372966600197135,0.2933812643297772,0.23097798846616743,0.14270016364338675,-0.009958633432538378,-0.28452310380080376,-0.5593891844316693,-0.7012331515931407,-0.7647204346863391,-0.7859581497832285,-0.7616949835462512,-0.6685856593850018,-0.511728228422383,-0.35718192182256636,-0.25171931105851236,-0.19873101566105686,-0.187859866623732,-0.2100383405087578,-0.2556906542324884,-0.2999254429531049,-0.3351822665500693,-0.36272031628750745,-0.3872990848853322,-0.4153425059424397,-0.44765296795497356,-0.4842116961949611,-0.5196519894508634,-0.5469817686657317,-0.562317198691758,-0.5343140198545242,-0.41561094015286987,-0.2804481488455432,-0.20172022268514753,-0.17238111648573543,-0.16757704478164334,-0.17144415183742717,-0.16917541558743987,-0.08306336829570228,-0.029291546779965108,-0.013203963703985156,-0.005374035950841621,0.0004305329372619813,0.009466389234676222,0.023015058832078175,0.0342590610626914,0.03670245421348492,0.02864918748829608,0.010023812974051952,-0.021282999450971275,-0.06778621873890316,-0.13204696344688022,-0.20697481038261925,-0.25829113604253556,-0.2467773857823223,-0.20901104516080476,-0.1742439764859347,-0.14147539636195197,-0.09704314063498513,-0.04135389293639689,0.023694742731448712,0.095359857708068,0.1801800138463205,0.29517715338663414,0.43163218441829415,0.5137307398128765,0.49549425851771217,0.34909399395435714,0.08137909922780037,-0.22747180136176445,-0.4790292601842437,-0.6468528680689782,-0.7528366259286797,-0.8190241828181765,-0.85976661993482,-0.8928809114327504,-0.9224742625901277,-0.8923132106393172,-0.7366449288263013,-0.5361159511238947,-0.36272213141869497,-0.19507979845388626,0.11144572599784798,0.6926697032074162,0.6437641609637855,0.6320883604474741,0.6710576530019589,0.731956271173111,0.7980772382147601,0.8569396261605358,0.8923786664824436,0.880954354846825,0.8218494218514013,0.7720626415154214,0.7855179085273474,0.8439183305961053,0.8936096909235673,0.8511521828169695,0.636549664005756,0.3826196088934916,0.21314819832333382,0.1149775302563714,0.05563540176356831,0.005629601374570353,-0.06377880818037135,-0.18053310031694372,-0.33716139105925,-0.4235190740637208,-0.42562264947260764,-0.41992467298579406,-0.45456580662360146,-0.5975249528595942,-0.8557077588395946,-0.8381294967085836,-0.7500560488811885,-0.7665876598833402,-0.8579195813911809,-0.9440134895863298,-0.9261670840767147,-0.8442169303398878,-0.7697813967276215,-0.713912799913253,-0.6653201646909629,-0.6180244671064805,-0.5740586963730161,-0.5397232079770466,-0.5179656454415761,-0.5048036620766385,-0.4897963298735431,-0.44930072106871227,-0.3438699577336361,-0.09243627832723299,0.36508934016746797,0.24146825354678528,0.051027435927146196,-0.08930829869987542,-0.20601630396175302,-0.324888061859607,-0.45889949150653403,-0.5525214550329257,-0.5001321377883062,-0.35059529013200674,-0.20676821363000752,-0.11573995933468625,-0.06852233469078191,-0.04363368966401649,-0.02230644685655763,0.01391023749558099,0.06523851465593039,0.11231035261440739,0.15488082756432273,0.20489583742247722,0.28426516490889553,0.4046256564825751,0.32306882569616163,0.18885835867236547,0.12415578342598169,0.09047945913788387,0.07331186821671695,0.07056923006786435,0.0828915093123435,0.1097851967500236,0.14860137009675056,0.19832228869391805,0.2602389247372626,0.3339349370670238,0.41997647107240266,0.5327897291162732,0.6921272246384279,0.8320303790983085,0.7172411169744444,0.4825852641358682,0.3151521952905687,0.21646791960169118,0.1645055321437462,0.14153420725177837,0.13484307470082382,0.13713201378350928,0.1502213032493579,0.17423436324702232,0.20115954158963156,0.21523662867745436,0.20385005977314302,0.1674372689947736,0.11714736226933634,0.06638053203656796,0.024272266639846617,-0.008192166974143994,-0.033174653629898056,-0.05668102450267255,-0.08586552441528836,-0.12378744586234239,-0.17674619974869882,-0.25941219402706817,-0.39933721162769537,-0.622295099605525,-0.7787212802988512,-0.6278236643341975,-0.4576681246058299,-0.3878076151418672,-0.406136897743613,-0.47673022072468496,-0.5420967654794319,-0.5772161619493703,-0.6005582639692834,-0.6155435938423065,-0.6197502047616841,-0.6165219573524259,-0.6079163770877885,-0.5881832152420801,-0.5556541701674598,-0.517514061681618,-0.4848211120950957,-0.46232398308113465,-0.4446051442851568,-0.4154817264651332,-0.3515767593044771,-0.22174829451644712,-0.040051683673103744,0.06789109920602243,0.03695813155508082,-0.07819942965263685,-0.1993236378448638,-0.27606930699556503,-0.30574101005098214,-0.302432455657931,-0.2824227441473669,-0.2592385042994465,-0.24319986341901703,-0.23963626561985957,-0.2504673619347982,-0.275737047378557,-0.3021672498342466,-0.27947138871589966,-0.1405662987943946,0.07958765299142963,0.2714709618501638,0.37063918966321613,0.38002297802986545,0.3112110964436425,0.2134122711321602,0.13752797290256613,0.10490396177941513,0.09919088577864195,0.11078108262625401,0.1394126261343168,0.1880380762858465,0.252804902487419,0.3255183517331407,0.37794599039088805,0.3850409454929488,0.35174726282251345,0.30755265541438015,0.270020550004147,0.25214398724581494,0.24576001669482125,0.24456368079540172,0.2465745787825393,0.2678748817561318,0.32387400738121674,0.3870291970785507,0.4157336723821418,0.4181219753648132,0.40442026020378846,0.37307098100854363,0.31549080524271655,0.23633100994937514,0.1529577671971631,0.09616219350627239,0.08690795280262564,0.12306172303939282,0.21326239013992782,0.37191161594415895,0.5928556386180162,0.7651189341682775,0.8251493108223287,0.8054776855672594,0.7652725381014138,0.7428472446397923,0.7493806429348634,0.7527959301389765,0.6988789999031523,0.5938519974160249,0.48566199695754675,0.41181688038157155,0.37009522058698113,0.3391816744139138,0.30252011201900186,0.25558366080295974,0.20122928376544258,0.1470979231366788,0.1011691003428131,0.0693145192636504,0.05723514117790414,0.07827764363508291,0.14647572292062228,0.2539823141233837,0.36734837133970244,0.4451782778298916,0.45875239709679516,0.3952974297418067,0.2516822185806471,0.06764287661859165,-0.08697402445415871,-0.17709306335784356,-0.20540095259746852,-0.1876262285599093,-0.14377948222323272,-0.10149338721074182,-0.07262616141534504,-0.05153727860171759,-0.02997767000856322,0.0033069585522392557,0.05418813021346997,0.11739735611312015,0.1742204601209166,0.2118544638061539,0.23081825120334803,0.23749400533461643,0.23333293320207077,0.16881993257177633,-0.02199806289872036,-0.19843608766239873,-0.32971549028886765,-0.43940363896489215,-0.5128764998636078,-0.5525165065917467,-0.6056232106899517,-0.6930798017793774,-0.7838573375959079,-0.8231184293963278,-0.7959330183389794,-0.7226209025190982,-0.6252397098645811,-0.5366475092778963,-0.4757345083424759,-0.45676895319614397,-0.45922221712197964,-0.4396434983115059,-0.3655922209290757,-0.23370308526954772,-0.07843946617730606,0.05252619929507874,0.1475877594146427,0.22003925128702084,0.2880990329029513,0.3638230093862183,0.45252997835322717,0.5528322833077435,0.6576356577401654,0.757408304173566,0.8469684688301901,0.9212854499665483,0.9676977902731042,0.9777165125199946,0.9572805236563662,0.9163812773004125,0.8620352345902026,0.7728407756213038,0.5585686261891631,0.2778965249881456,0.09746747691842457,-0.007785996786669151,-0.08969326448164866,-0.17297968874385344,-0.26268440814859917,-0.35485305029898373,-0.43611521919736057,-0.4957310859132385,-0.5356086398537915,-0.5662082455306293,-0.6012972168866487,-0.6531781524475633,-0.7297469977639578,-0.8217539094708284,-0.9026210908467672,-0.9461782985778244,-0.9488942868438522,-0.9240804656013879,-0.8850884608939882,-0.8408185051428145,-0.7959968060453089,-0.7496119682476282,-0.7015662798770654,-0.661382454049006,-0.6445445675261049,-0.6570200580531832,-0.6172297617351431,-0.42503427641970554,-0.2773005805851066,-0.21120531054900638,-0.19093736454987145,-0.20288785412197421,-0.25293733274559055,-0.3654026620396761,-0.6020416090818987,-0.8301214821577718,-0.6399261386025399,-0.47031656969512137,-0.37444454821623147,-0.3131223361378793,-0.2673462258558801,-0.23265765958552106,-0.2093621900165373,-0.1881081140788063,-0.16579971591648013,-0.14650488531111688,-0.1348556999970357,-0.12933944618754867,-0.11730445642939151,-0.08337155737749097,0.016109733468183122,0.17493243859807114,0.19882541296122996,0.17416362974128607,0.1507466245503362,0.09845903900108056,-0.057662668530801715,-0.08214555045496016,-0.08339888704649803,-0.07571801928672127,-0.05135400106502575,0.006690987821029333,0.11831875509864649,0.1802694453826224,0.20416427818701416,0.2370142092739666,0.31458656950421043,0.49627291066839935,0.6219225090390373,0.42066044493904814,0.2873620075426892,0.21328068240236245,0.17076299711728682,0.15479126664796491,0.16572110317505262,0.18438828500532653,0.18964576398482413,0.17018547748279395,0.1349759027502115,0.09594513984400067,0.06754402769335574,0.06846060187098581,0.1360270418737512,0.3313109291902955,0.5847435863269728,0.7062481744516997,0.7372330733770701,0.7383316951415746,0.7318720468349729,0.7293331456687671,0.7389719674369765,0.763898418117623,0.8007760792772263,0.833794277384458,0.8431951201840155,0.8084064164602311,0.7016367379903554,0.48904230726542136,0.1818826557200255,-0.0702168950016602,-0.1352257574588867,-0.04212666953317244,0.17219291488743696,0.438041237229379,0.6299349214224992,0.7042904871319657,0.7292686007833438,0.7534853248887495,0.7858564359034109,0.8192535797504379,0.8436735014488173,0.8534997644943217,0.83591244816625,0.7606765839123398,0.6325252050625245,0.5145462459225993,0.4471344312979771,0.42426153065091715,0.4306978547055853,0.4487243105830376,0.4542860303747057,0.43160149447268037,0.36554360077815456,0.19781272575941208,-0.011741227433236922,-0.10833597847409632,-0.11811872590144733,-0.08018149906798012,-0.030944878680472417,-0.013015037510077274,-0.042037665485495264,-0.09552670815744853,-0.15067306895643026,-0.19531549115763705,-0.2231635184506251,-0.23131000284692801,-0.22285302805508742,-0.20846208447571737,-0.20349071201580587,-0.22546489531642352,-0.30554127035084133,-0.41588225432906906,-0.20832525002566232,-0.10367295317366225,-0.06465478929538623,-0.047748472732092644,-0.04055644339055257,-0.038650070900633625,-0.03883967880789325,-0.038546696755362264,-0.033331925080166074,-0.02301099403038622,-0.012869911968128145,-0.007487642870537282,-0.006611975257749613,-0.004717495486350312,0.00879882737162494,0.04445582534371732,0.07906214447651344,0.10192925626123617,0.13290244496763662,0.17369755752658184,0.2068562094822153,0.2700443417907463,0.34529002541510273,0.40913233936334537,0.42618300234385914,0.4056317957682071,0.38678618177321467,0.391570021144003,0.4184603591425704,0.4505569965290901,0.47075122908678385,0.4701477187478046,0.4450973178802953,0.3932021633692039,0.316045061775458,0.21776380568758197,0.11272918312051797,0.024144259194120676,-0.017801005503368984,0.010997143987222801,0.1138378553637221,0.25254819952492713,0.36135232586758237,0.38514959710394625,0.2835318022232117,0.024580308506450717,-0.3263451980658274,-0.6008708554082929,-0.7534858224637624,-0.8307354796026841,-0.8677544356855498,-0.8793003917579992,-0.8690412590024079,-0.8309384527574993,-0.7511751180807723,-0.6151136500100775,-0.42276038673033056,-0.18897425421706568,0.06660225821178002,0.3098793748866966,0.48716733231945686,0.5643308143804537,0.49652665213765107,0.16503504138380248,-0.332098249486325,-0.6188990343788542,-0.736342355656256,-0.7850191004483277,-0.8041238787573259,-0.808258648541553,-0.8036514574570527,-0.7917119936012629,-0.7706819803300387,-0.7373720193786814,-0.6897351186296148,-0.6281065350698273,-0.5560766414833566,-0.48116615224471015,-0.41727539638389355,-0.3751578032673297,-0.3556373582257691,-0.34999758593584424,-0.3459443976979392,-0.33194006374809293,-0.3026379070544785,-0.2583206117837555,-0.2079977723460225,-0.15097251052951233,-0.08763869590236563,-0.025429770343768685,0.027265312151653107,0.0718509260322363,0.1300159530950814,0.22175737364530562,0.3366357084544214,0.44492110318639083,0.5091811458773079,0.5063148841038176,0.42541461797887914,0.26958803466414,0.06914374310194919,-0.11187475275022903,-0.23117976054273306,-0.2939773619229723,-0.31405326467022476,-0.3116012226540735,-0.31228720698576706,-0.3334693995462326,-0.3606463838066129,-0.3643835208624365,-0.33907725400002103,-0.3001312951540854,-0.2672978211560866,-0.24235971182145213,-0.21207805954448483,-0.17656561346760935,-0.154413968966333,-0.1429608076256784,-0.13759123600506254,-0.12382257978818294,-0.0908536263754552,-0.016006583910641223,0.12367742004579077,0.32189404353535456,0.516007928639737,0.6497577151385078,0.7200811047759472,0.749052093430729,0.7444143135382298,0.6945157007710511,0.5871888553594427,0.44797555249958576,0.3342506148255117,0.27003043868955323,0.24265311199647432,0.2395564815101557,0.2557293913002514,0.2805391034027842,0.30468018796858676,0.31321796951096276,0.291399523358036,0.24453633110845596,0.19595946420687774,0.17246431286588418,0.18757421247182324,0.23925689854576168,0.3110057148266791,0.371455420458601,0.3793544771301567,0.3373797748750803,0.29894592226489475,0.3172053095948028,0.4228141308623056,0.5947358252800701,0.7471517850421354,0.8356990627151513,0.8833569152408202,0.9142293643046724,0.9311442940948611,0.9208901241399902,0.8719613930400183,0.7873167375886534,0.685477468296008,0.5909669303986994,0.5184442273732472,0.4711275151561069,0.44738714001192453,0.445812191531973,0.4553002043207692,0.467217178518776,0.4805227560103648,0.4993489204218911,0.52454346467727,0.5515717707402141,0.5720740333925682,0.5706472752760331,0.5152421314421366,0.34644916771680656,0.058536155085715816,-0.20821552310725314,-0.3602203183428712,-0.4288488597126637,-0.4656342522820186,-0.5020702371230662,-0.5569730211685142,-0.6389765996465392,-0.7428216293410677,-0.8447008120969756,-0.9107330479226889,-0.9335637334303448,-0.9358590061933575,-0.9309570351400783,-0.9197652701490963,-0.905840553954783,-0.8924193897878276,-0.8759961326012106,-0.86194611739305,-0.8772407159146965,-0.904758670296729,-0.6900571667021169,-0.2792730902186093,-0.053389280421268066,0.06660863331480982,0.17013044375190337,0.2709755572973154,0.24098028121760545,0.18986535034945795,0.18180438569882795,0.21664871909803654,0.2969229714795459,0.40668133595777334,0.5085832109615106,0.5868358337439294,0.6239142322501785,0.6134137751434304,0.5747585590651062,0.5088643647087553,0.3871403469743363,0.22992423570001277,0.09209102936849964,-0.011617193510640259,-0.09183129453875842,-0.16114430648846262,-0.2258329187627354,-0.28732405659854915,-0.3424435380364862,-0.37975448377998394,-0.39087089980910905,-0.38671265522483517,-0.3811295632749796,-0.3839829810723236,-0.39541681368627557,-0.39948530921285835,-0.35886203675364775,-0.2424612351173971,-0.11084308692498188,-0.03449407796218874,-0.0022805010128422822,0.009457077049039156,0.013872305530359832,0.01696523439563919,0.02108341443432074,0.03270163798977207,0.07318105566073543,0.10264124740631964,0.12108331929985834,0.16844343914107462,0.24533870536829022,0.3471383132863078,0.4394320286021042,0.4746325661897734,0.460684663659222,0.4346497469818845,0.4215219347460117,0.43421925751515167,0.49266078817536796,0.6359658946636634,0.7501447176455873,0.4573403412328143,0.26812171680104685,0.19113404223627434,0.1656746722373083,0.1717514745538729,0.2189652937617277,0.40807999732720535,0.417251370996916,0.149928764728383,0.08568653414302282,0.05714151236471643,0.027831709923793153,-0.021106137563197253,-0.10911486144542878,-0.2800262833472296,-0.5666479428779042,-0.7015760202260825,-0.5995437958966962,-0.4775989379610613,-0.3784349202333433,-0.3121319645939147,-0.28672227394712607,-0.3017639045881585,-0.3476424525798754,-0.4103087624546659,-0.4801242784701412,-0.5554657863241442,-0.6339336924391467,-0.7037545287820823,-0.7035648196240734,-0.513093849804917,-0.25766175498250055,-0.08923110834158807,0.012127201449941578,0.0770788240306807,0.11597381443595405,0.1262329471646908,0.04900075648813119,-0.24707647184553874,-0.2181949944768474,-0.17832865900009906,-0.13346724925105563,-0.08596291811733381,-0.03658551092673363,0.018621306348254863,0.08901909739226793,0.18921224612198714,0.32953328630866024,0.48687948758119987,0.6023556627805642,0.6704440800858416,0.7248071669040409,0.753526429657671,0.6630980397548304,0.4823449202202417,0.3413363013672671,0.25566224341799215,0.2027501433409457,0.16392344755446095,0.12262853040937083,0.057096378224194826,-0.05185638548052178,-0.12131567436301624,-0.0990849955623715,-0.026264152973155225,0.04661155966745806,0.06580647258085348,0.03905181560924077,-0.031985766102014514,-0.146306746487636,-0.2720995555521902,-0.374206292798792,-0.4494962822115475,-0.4999034194859344,-0.5273383078186177,-0.5371449525765232,-0.5367267914938613,-0.5330055504552113,-0.5335758412839781,-0.5444240091595409,-0.5667161866667995,-0.5923277937235767,-0.6147157202819503,-0.6214980731234663,-0.593875250482117,-0.5179829503348684,-0.42808535873753395,-0.3568193555458152,-0.27314809013939284,-0.01831926975752605,0.15641827084381446,0.22450741812180314,0.2768755698497668,0.34234635628933213,0.3629837743405187,-0.019737883292171247,-0.2981879421704396,-0.5140982217539264,-0.7139142471841351,-0.8568753993998915,-0.9280830363279762,-0.9544340919652163,-0.961798976914944,-0.9565736359878912,-0.9198534587026935,-0.7686208049254307,-0.2498519238771653,0.29501512000944086,0.4346350721194894,0.43529291362862055,0.40784024162738725,0.38449825334479665,0.3756292629714994,0.39219270504268855,0.4440849150748906,0.5361289860534741,0.6596807950048332,0.7882070009443648,0.8882160992032684,0.9404103890203749,0.953190044395032,0.946829151641324,0.9329268753013594,0.9139309181591057,0.8880750048830031,0.8501684488530395,0.7936249965114833,0.7149492814862944,0.6144267349722399,0.5005870779585367,0.3931815392653889,0.31245313293078275,0.2659750547366329,0.24628815335110155,0.2379241660761389,0.22611598213188888,0.20363961206563821,0.16850536891132142,0.12604992381217903,0.0798116381833474,0.02323924680996633,-0.06577841680045561,-0.2198729870876549,-0.4381954383876087,-0.6588787291867149,-0.8167090734339892,-0.8960171194579978,-0.9142588378762387,-0.9029127735509374,-0.8883123262039458,-0.8824655062297572,-0.8832832368065323,-0.8762803335735299,-0.8377369063655404,-0.7545696250262358,-0.6470501424002512,-0.5552869954441418,-0.5063806612364002,-0.5031188186005131,-0.49361687107546387,-0.39698269609017023,-0.29516990531985254,-0.238182926486793,-0.20887219510435173,-0.17316246636370533,-0.10414854007209191,-0.01628223655836798,0.08712627404255273,0.20073862681188614,0.2939948277951093,0.3479882024179268,0.37835713705398866,0.4051497646918902,0.4461363803699747,0.5108749924286479,0.5994454043958436,0.7027702185003389,0.7948000473128005,0.8488633475884549,0.8553281286739531,0.8060394358464535,0.6880227756207906,0.5172594022335079,0.3612631539340824,0.27968298922664486,0.28797757988496003,0.37576203654795914,0.46159288676011956,0.42400662600674727,0.32263759008874776,0.2280843233256736,0.14376064877055952,0.06882221945040934,0.010197518371803053,-0.0197053685160134,-0.01977282170625418,-0.0017129444844237824,0.01559598101973889,0.004490117822164971,-0.06913424266503063,-0.19484425287041995,-0.29710231359438805,-0.30507964777198815,-0.28071733098486734,-0.26403156922781446,-0.25620664699744583,-0.257386005730295,-0.26997951650418384,-0.29838876696591415,-0.3337282794182582,-0.32361937173597777,-0.24074745112996276,-0.10814179345152927,0.02894637579757291,0.13131527089752143,0.18984925546900433,0.2098502817030037,0.2004371291644533,0.16847131545648025,0.12144546184814221,0.07672557674613566,0.0653460244764739,0.14057739704012315,0.2968906510283623,0.4497378281288026,0.563786883723305,0.6199654113750076,0.619626490899417,0.5848335267254957,0.5403699530618044,0.5012096351816071,0.4714518737222939,0.45188780174475796,0.433367826693283,0.403842395969247,0.32581266451439017,0.16772019692028337,0.03896919806562932,-0.04901064457444975,-0.15041870969416676,-0.29216610013838273,-0.4365406711164247,-0.5186968952075884,-0.5364258959884302,-0.5208282575438647,-0.49554271508484365,-0.47719041795314526,-0.47320632230764054,-0.48060436827049546,-0.5039001082313934,-0.5536403393594413,-0.6242495485835388,-0.4903047693530257,-0.21572321627049848,-0.09221540129682311,-0.04468086941235249,-0.017229027445895977,0.016469036733137245,0.07431263874145994,0.1744218252253327,0.3249180718622069,0.49849721057427,0.639044825884122,0.7150847747612392,0.7258354553288757,0.6711265487041816,0.5286447395453511,0.294563218061343,0.061995311142537854,-0.055110997552935866,-0.045914397320949,0.0365578374954937,0.12340208899882461,0.18132811504086596,0.2221297170134838,0.26611176822608157,0.3270270469874815,0.407845248580296,0.48512295016958445,0.5261189146920774,0.5407838415038868,0.5505754592266813,0.5555991631109709,0.5424251129600103,0.48750040641741116,0.3477441906671066,0.0621732468026403,-0.31028219991183875,-0.5733711389138494,-0.7094547574862877,-0.7774128677845079,-0.8075047059506092,-0.8147024343029058,-0.8130879875730522,-0.8150689141933324,-0.8052189526624457,-0.7145565049068937,-0.5373982675216302,-0.39636410688927937,-0.34069009806087974,-0.38309253446811886,-0.5877108846955614,-0.27780197447042554,-0.08809303044147103,-0.016941208375737996,0.024113310309571562,0.041909064299715276,-0.012076597432681906,-0.3824248594301775,-0.6350216004893713,-0.6313927706277789,-0.6011889986816551,-0.521668389709448,-0.4100404047157322,-0.2848427753660081,-0.17686570460744985,-0.12233565383995001,-0.1094869585327209,-0.1209339867316919,-0.1442827057827076,-0.1759970489335529,-0.21526927264226528,-0.2612284888796724,-0.3126670850404797,-0.3675132724119523,-0.41404962654021177,-0.4340750939540968,-0.40043837943412214,-0.2767618962059854,-0.04650249889262536,0.09421108614631564,0.11205950826128444,0.10936089838608017,0.1108761710267281,0.12078594588877434,0.13903000778698363,0.1614137267543201,0.1818462064381532,0.19121024904080175,0.1815810330325315,0.15501684525792106,0.1352837359948393,0.16817958787981596,0.2995507273349174,0.4810905670959432,0.6545529866679413,0.8001576756910306,0.6701188139856458,0.44733107248282933,0.3305147592004535,0.28823963033176947,0.28385840351914166,0.27629626434952065,0.23584112718544079,0.17902892095980433,0.11741334836447892,0.045905456277994146,-0.045077016166142875,-0.1665646967603789,-0.3241350102020261,-0.48975241098883276,-0.5972616396972026,-0.6177058140474434,-0.5455707134713348,-0.42647089796716037,-0.31119164885595935,-0.20732484499986342,-0.11065771690808988,-0.023866979861968732,0.045382655247882216,0.09602947033990009,0.13739872107108825,0.18028049092777765,0.22321482035150883,0.25620286112814317,0.26429484326199076,0.23883581387501557,0.18987069790824448,0.14836977290711753,0.13520823131929785,0.1571693074209475,0.206193597699223,0.24485275912773996,0.2466173913304574,0.22721253010339434,0.20202403513696038,0.1707915325867081,0.12639230320453881,0.059778290646829754,-0.024297844290478647,-0.04296568528951287,-0.03331905047592227,-0.022708301675856416,-0.01497749971631675,-0.011695354050289692,-0.013676700508043245,-0.021000844442232512,-0.031166601049626003,-0.03689670991678506,-0.02364992524644937,0.020653038076595492,0.07922624057230451,0.12417122762033095,0.15300301962506366,0.17580232422327202,0.1989525728993627,0.22170507869090564,0.23723213055685252,0.21817707022801394,0.12856134880498976,0.024745363984178644,-0.04160326996379294,-0.08553933781411509,-0.1287798157801666,-0.19301563996995424,-0.312059580603416,-0.4403102205930703,-0.41937457780598103,-0.37637760272957704,-0.3092199519712871,-0.1939403630799783,-0.11569423950578564,-0.07955562556427029,-0.07276458550791241,-0.10120521823964787,-0.1945163716787812,-0.39024770413311455,-0.6182705375622998,-0.7302303884068754,-0.7454087565119033,-0.7251494014587173,-0.6933032333386892,-0.6545285092041511,-0.6091717856503687,-0.5582074470216034,-0.5024069286664338,-0.44238949903336444,-0.37994245942291993,-0.3063582489054149,-0.1942400422021127,0.017031929013233246,0.4010258141853653,0.7948280179844648,0.9513743827531966,0.9825734877495801,0.97717230276162,0.9595538582922543,0.9420985971840408,0.9329992331165549,0.9356242023397422,0.9463739801750447,0.9548289910569839,0.9475190328128879,0.9210863409663711,0.8891695515746191,0.8735765583179337,0.8824658191568274,0.8750437651966699,0.7818722657944343,0.6564894298066197,0.5699801357594159,0.5191556973910835,0.4669277855417999,0.3391797601051745,0.08967479634749045,-0.19266716626269653,-0.4140713106433264,-0.5490703906100254,-0.6171038028999936,-0.6512773194106833,-0.6819266129407466,-0.72579490315944,-0.7828507982213841,-0.8395689498230602,-0.8861412653277038,-0.9205968953490932,-0.9451196451742541,-0.9631782430707416,-0.9759456710040322,-0.9829122300918033,-0.9793192168601133,-0.9501452859447377,-0.8740576710954653,-0.7433331385192383,-0.557482013790158,-0.3016130473894928,0.021641167297092537,0.33385636777230837,0.5443530586174418,0.6424244651003571,0.6514410510660319,0.5798745419579625,0.43241833291071985,0.24937978551130457,0.08860317411755105,-0.034328994988371504,-0.13909591112086006,-0.25418958508978856,-0.3944677806482561,-0.5019826404605982,-0.5173675940510499,-0.4847176853208268,-0.43251965801228115,-0.3424717233655017,-0.17287321819721818,0.12059829450733665,0.49483075885279393,0.7692659442911607,0.9012019365172311,0.9594276541213047,0.982137936678364,0.9689466883431397,0.914620847413104,0.8249880575041343,0.7070721359601194,0.5503112484851079,0.3533112923089727,0.153211527818035,-0.011943940038451673,-0.1409856439206816,-0.2495447795197055,-0.357585670464095,-0.4712366162718058,-0.6024882446666602,-0.7402010907042387,-0.8500738305737536,-0.9154857360286439,-0.9377902507485307,-0.9230732729685764,-0.8717583626419927,-0.7717897603260395,-0.594470897378099,-0.3275471827338295,-0.025147066791114135,0.26102501653424404,0.5099431695053599,0.6754458682813212,0.7541590374621256,0.7920488466208305,0.8224933193861308,0.8520295443623433,0.8344720506720148,0.7047007491296796,0.5595340112263573,0.4983875315267017,0.5551418429446572,0.6739114675793529,0.4375840355969693,0.29080792597485133,0.2653308776142524,0.3193860500098352,0.4778567666911536,0.8043820126302067,0.7433890066366576,0.410633347986334,0.1955151946697053,0.003576785753945035,-0.21320614225118828,-0.3634867923892771,-0.2837559981128747,-0.09012644014425801,0.08211372959620233,0.18086819620468933,0.20912422265921055,0.18119372881840076,0.10835199221429628,-0.023574705689910883,-0.16213459187963059,-0.2371801992425181,-0.25615165461476075,-0.2502372539782551,-0.2419037543395232,-0.24143208243438286,-0.2566639319129574,-0.29056172570763833,-0.3379665411401541,-0.39548498166820295,-0.4634598987755207,-0.5455897034672706,-0.6366807431979289,-0.7196860843144111,-0.7804852957518048,-0.8219485336255409,-0.8460284615543601,-0.856646776636856,-0.8590316703456301,-0.8522467105407707,-0.8282589022723311,-0.7931279921716321,-0.7656064346721771,-0.7570912292444795,-0.762537709767242,-0.7706844813172051,-0.7747997301062739,-0.782132616915009,-0.803057434151424,-0.8326594592556532,-0.8492752840168455,-0.8402015445827423,-0.783697534950834,-0.647405379141903,-0.3598106283439401,0.11736698479407341,0.534973888596202,0.7412813557436452,0.825232775020949,0.8531170844953798,0.8487817873586346,0.8175539973256151,0.7614949635584135,0.6867256459790236,0.6029955915967584,0.5169729058555085,0.4473405995335314,0.4065885083083189,0.39002944317050503,0.37500402799828353,0.32855306601988943,0.2585077471341465,0.19710961259783272,0.16118806300335028,0.15030292092495565,0.16358932916599087,0.19969846100474206,0.2559723219088838,0.3160139100732713,0.3431893970065415,0.3245614814333953,0.27955096995491235,0.21738503648842955,0.1356013812764653,0.04532289999775132
