-0.018868546015020426,-0.023798066524567868,-0.028095088926662137,-0.031076899348335685,-0.032211387848945124,-0.03110701889582283,-0.02751278180516964,-0.02168971678513307,-0.014280370052179909,-0.0065296725776313996,-7.410492787310445e-05,0.004132556787446552,0.006120430814888147,0.006642500080384041,0.0067228168087202856,0.007094287097802779,0.008088225969990101,0.009664471963669924,0.011672421146518107,0.014132163541673445,0.017314768881631814,0.021180081899669297,0.025145789279404984,0.02874003256494659,0.0314206475117487,0.03268566231132032,0.03228406627986227,0.03012551316468995,0.02626020634154088,0.020939125519772152,0.014493598111519169,0.007264962468600453,-0.00035521837101180784,-0.007312774617408717,-0.01277440506759956,-0.016238122054178992,-0.01754329212047452,-0.017091505103055786,-0.015475103842652048,-0.013075600542470998,-0.01022431022487121,-0.007493491902331579,-0.005696373357004982,-0.004983550467860614,-0.00525462391728954,-0.00608792437689364,-0.006820826138377648,-0.007162176879972998,-0.007272619350684803,-0.00738305562650819,-0.007794687377203015,-0.008818739601989064,-0.010043592939948349,-0.011218242902170114,-0.012141900765257964,-0.013125797723320098,-0.014832557626185263,-0.017181863745517216,-0.019390614041538634,-0.02065562264622183,-0.02015363225306558,-0.017322419568827744,-0.012212181774357438,-0.0061280833605506044,-0.0009274850651523396,0.0024659558682383507,0.003821324354360663,0.003459892881959148,0.0023253994254389776,0.0013716213953751443,0.0016226153529755882,0.0032289784161871862,0.005618442280198417,0.007536038395984746,0.008007909241653857,0.006491902342948323,0.0037008467839009305,0.0009198319000010404,-0.0003652580549771645,0.0005684401115648821,0.003369534858986559,0.006973808907854204,0.010427490175196865,0.013168344216973266,0.014704428749040757,0.014955427043063093,0.014403239469057737,0.01352977878681899,0.012586043290369185,0.01161218205154382,0.010718643735943115,0.00991546406280384,0.008991806199715994,0.007797072409243853,0.00660233861877171,0.005688720811342525,0.0054578063455705626,0.006020033355745738,0.007335243477699927,0.008961686652228849,0.01030701198524829,0.011160395034125083,0.011421429047384189,0.01114031120587471,0.010296976266011521,0.009182559203875625,0.007877389137580095,0.006481860428823137,0.005357408886428153,0.004644584758306101,0.004232954866077804,0.0037610858788752173,0.003259097344185488,0.003108500845727453,0.0033896143508150406,0.0038112842987020014,0.004212875374249321,0.004584346282820657,0.005066255325681904,0.005799158326143595,0.006672619627871185,0.007254926749363684,0.007254926749363684,0.007024012283591722,0.007114364731164735,0.007536038395984746,0.008078184055864914,0.008248859426662588,0.007626397038446177,0.005538124312884489,0.002104524395836836,-0.0017206265410994767,-0.005104027418831506,-0.007824806924690158,-0.00998335384497406,-0.011549557924528695,-0.012172020312745106,-0.011409002101218164,-0.009451243904330662,-0.007403133259870148,-0.006650150767579974,-0.007844884558052115,-0.010314662672444222,-0.012864763710060992,-0.014621726988663677,-0.01532450610521633,-0.015414864747677762,-0.015455026209290092,-0.015153830734418656,-0.013969138858071703,-0.01137888255373102,-0.007262577436559616,-0.002403330502245543,0.0023956773370942437,0.006752936356207429,0.010989719663327407,0.015286735870533256,0.01967411691508895,0.024141814687980892,0.02855931528002373,0.032193707637400835,0.03430206357172406,0.03482413159824227,0.03479401205075512,0.03515544662060085,0.03636021613030976,0.03794650403811477,0.03886011998707743,0.037735661010816345,0.033960706635240284,0.027625615502810695,0.01958375827262752,0.010638327007606871,0.0018133708350905867,-0.0058168509274647145,-0.011127884259708683,-0.013567549021502066,-0.012864763710060992,-0.009702242198352999,-0.005555816914205609,-0.002373211574247241,-0.0015499505508129602,-0.003347068476650715,-0.006891107147477123,-0.01103753181213567,-0.014702043716999921,-0.01687063255140901,-0.01717182183139203,-0.01603733333078259,-0.014521326432077057,-0.013477190379040634,-0.01330651500824296,-0.013677985297325454,-0.014039419867171178,-0.014119736595507422,-0.013888822129735459,-0.013497268012402593,-0.013457112745678679,-0.013808505401399215,-0.014471129251227958,-0.01536466756682866,-0.016509197981563285,-0.017623615043699182,-0.018195880251066495,-0.018085443975243108,-0.0177742127811349,-0.01797500769941972,-0.018918743195869524,-0.020003040710518276,-0.02037451099960077,-0.01959140895982345,-0.01744289775877632,-0.014109694681382234,-0.01022431022487121,-0.0065296725776313996,-0.002925398528763754,0.0011005479459462186,0.006080271831231184,0.011863180345566156,0.01752560571404182,0.021963183939446615,0.024402848701239998,0.02501527537021964,0.02407153367888142,0.02142103827956645,0.016883059497575032,0.010537926451020254,0.0035000518656161115,-0.0027346430466487557,-0.007262577436559616,-0.009953234297486917,-0.011549557924528695,-0.012603729696801886,-0.013376796017342435,-0.01374826630642493,-0.01383862494888636,-0.014481164970464727,-0.016448965081477415,-0.019872520606444514,-0.024059100537826974,-0.027944491189226418,-0.029972524200324976,-0.028717551314878548,-0.023376399054636277,-0.013828583034761172,-0.0007367295830373412,0.014533753378243083,0.03108933248939013,0.048829615866660965,0.06686105899956646,0.08301503588436704,0.09432987568163527,0.09833580027697905,0.09408895647106863,0.08253313551434958,0.06640926578725931,0.04909064368503165,0.033579200626921026,0.021591713650364122,0.013419342510995603,0.008218739879175445,0.004162676954422537,-5.4025367900850015e-05,-0.003869135883680084,-0.0061180433048919425,-0.006027685901408196,-0.0038490570113404437,-0.0007467690192071612,0.002004126317205585,0.0040522388201326255,0.005447766289911901,0.006220826415564031,0.005909595221455824,0.0046144658303078,0.0030583018064118278,0.0019539278973788013,0.0017932913432621047,0.0027069103896689745,0.004222914810419141,0.0053373293945996715,0.0052268918797986,0.0036908073477311103,0.001180865913260146,-0.0014294729803532274,-0.003347068476650715,-0.004521720916827849,-0.005154226458147131,-0.005495577819231322,-0.005294782900946504,-0.0048028344219154355,-0.004160289444426333,-0.003126193447048573,-0.0014897120753275146,0.0004379231668842135,0.0014519393626890717,3.633252497908238e-05,-0.0044815619331708845,-0.01156963555789065,-0.019711887149772025,-0.027221628244423385,-0.03289409552702424,-0.03634777059947848,-0.03813485342556831,-0.03905851128865615,-0.0398817747900458,-0.04077530691075809,-0.04145801458883721,-0.041468050308073975,-0.03980145806170956,-0.035845786401210646,-0.029731567820427823,-0.022292101539987525,-0.014732163264487064,-0.007975398467237459,-0.0024836490890483122,0.0019238083498916575,0.005548164368543152,0.008901447557254562,0.012405326005446323,0.016130077005284862,0.02000543193744753,0.023880780674721786,0.02757541212707318,0.031430689425873896,0.035476713533945825,0.03909103445284939,0.041580896395491874,0.042072844874522945,0.03981389739765242,0.03479401205075512,0.027756129411996042,0.019905031380860912,0.012144291992187218,0.004805221312422798,-0.0018611829838988494,-0.007754525915590684,-0.012573610149314744,-0.015726095941785968,-0.01641884553399027,-0.014451045422977584,-0.010696174875651903,-0.006589911672605687,-0.0032265915256798235,-0.0010680415079517124,0.0001467699778312692,0.0013716213953751443,0.0039016423216745905,0.008128387431602432,0.013419342510995603,0.01857978368120343,0.022163978857731435,0.022987242359121085,0.02091904788641019,0.01736497225736933,0.014262683645747207,0.012586043290369185,0.011863180345566156,0.011049958758301694,0.00948375467874706,0.007034048002828491,0.003961881416648877,0.000959990883658004,-0.001479672019668853,-0.003075995027221789,-0.004079971477112406,-0.004873112953059543,-0.005796771435636233,-0.007212380255710516,-0.009471327732581036,-0.011971225394460288,-0.01374826630642493,-0.014571523612926157,-0.014722121350361876,-0.01493295818277188,-0.015896777507472058,-0.01764369267706114,-0.01950105031736202,-0.02089657902611898,-0.021318246496050575,-0.021117451577765758,-0.020796178469532363,-0.02045482772793701,-0.019601444679060224,-0.01813564115609221,-0.016448965081477415,-0.015033352544470082,-0.014320531513792239,-0.014129778509632608,-0.013517351840652966,-0.011900950580249231,-0.009250448986045844,-0.006037725337578015,-0.0035177444669372312,-0.002453529541561168,-0.0027948815221342013,-0.00340730695213616,-0.0029856370042491997,-0.0007266895273786794,0.0033394153114994153,0.008258901340787776,0.012887232570352205,0.01635095575182005,0.01876049477123787,0.020627894325663945,0.022324612314403924,0.024051456045519462,0.0258786941383332,0.02791676906355695,0.030336356191988368,0.03308725214788996,0.03611925975041261,0.03921150644790955,0.0417214522188024,0.04245435707773062,0.04048656316160635,0.035918464832127794,0.029613487052296925,0.022776405526711074,0.016852939950087888,0.012304925448859706,0.008911483276491331,0.005999953863917256,0.0029478649110995987,-0.0004254967163092626,-0.0035177444669372312,-0.00504378894334606,-0.003939414414824191,-0.00023474117224538005,0.004594386338479318,0.008479773892434551,0.009724704863755792,0.008158506979089576,0.0048253008042512795,0.0014218204346907698,-0.0011885190784114452,-0.0026643645155046483,-0.0033872274603076783,-0.0034876255389389293,-0.0032265915256798235,-0.002845079941960985,-0.0022426939481288463,-0.0014395130360118891,-0.0009576039931506416,-0.00133911557686948,-0.0027748020303057196,-0.005425299907576056,-0.008828781516114251,-0.012081661670283675,-0.01383862494888636,-0.013025403361621897,-0.009431166270968705,-0.003547864014424375,0.0037209268952182535,0.011049958758301694,0.016772623221751645,0.019553638725140376,0.018991415431898254,0.01567828998786612,0.010638327007606871,0.004955818430369675,0.00012669042405390318,-0.0025137680170466137,-0.0022025355839607242,0.0005182413200447933,0.004182756446251019,0.007355321111061884,0.009423515583772774,0.010035942252752415,0.009313079307949385,0.007405518291910985,0.004483948823678247,0.0005684401115648821,-0.004240607411740261,-0.009792594645926012,-0.015926897054959203,-0.02282421148063092,-0.030745584325977102,-0.03899827219368187,-0.04586546707186644,-0.049991814103163036,-0.051106224970410515,-0.049560104719106254,-0.04546387723529681,-0.038546485176263134,-0.02851675639659373,-0.015214069829392942,0.0014418999265192517,0.020487338502353413,0.03955286338439331,0.05480327862413325,0.06318649898568861,0.0636583636364693,0.05756421649416003,0.047393925696291674,0.035898387198765834,0.02501527537021964,0.015929282087000042,0.009363276488798486,0.005196772332311457,0.0025161549075539765,0.0006286789587436328,-0.0010178430881249286,-0.00227281349561599,-0.003045875479734645,-0.0032265915256798235,-0.0028751994894481285,-0.0024234099940740246,-0.0022527340037875082,-0.0024334494302438443,-0.0026543244598459864,-0.0024635689777309884,-0.0013190360850409983,0.0012411043887455915,0.0046144658303078,0.007576199857597078,0.009011883833077949,0.008931567104741706,0.008439618625710637,0.00863037162987027,0.009995780791140085,0.012003736168876686,0.013228583311947555,0.01237520645795918,0.008891405643129376,0.0033092963835011134,-0.0031864325420228596,-0.009099851248610126,-0.01330651500824296,-0.01551526530426438,-0.016238122054178992,-0.01615780532584275,-0.015896777507472058,-0.015635743494212956,-0.015344583738578289,-0.014922916268646695,-0.01407957513389509,-0.012141900765257964,-0.008668141864553345,-0.004210488483741959,-0.0003250990093713167,0.0016125759168057682,0.0014820589101762153,0.0003074062222035448,-0.0010278825242947488,-0.002152336544645099,-0.0027848414664755393,-0.0031362335027072343,-0.0035679435062528565,-0.004190408991913477,-0.0050036299596890954,-0.005776691943807751,-0.006268638564372294,-0.006519636858394629,-0.006519636858394629,-0.005977487481581411,-0.004903231881057845,-0.00361814192607964,-0.0027547225384772374,-0.002503727961387952,-0.0025940859843605413,-0.0029053190369352725,-0.0032265915256798235,-0.0035177444669372312,-0.003628181981738302,-0.0032065120338513418,-0.0017005470492709948,0.0003074062222035448,0.002004126317205585,0.0031787793768715605,0.0036406083084154846,0.0035201313574445936,0.00347997237378763,0.004353431817048694,0.006451740881335993,0.009142397742263294,0.011853138431440969,0.013851051895052383,0.01478475167226542,0.014473520478157212,0.01314826658361131,0.011341112319047945,0.009985738877014897,0.009835147334467597,0.010728685650068303,0.012104130530574887,0.013539820700944177,0.015497572702943262,0.018780578599488246,0.023368754562328762,0.02827819743851425,0.03207323564234068,0.0334888419844596,0.0323242277414746,0.029141616206627814,0.025135753560168214,0.021541510274626606,0.019091809793596454,0.017595886723141295,0.016250555195233433,0.014172325003285776,0.010989719663327407,0.007044089916953679,0.002907705307953793,-0.000776888566694305,-0.003768738424537675,-0.006198363750161237,-0.008417149765419426,-0.01051546378561746,-0.012212181774357438,-0.013155917270807243,-0.01335671218909206,-0.013055522909109043,-0.012643891158414218,-0.012593693977565117,-0.01329647928900619,-0.0145012487987151,-0.01569598258918724,-0.016639718085637044,-0.01758345358208685,-0.019189819123253817,-0.021529083328460583,-0.02380810843869306,-0.025053039410014296,-0.024541007102732857,-0.02216158763080218,-0.0184067170834765,-0.01392898359134779,-0.009370927175994418,-0.00504378894334606,-0.000997763596296447,0.0025964728748679037,0.005869436237798861,0.008700652638969743,0.01102987493005132,0.01275671866116686,0.01386109380917757,0.014573914839855413,0.015256616323046111,0.015989521181974328,0.01651158920849254,0.016682264579290215,0.017204332605808427,0.01888097296118645,0.02142103827956645,0.023499268471514106,0.024091611312243372,0.022746285979223933,0.019664075000963763,0.015136144327985955,0.009704627230393836,0.004102437239959409,-0.0006162522603731452,-0.003628181981738302,-0.004662277979116063,-0.0039092948673370475,-0.0018310640559005477,0.0009298719556597021,0.0036004493247585208,0.005568243860371634,0.006431663247974036,0.006180669290373592,0.005307209227623686,0.004303232777733069,0.0035000518656161115,0.0032892168916726313,0.003821324354360663,0.004785141820594317,0.005879476293457523,0.006511979976310279,0.006351346519637793,0.005407607306254937,0.003821324354360663,0.0017029339397783574,-0.0005760932147672973,-0.001981660554358582,-0.001359195068697962,0.0019238083498916575,0.007505918848497602,0.014041804899212014,0.019021528784496977,0.020296585498193784,0.017053741063261123,0.010136336614450616,0.0017631724152638029,-0.005415260471406237,-0.009280568533532988,-0.009541602546792092,-0.007453330440719248,-0.0048630728974008814,-0.002935437964933574,-0.0017607855247564403,-0.0006764911075518958,0.0007190363622273801,0.002094484340178174,0.0027069103896689745,0.0017932913432621047,-0.000867246589666894,-0.0049333514285449884,-0.00931068808102013,-0.012663968791776174,-0.014210095237968852,-0.013497268012402593,-0.010776491603988147,-0.0071822607082233725,-0.0041703295000849955,-0.0026342449680175047,-0.002262773439957328,-0.002112177560988135,-0.001449553091670551,-0.0003451785631486827,0.0011507463657730022,0.0027169498258387947,0.003911682377333252,0.004353431817048694,0.003821324354360663,0.0024458763764098686,0.0005182413200447933,-0.0015599899869827801,-0.0035177444669372312,-0.005013669395858916,-0.0058068108718060535,-0.006037725337578015,-0.005937328497924448,-0.005897168894778643,-0.006097963813063461,-0.006439313935169968,-0.007071824432399985,-0.007915159372263171,-0.008567747502855145,-0.008919140158575681,-0.008798661968627107,-0.00796536274800069,-0.006780670871653735,-0.006027685901408196,-0.006077884321234979,-0.006589911672605687,-0.007172218794098185,-0.007443294721482478,-0.006871023319226749,-0.0053650614320906115,-0.003086034463391609,-9.418441970158629e-05,0.0036104893804171827,0.008078184055864914,0.013017752674425965,0.018007518473836116,0.022495293880090014,0.02631040352238998,0.029412692134012108,0.03188247644329263,0.03322780797120049,0.032605339388095664,0.029563289871447827,0.02474419944283535,0.019864876114137002,0.016451350113518254,0.015296777784658442,0.016300758570970953,0.01888097296118645,0.021672030378700368,0.0232884316391041,0.022937038983383562,0.020658013873151086,0.01703365723501075,0.012796873927890773,0.008710688358206514,0.005056215270023243,0.0016125759168057682,-0.002142296488986437,-0.006760587043403362,-0.012302540416818868,-0.01841675280271327,-0.023717749796231626,-0.026950552317039096,-0.027854132546764988,-0.027472620343557307,-0.027171431063574288,-0.028285841930821766,-0.03154876399911638,-0.03674936663093654,-0.042733065107645594,-0.047833267182879134,-0.05040343965896944,-0.04976089963739107,-0.04631726028417359,-0.04080542645824523,-0.033586838924340126,-0.024822124944242338,-0.014601643160413302,-0.0022226150757892063,0.013549856420180946,0.03240454446981084,0.05139979453763969,0.0656663128193175,0.07128860770062291,0.06747348566854611,0.05643976371278736,0.041671255037953304,0.0265613956215239,0.013569940248431321,0.0038012448625321807,-0.0026242055318476845,-0.0058168509274647145,-0.006399158668446056,-0.005144187021977311,-0.0025539270007035775,0.001060388342800413,0.005297169791453866,0.009855224967829554,0.014664273482316843,0.019694194548450908,0.024513284977063385,0.028549273365898548,0.030928699032717638,0.0308985794852305,0.028820349293282838,0.02502531108945641,0.02012590393250769,0.015276700151296486,0.011722618327367207,0.01030701198524829,0.011090114025025608,0.012987633126938822,0.014393197554932551,0.01377073516671614,0.010578087912632584,0.005076294761851724,-0.0018611829838988494,-0.008447269312906569,-0.012312576136055638,-0.012272420869331724,-0.009180174171834787,-0.004822913913743917,-0.0007568090748658231,0.0016828544479498754,0.002064365412179872,0.0007290764178860419,-0.002011779482356884,-0.005334941884603467,-0.008266552027983707,-0.010154029215771736,-0.010846772613087622,-0.01036486604818174,-0.008617944683704245,-0.0060678448850651585,-0.00361814192607964,-0.002112177560988135,-0.0019916999905284023,-0.003417347007794822,-0.00623851901688515,-0.009792594645926012,-0.013005319533371524,-0.015485145756777239,-0.01734250339707812,-0.01872799019170989,-0.01975204241649594,-0.020294188076376108,-0.02033434953798844,-0.019721922869008795,-0.01802520488026882,-0.015013274911108125,-0.01147927691542922,-0.008346868756319951,-0.006409194387682825,-0.005575896406034091,-0.005375101487749273,-0.0053650614320906115,-0.0051843460056342746,-0.004270726959227404,-0.002383251010417061,8.653137844805533e-05,0.0023253994254389776,0.004142596843105214,0.005437726853742081,0.006291107424663505,0.006642500080384041,0.006712774894595099,0.007013970369466535,0.0081886203316883,0.009855224967829554,0.011401345219133814,0.01247560081965738,0.01337918104938327,0.014312880826596307,0.01510602478049881,0.015688325707102893,0.01635095575182005,0.017244494067420756,0.018148074297146648,0.01824846865884485,0.01656178638934164,0.012726599113679717,0.007385440658549028,0.0020844449040083543,-0.0018411034920703677,-0.0036884204572237476,-0.004260686903568743,-0.004772714874428292,-0.005636134881519537,-0.006389116754320868,-0.0065999535867308735,-0.00608792437689364,-0.0047325558907713285,-0.0027446824828185755,-0.0009174450094936778,0.00016684946965975106,0.0006587978867419347,0.0006387183949134527,0.00020700851526559889,-0.000887326081495376,-0.0028250004501325036,-0.005124106910659987,-0.0065798759533689175,-0.006138122796720425,-0.003839016955681782,-0.0006564116157234139,0.0020342458646927285,0.003459892881959148,0.004293193341563249,0.005347368830769491,0.00680313353705653,0.008349259983249207,0.009694585316268649,0.011351148038284714,0.013921332904151857,0.017646083903990393,0.021792508568648943,0.024844599999421967,0.025808413129233727,0.024262292877929467,0.02056765523068966,0.015939324001125226,0.011662385427281338,0.009052045294690279,0.008831166548155087,0.011039916844176507,0.014985546590550236,0.019372921440217516,0.022886841802534464,0.024192011868829993,0.022465174332602873,0.01799747655971093,0.012074010983087743,0.00605015228374404,0.0011105873821160386,-0.002584046548190721,-0.005425299907576056,-0.007563772911431052,-0.009029576434399068,-0.009702242198352999,-0.009842798021663528,-0.009882953288387442,-0.009872917569150673,-0.009762481293327286,-0.009290610447658174,-0.008678183778678532,-0.008407107851294239,-0.008858901063601394,-0.009903037116637816,-0.011278481997144402,-0.012302540416818868,-0.012222223688482624,-0.010977292717161384,-0.009270532814296219,-0.007945278919750316,-0.007232457889072473,-0.007122021613249085,-0.00772440636810354,-0.008658106145316575,-0.009380969090119606,-0.009170132257709601,-0.007634047725642109,-0.005174305949975613,-0.0026643645155046483,-0.0005359341072125652,0.001050348906630593,0.002184842363150763,0.003198858868700042,0.004293193341563249,0.005568243860371634,0.006773013989569385,0.007827191956730995,0.008951644738103661,0.01030701198524829,0.011843096517315781,0.013118147036124165,0.013077991769400252,0.010919438654227932,0.007445679753523315,0.004644584758306101,0.004333352325220212,0.007094287097802779,0.01260612092373114,0.019212287983545028,0.024603643619524815,0.02689271064388248,0.02583853267672087,0.021882867211110373,0.016099957457797714,0.009905422148678653,0.0046947837976217275,0.0015824563693186244,0.0009499514474881839,0.0021748029269809434,0.003971920852818698,0.0047148639089390505,0.0033092963835011134,-0.000244780918159621,-0.0049333514285449884,-0.009521524913430137,-0.013246275913268673,-0.015886735593346874,-0.01763365695782437,-0.018667744901847187,-0.019240016304102915,-0.018989024204968997,-0.017362581030440076,-0.01415989805711975,-0.009963276211612105,-0.005907208950437304,-0.003045875479734645,-0.0018009445084134041,-0.001580069478811262,-0.000997763596296447,0.000739115854055862,0.0034900118099574495,0.006020033355745738,0.006632458166258855,0.004383551364535838,-0.0002749002178512279,-0.005846969855463017,-0.010625900061440848,-0.013567549021502066,-0.014782360445336163,-0.0145012487987151,-0.01292500280503528,-0.010093790120797447,-0.006308800025984624,-0.0021924955283020627,0.0015724169331488044,0.004363471872707357,0.005899555785286005,0.0060903112674010025,0.0052068123879701195,0.003911682377333252,0.003028182878413526,0.003239017852357006,0.0045241084268240524,0.006190708726543413,0.0074155602060361715,0.007686636133420465,0.007264962468600453,0.0065320638045606545,0.006110390759229485,0.006150550362375291,0.0064216213338488485,0.006973808907854204,0.007927586318429195,0.0092528402129751,0.010296976266011521,0.010477687356045966,0.00944359321713473,0.006923611727005104,0.0029478649110995987,-0.0017808650165849222,-0.00588712883911998,-0.00873842287365282,-0.010023509111697974,-0.009662080736740667,-0.008176193385522277,-0.006469433482657112,-0.005124106910659987,-0.0037787784801963367,-0.0017407060329279586,0.0018535298187475503,0.007917550599192425,0.01704369914913594,0.02925205867733962,0.043137058560921315,0.0556265421255229,0.0630660084059632,0.06366839935570608,0.05761441986989754,0.04682166048892436,0.03391050945439119,0.020909012167173422,0.009503832312109018,0.0005584003656506412,-0.005314862392774985,-0.007664167273129254,-0.006258602845135524,-0.0016503480099553693,0.004544187918652535,0.009855224967829554,0.011561984870694719,0.008509893439921694,0.0013816614510338062,-0.00815611575216032,-0.01792481051857062,-0.025615262703256425,-0.029932362738712644,-0.030795787701714622,-0.029159302613060517,-0.02580602190230447,-0.02128812694856343,-0.016338522610765613,-0.011589713191252609,-0.007081860151636754,-0.003216551470021162,-0.0005459739150756903,0.00033752552189515175,-0.0005058148075209582,-0.0030057164960776814,-0.006690312229192304,-0.010314662672444222,-0.012844686076699035,-0.013858702582248316,-0.013155917270807243,-0.01075641397062619,-0.006800748505015692,-0.0020017400461870643,0.0027169498258387947,0.00680313353705653,0.010045977971989185,0.012104130530574887,0.012656318104580242,0.011682463060643295,0.008921525190616519,0.004534147862993872,-0.0007066100355501976,-0.006298758111859437,-0.012322618050180825,-0.0184569142643256,-0.02385830561954216,-0.027813971085152656,-0.029882165557863542,-0.02952073718290624,-0.026378287109671782,-0.02080622038365755,-0.013768343939786884,-0.0065999535867308735,-0.0007066100355501976,0.002686830897840493,0.003329375875329595,0.0021647628713222814,0.0006286789587436328,-0.0003150592634570758,0.0004680424665758204,0.004002040400305841,0.01016645616193776,0.017395091804856475,0.024141814687980892,0.029623528966422112,0.03349887770369637,0.03608914020292547,0.03801677885232582,0.039643222026854746,0.04078775244158937,0.04081787198907651,0.039372146099470456,0.0363401384969478,0.03240454446981084,0.0285191538184114,0.025055430636943554,0.021581671736238935,0.017405127524093244,0.012063975263850973,0.0060903112674010025,0.000739115854055862,-0.0027145629353314323,-0.0036783810210539274,-0.0024836490890483122,-0.0002648604099881028,0.0015724169331488044,0.0016928938841196954,-0.00047569550782935137,-0.0045618805199736535,-0.009621919275128336,-0.014571523612926157,-0.018717948277584707,-0.021609400056796825,-0.02297480921806664,-0.022914570123092354,-0.02179011734171969,-0.019982963077156322,-0.017995085332781675,-0.016378684072377938,-0.015535342937626335,-0.015163872648543845,-0.014822521906948494,-0.014260292418817952,-0.01335671218909206,-0.012111781217770819,-0.010766455884751377,-0.00942112435684352,-0.008567747502855145,-0.008417149765419426,-0.008828781516114251,-0.009160090343584414,-0.008487430774518901,-0.006037725337578015,-0.0017507460885866203,0.003369534858986559,0.008098267884115287,0.011792899336466682,0.014393197554932551,0.015818845811176655,0.016059802191073804,0.01497550467642505,0.012545881828756855,0.009413473669647588,0.0067027391753583295,0.0053373293945996715,0.005769039398145294,0.007706713766782421,0.009985738877014897,0.011491703861595245,0.011672421146518107,0.011049958758301694,0.01087928338750402,0.012003736168876686,0.01434300037408345,0.017595886723141295,0.021149962352182156,0.02416189232134285,0.025587540577586953,0.02486467763278392,0.021882867211110373,0.017154135424959326,0.011963574707264356,0.007927586318429195,0.005508004765397347,0.004674704305793246,0.004815261368081461,0.0053875278144264556,0.006140510306716629,0.00684329499866886,0.007847269590092952,0.009654430049544735,0.011993694254751499,0.01454379529236827,0.01721437451993361,0.019302646626006458,0.019704236462576095,0.017887040283887542,0.014122127822436676,0.008921525190616519,0.003198858868700042,-0.0022426939481288463,-0.006700347948429074,-0.010023509111697974,-0.01248325770174173,-0.01415989805711975,-0.015204027915267756,-0.01585661604585973,-0.01609756623086846,-0.015726095941785968,-0.01484259954031045,-0.01406953941465832,-0.014089617048020276,-0.015234153657643319,-0.01749309493962542,-0.020063279805492565,-0.02182023688920683,-0.022021031807491646,-0.020545186370398445,-0.017804332328622042,-0.014912880549409925,-0.012995283814134754,-0.012674010705901361,-0.01359766856898921,-0.014862677173672406,-0.015846574131734542,-0.016067452878269738,-0.015605623946725811,-0.014812479992823308,-0.013808505401399215,-0.012433054326004212,-0.010495379957367084,-0.008085834743060846,-0.00526466335345936,-0.0024836490890483122,-3.82653487500884e-06,0.002225001346807727,0.004413670912022982,0.006762978270332616,0.00948375467874706,0.012636240471218287,0.015828881530413424,0.01881069814697539,0.021541510274626606,0.023800463946385544,0.025306428930965887,0.025818455043358914,0.025135753560168214,0.023228192544129812,0.020477296588228226,0.01721437451993361,0.014051846813337201,0.011521823409082388,0.00996566124365294,0.009373312208035256,0.009453635131259916,0.009473712764621873,0.00876089173394403,0.007034048002828491,0.0046947837976217275,0.0023655584090959414,-2.3906068209243078e-05,-0.0028751994894481285,-0.00596744742592275,-0.008427191679544614,-0.009431166270968705,-0.008909098244450495,-0.0073529360790210475,-0.005425299907576056,-0.0037084999490522292,-0.0022226150757892063,-0.000977684104467965,3.633252497908238e-05,0.0009298719556597021,0.0018936894218933558,0.0032289784161871862,0.005397567250596275,0.008891405643129376,0.013590017881793278,0.018328785387181093,0.02174231138779984,0.02314787581579357,0.022665969250887687,0.020758414429737703,0.017445288985705576,0.012455523186295425,0.005809198381802258,-0.0018009445084134041,-0.009481363451817805,-0.015987129955045074,-0.02037451099960077,-0.022723810924044303,-0.023848269900305388,-0.0237880308053311,-0.022010989893366462,-0.01825611934604078,-0.012734249800875648,-0.006338919573471768,-0.00021466161846801405,0.004815261368081461,0.008590216363146356,0.012013771888113457,0.01686298186421308,0.024754241356960534,0.036149379297899756,0.049241241422467365,0.060214718088363414,0.06554582223959207,0.06336720388083464,0.053990057036868794,0.03930186509037098,0.022545491060939116,0.007214765287751354,-0.004039812493455443,-0.010565660966466559,-0.013587626654864023,-0.015204027915267756,-0.016940907365620067,-0.01927013585159006,-0.021900553617543075,-0.02433017646521127,-0.026277892747973583,-0.02763325999511821,-0.02799468837007552,-0.026799960774491795,-0.02363743306789538,-0.018476991897687558,-0.011780472390300657,-0.004330966054201692,0.002887625816125311,0.00920263683723758,0.014252641731622018,0.018067757568810405,0.02073833060148733,0.02276636361258589,0.024653840800373916,0.027053344100554967,0.030195794173789425,0.03315753315698944,0.03426190211011172,0.03185235689580549,0.02554738531086304,0.016782665135876833,0.007977789694166714,0.0007491559097145237,-0.004511680861169186,-0.008617944683704245,-0.012513371054340455,-0.01628832542991651,-0.01947093076987488,-0.02151904141433539,-0.022071228988340748,-0.021549160961822536,-0.02076605892204522,-0.020505024908786113,-0.02123792976771433,-0.022864372942243253,-0.02499280031504001,-0.026950552317039096,-0.028536840224844102,-0.029580976277880526,-0.03003276329529926,-0.030123121937760695,-0.02998256611445016,-0.029259696974758713,-0.02734210643437196,-0.024209698275262693,-0.02032431381875167,-0.016348564524890797,-0.012533454882590831,-0.008477388860393714,-0.003959493906652673,0.0012009454050886277,0.006773013989569385,0.011622223965669006,0.014583956753980599,0.015095982866373623,0.013740615619228996,0.011170430753361852,0.007797072409243853,0.003981960908477359,0.00041784361310684745,-0.0020720185773311717,-0.0031663524307055362,-0.0031864325420228596,-0.002584046548190721,-0.0015599899869827801,-0.00029497977162859393,0.0016226153529755882,0.0041927958824208396,0.00680313353705653,0.008590216363146356,0.008750849819818845,0.0072448848352384965,0.004995977414026639,0.0036004493247585208,0.0043132728333917306,0.0069135698128799175,0.010056019886114372,0.0125258041953949,0.013600059795918464,0.013077991769400252,0.0113611899524099,0.009423515583772774,0.008208704159938676,0.00842957671158545,0.010688524188455971,0.014513675744881124,0.018409108310405754,0.021129884718820196,0.022204140319343767,0.02170214992618751,0.020135945846632874,0.018409108310405754,0.017003537687523607,0.01587908490615094,0.015246580603809342,0.015688325707102893,0.01738504989073129,0.019613877820114665,0.021200159533031254,0.021390918732079302,0.020376902226530026,0.018750459052001102,0.017124015877472185,0.015889126820276128,0.014915265581450761,0.013881171442539527,0.012626198557093099,0.011401345219133814,0.010387328713584535,0.00948375467874706,0.008389415249973121,0.006893492179517961,0.0052068123879701195,0.003921722432991914,0.003319335819670933,0.003369534858986559,0.0036406083084154846,0.0037711253150450375,0.003249057288526826,0.0018836493662346939,-0.0003953774166176556,-0.003216551470021162,-0.005826890363634535,-0.0077645678297158715,-0.00862798659782943,-0.008397072132057471,-0.007744484001465498,-0.007212380255710516,-0.007192296427460142,-0.008055721390462121,-0.009973311930848874,-0.012744291715000836,-0.01600721378329545,-0.01927013585159006,-0.02212142616918985,-0.024249859736875025,-0.02518355331919964,-0.02489240595334181,-0.023436638149610566,-0.021137535406016133,-0.0185071114451747,-0.01595701040755793,-0.013868744496373502,-0.012121823131896007,-0.010615858147315659,-0.009240407071920658,-0.007925201286388359,-0.006509594944269443,-0.004913271936716507,-0.003055914915904465,-0.0012788764818951926,-7.410492787310445e-05,0.0003174459681177857,5.641206017178314e-05,-0.0004957749996578332,-0.0010680415079517124,-0.0012085985702399273,-0.00019458206469064802,0.0023655584090959414,0.005869436237798861,0.009292995479699011,0.011923413245652026,0.01352977878681899,0.014513675744881124,0.015346974965507543,0.016441314394281484,0.01781675927478807,0.019664075000963763,0.022274415133554822,0.02564777967256124,0.02952313460472391,0.03317761079035139,0.03575782518056688,0.036912403704315117,0.0368622003285776,0.03572770563307975,0.034211698734374206,0.033549081079433885,0.03458317521834512,0.03740435218334618,0.04086807536481403,0.04325753675086989,0.04281579164757634,0.03886011998707743,0.03190256027154301,0.0232884316391041,0.014322922740721493,0.0059798743720887735,-0.0011985585145812654,-0.007122021613249085,-0.012091703584408862,-0.016318444977403652,-0.01959140895982345,-0.021398563224386817,-0.021559202875947724,-0.020535144456273257,-0.019531169864849166,-0.01942073358902578,-0.020193793714677905,-0.021659597237645923,-0.023426596235485375,-0.025113278504988585,-0.026579082027956603,-0.027623218080993026,-0.027562978986018737,-0.026217653652999294,-0.02412938154692645,-0.02211139044995308,-0.02065562264622183,-0.020414666266324683,-0.021428682771873965,-0.02311536504137717,-0.024621330025957518,-0.02494260313419091,-0.023537038706197184,-0.020906614745355753,-0.018426794716838456,-0.017613573129573998,-0.018958904657481852,-0.022553141748135046,-0.0277938934517907,-0.03299449608361085,-0.036699163255199015,-0.03779349648908454,-0.035624913849563865,-0.030574908955179433,-0.024018945271103063,-0.017683854138673467,-0.012844686076699035,-0.0098528337409003,-0.007864962191414072,-0.005585935842203912,-0.0020017400461870643,0.003128580337555935,0.009292995479699011,0.015818845811176655,0.022304534681041963,0.028137641615203723,0.03238446683644888,0.03493456787406565,0.03613933738377457,0.03700276234677654,0.03851876305059366,0.04089819491230117,0.04443219290798008,0.04966291508728738,0.05623896879450254,0.06272467005414468,0.06713214731672759,0.06815616237218314,0.0657265271347381,0.06046571638238575,0.05350814427707449,0.04602851653502185,0.03922154836203474,0.0338000731785678,0.029984957341379417,0.027485059679500167,0.025296387016840702,0.02213385931024429,0.017103938244110224,0.009975703157778128,0.0015021384020046972,-0.007081860151636754,-0.01494299390200865,-0.022061187074215564,-0.028436439668257485,-0.03369727520016351,-0.03750234912322671,-0.0397211351384849,-0.0404640819115383,-0.03964081841014866,-0.037773418855722586,-0.03536387364141635,-0.032683258694614234,-0.0298520460103764,-0.026659398756292845,-0.02191059553166826,-0.013537429474014921,0.0006587978867419347,0.0205977747781768,0.04285594691430026,0.06200178852467641,0.07270420165296498,0.0722624441598946,0.06176084453455608,0.045124936305295966,0.027073427928805342,0.011381267585771857,-0.00046565576191511047,-0.009220329438558699,-0.015836538412497773,-0.02048494727542416,-0.022884450575605206,-0.023035048313040925,-0.021840314522568786,-0.02033434953798844,-0.019711887149772025,-0.020344391452113624,-0.021900553617543075,-0.023537038706197184,-0.024631371940082705,-0.025153439966600917,-0.02562530461738161,-0.026579082027956603,-0.02797461073671356,-0.029139224979698557,-0.029048866337237127,-0.02702083332613857,-0.02329608232630003,-0.01893882082923148,-0.015344583738578289,-0.013758302025661698,-0.014039419867171178,-0.014812479992823308,-0.014772318531210976,-0.012995283814134754,-0.009481363451817805,-0.004883152389229363,-0.00037529786284028964,0.002737029317667277,0.0035602903411015574,0.0021647628713222814,-0.0007066100355501976,-0.003939414414824191,-0.006369039120958912,-0.007212380255710516,-0.007041704884912841,-0.006449355849295156,-0.00526466335345936,-0.002945478020592236,0.001080468454117737,0.006682655347107954,0.012927394031964535,0.018318749667944324,0.02143107399880322,0.021631875111976454,0.019613877820114665,0.016622025484315926,0.013760693252590953,0.011843096517315781,0.010999755382564176,0.011130275486637939,0.012023813802238643,0.013399258682745229,0.014654231568191657,0.01530681969878363,0.015055821404761294,0.01396148817087577,0.012415361724683093,0.011049958758301694,0.009955619329527755,0.009011883833077949,0.00819866224581349,0.007766952861756707,0.0076063132101958034,0.007345285391825116,0.006752936356207429,0.00572888041448833,0.0045743068466508365,0.0036205288165870025,0.0031888188130413803,0.0034398127706418242,0.004232954866077804,0.0052068123879701195,0.006110390759229485,0.006451740881335993,0.005548164368543152,0.003158699885043079,-0.0004455762081377444,-0.0044815619331708845,-0.008206312933009422,-0.010565660966466559,-0.010716258703902278,-0.00873842287365282,-0.005344981940262129,-0.0015901095344699238,0.0015121778381745174,0.0030683418620704892,0.002616552366696386,0.0007290764178860419,-0.001570030042641442,-0.00319647197819268,-0.0031362335027072343,-0.0010278825242947488,0.002927784799782275,0.007927586318429195,0.012927394031964535,0.016812784683363977,0.018911098703562012,0.01890105678943682,0.016802742769238786,0.012786838208654004,0.007556116029346702,0.002214961910637907,-0.001911382023214475,-0.003758698988367855,-0.0030157565517363433,-0.0001042241656158272,0.004293193341563249,0.008901447557254562,0.012244686353885417,0.013600059795918464,0.013569940248431321,0.013298864321047028,0.013308906235172216,0.013790812800078095,0.0146843511156788,0.015658212354504167,0.01636099147105682,0.016622025484315926,0.01641119484679434,0.01544737552209416,0.013660298890892753,0.011843096517315781,0.010678482274330783,0.01015642044270099,0.009503832312109018,0.008168542698326346,0.006190708726543413,0.003961881416648877,0.002064365412179872,0.0008897123525138966,0.000578479857479123,0.001070428398459075,0.0017932913432621047,0.0020744048483496923,0.0016226153529755882,0.00047808221249006136,-0.0009475645569808215,-0.0023129724792729533,-0.003427386443964642,-0.004391203910198296,-0.00526466335345936,-0.006097963813063461,-0.007011585337425698,-0.00802559564808656,-0.009129970796097269,-0.010154029215771736,-0.010645977694802803,-0.010063670573310304,-0.00802559564808656,-0.004853033461231062,-0.0015599899869827801,0.0008495533688569329,0.0017330528677766592,0.0012109848412584477,-0.00012430371939319324,-0.0012788764818951926,-0.001680467557442513,-0.001690506993612333,-0.0019214220788731369,-0.0032065120338513418,-0.006188322455524892,-0.010525499504854229,-0.014852641454435636,-0.01763365695782437,-0.01801516296614363,-0.016187924873329894,-0.013196078732419573,-0.01028454312495708,-0.007945278919750316,-0.006188322455524892,-0.004692396907114364,-0.003377188024137858,-0.0025238074532164334,-0.002102137505329473,-0.0017708255804151022,-0.0008471670978384122,0.001180865913260146,0.0037510458232165554,0.005769039398145294,0.006762978270332616,0.007435637839398128,0.008660491177357413,0.010618249374244916,0.012696479566192572,0.01429280319323435,0.015055821404761294,0.015045785685524525,0.014172325003285776,0.011863180345566156,0.007917550599192425,0.0032791768360139694,-0.0010580020717818924,-0.004270726959227404,-0.0060578048294064974,-0.006660192681705162,-0.006248560931010337,-0.0049333514285449884,-0.0026844440073331304,0.0003576050137236336,0.0038313637905304835,0.007465757386885271,0.011200550300848995,0.0146843511156788,0.01723445215329557,0.018348869215431468,0.018117954749659503,0.01676258130762646,0.014614076301467745,0.012355122629708806,0.010698566102581157,0.009995780791140085,0.009985738877014897,0.010045977971989185,0.009523909945470975,0.008058106422502957,0.005688720811342525,0.003038222314583346,0.001050348906630593,0.00017688927752287616,0.0006286789587436328,0.0023354388616087978,0.004644584758306101,0.006301149338788692,0.006562183352047797,0.005508004765397347,0.0036205288165870025,0.0018234108907492484,0.0006889174342290782,0.00023712787690608999,-4.398559720705542e-05,-0.000887326081495376,-0.0025940859843605413,-0.004963470976032133,-0.007252535522434429,-0.009129970796097269,-0.01075641397062619,-0.012794488895849937,-0.015685940675062054,-0.019099460480792387,-0.022362382549086995,-0.02499280031504001,-0.026569046308719833,-0.02644856811877126,-0.024731766301780905,-0.022332263001599854,-0.02010343507221648,-0.01801516296614363,-0.015394787114315807,-0.011850747204511715,-0.007774603548952641,-0.0034675454276216055,0.0004379231668842135,0.003359495422816739,0.005016056286366278,0.005668641319514042,0.006020033355745738,0.0067027391753583295,0.007596277490959033,0.008278978974149734,0.0087709274531808,0.009272917846337055,0.00987530260119151,0.010256814804399191,0.010146378528575802,0.00968454959703188,0.008961686652228849,0.008068148336628144,0.006773013989569385,0.005106414309338868,0.0035502502854428955,0.002405717392752905,0.002194882418809425,0.003580369832930039,0.006752936356207429,0.011381267585771857,0.01671238412677736,0.021862789577748416,0.025527301482612664,0.026531282268925177,0.024844599999421967,0.021712191840312697,0.018619938947927343,0.01651158920849254,0.015547769883792362,0.015246580603809342,0.015005624223912193,0.01506586331888648,0.016401152932669152,0.019563680639265564,0.0238707387605966,0.027685854597784984,0.029292213944063533,0.028187838796052824,0.025005233456094456,0.020798569696461617,0.015989521181974328,0.010718643735943115,0.00503613577819476,-0.0008070081141814486,-0.006630073134218018,-0.011951147761098332,-0.016539317529050426,-0.020314271904626483,-0.022944689670579495,-0.02433017646521127,-0.02432013455108608,-0.02322580131720056,-0.02196079271251736,-0.022091306621702705,-0.024641407659319475,-0.029410300907082854,-0.034500454873302784,-0.03755254630407581,-0.03715095646750617,-0.032773617337075664,-0.025163475685837686,-0.01594697468832116,-0.006740509410041405,0.002114563832006656,0.011290908943310425,0.021631875111976454,0.03258526175473371,0.041580896395491874,0.045496412789266874,0.04241420181100671,0.03288645103471673,0.019654039281726998,0.006271029791301549,-0.004451442385683742,-0.011368840639605833,-0.014601643160413302,-0.014902838635284738,-0.013015361447496711,-0.00956168018015405,-0.004893192444888025,0.0004981617662674273,0.0058292772541418975,0.009754824411242936,0.011451548594871332,0.011180472667487038,0.009604232868695635,0.007525996481859559,0.005548164368543152,0.004263073794076105,0.004353431817048694,0.006291107424663505,0.009292995479699011,0.01169250497476848,0.011973616621389543,0.009584149040445262,0.005086334817510385,2.6292760480176202e-05,-0.003949454470482853,-0.005907208950437304,-0.005937328497924448,-0.004883152389229363,-0.003316948929163571,-0.0014395130360118891,0.0007491559097145237,0.0032791768360139694,0.005578283296541454,0.007144484278651879,0.007897466770942052,0.008499857720684924,0.009222720665487955,0.009764866325368124,0.009564071407083303,0.008088225969990101,0.005658601263855381,0.0029478649110995987,0.0006487584505721146,-0.0009576039931506416,-0.001891302531385993,-0.0024334494302438443,-0.0026744045711633102,-0.0025940859843605413,-0.0021222169971579553,-0.0013089960293823364,-0.0001042241656158272,0.0012611838805740732,0.0024358363207512075,0.00326913739984415,0.0036104893804171827,0.0035703303967602193,0.0035100913017859317,0.003329375875329595,0.0028374273962985274,0.00163265540863425,-0.000244780918159621,-0.002493688525218132,-0.004762675438258473,-0.006740509410041405,-0.008427191679544614,-0.009842798021663528,-0.01114796808795906,-0.012463173873491357,-0.014019336038920803,-0.016067452878269738,-0.018707906363459516,-0.021589322423434868,-0.023998867637741107,-0.025133356138350542,-0.02480204731088038,-0.02335632142127432,-0.02110741585852899,-0.01859747008763613,-0.01658952090478795,-0.01537470948095385,-0.014260292418817952,-0.011890908666124043,-0.007714364453978353,-0.002162375980814919,0.0035602903411015574,0.008168542698326346,0.011190514581612226,0.012355122629708806,0.012003736168876686,0.010869241473378833,0.009885344515316698,0.009835147334467597,0.011451548594871332,0.014895187948088806,0.01954359681101519,0.02410165322636856,0.027675812683659796,0.029894604893806402,0.030938740946842822,0.030978896213566743,0.029754042875607456,0.027163786571266776,0.023740224851411255,0.020316663131555737,0.017204332605808427,0.014252641731622018,0.0113611899524099,0.008951644738103661,0.00747579930101046,0.007275004382725641,0.008590216363146356,0.011200550300848995,0.01429280319323435,0.01650155348925577,0.01670234221265217,0.01516625768058468,0.012917352117839348,0.011150353119999895,0.010377292994347765,0.01045760972268401,0.010989719663327407,0.011541907237332762,0.011782857422341494,0.011381267585771857,0.010317053899373478,0.008891405643129376,0.007817150042605808,0.0078071143233690386,0.00876089173394403,0.009855224967829554,0.010286934351886335,0.009654430049544735,0.008098267884115287,0.005819237817972078,0.003319335819670933,0.0008395139326871129,-0.001238717498238229,-0.0027446824828185755,-0.0035980624342511584,-0.004260686903568743,-0.005224504369802396,-0.00656983403924373,-0.008417149765419426,-0.010696174875651903,-0.013246275913268673,-0.015294386557729188,-0.015756215489273112,-0.014220130957205621,-0.011258404363782447,-0.00811595429054799,-0.005977487481581411,-0.005706413412663644,-0.007433252807357291,-0.010615858147315659,-0.013908899763097414,-0.016509197981563285,-0.018145683070217394,-0.01932033303243916,-0.02062550309873469,-0.022071228988340748,-0.023396476687998234,-0.0243703379268236,-0.025153439966600917,-0.02585621908315357,-0.026458603838008028,-0.02683007412709052,-0.02693047468367714,-0.026629279208805704,-0.02553494597492018,-0.022763972385656635,-0.017513178767875795,-0.009772517012564055,-0.0004556160160008695,0.0086705330914826,0.016320836204332907,0.021762389021161798,0.025135753560168214,0.027274222847090163,0.02935245303903782,0.03192263790490497,0.034663498141569785,0.03655096913446939,0.0367618059668794,0.03517552425396281,0.031962793171628874,0.027454940132013023,0.022364773776016252,0.017836836908150026,0.015045785685524525,0.014262683645747207,0.015085940952248437,0.01713405779159737,0.019814672738399482,0.022294498961805194,0.02352938801900125,0.022947080897508753,0.020527493769077327,0.016812784683363977,0.012545881828756855,0.008369337616611164,0.0045642667909921745,0.0011105873821160386,-0.002051938466013848,-0.004853033461231062,-0.007021621056662467,-0.00806575710969889,-0.007895081738901214,-0.006971423875813367,-0.00576665188814909,-0.004441402949513921,-0.0035779829424226763,-0.0035077044112785693,-0.003899255431167228,-0.004150250008256514,-0.003879175939338746,-0.003306909492993751,-0.003216551470021162,-0.0038892153755085658,-0.005314862392774985,-0.007091902065761942,-0.00862798659782943,-0.009320729995145317,-0.009099851248610126,-0.008387030217932284,-0.007774603548952641,-0.007523611449818722,-0.007794687377203015,-0.008778578140376731,-0.010264465491595123,-0.011931070127736376,-0.013226198279906716,-0.013828583034761172,-0.013216156365781528,-0.011017447983885296,-0.007332852250770673,-0.003075995027221789,0.000959990883658004,0.0043735113088771765,0.007204723373626166,0.009604232868695635,0.011471626228233287,0.01290731020371416,0.013800854714203283,0.013810890433440052,0.012796873927890773,0.010949558201715077,0.008228781793300633,0.004935738938541193,0.0017631724152638029,-0.000766848511035643,-0.0019214220788731369,-0.0010580020717818924,0.0015724169331488044,0.004775102384424496,0.0069135698128799175,0.0065320638045606545,0.003459892881959148,-0.0014093934885247455,-0.006660192681705162,-0.01099737035052334,-0.013728182478174552,-0.014250250504692764,-0.012443096240129398,-0.008828781516114251,-0.004591999447971956,-0.001228678062068409,0.00047808221249006136,0.0004981617662674273,-0.0008170475503512686,-0.0028049209583040214,-0.004521720916827849,-0.0048630728974008814,-0.003326988984822233,-0.0001845423187764071,0.0034197332788133425,0.005959794880260292,0.006622416252133668,0.005969834316430112,0.005076294761851724,0.004795181876252978,0.005477885837399044,0.007264962468600453,0.009865260687066323,0.013118147036124165,0.017244494067420756,0.02273624406509875,0.030366469544587094,0.040576915609179365,0.051941940197519854,0.06131909323637413,0.06502377899262754,0.06131909323637413,0.05106848571016953,0.03719351535093618,0.02303743953997018,0.011160395034125083,0.00255631389121094,-0.003075995027221789,-0.006780670871653735,-0.009923114749999773,-0.013497268012402593,-0.017382658663802033,-0.02089657902611898,-0.023617355434533426,-0.02547470687994589,-0.026338131842947872,-0.02639836474303374,-0.025785944268942516,-0.024872322125091436,-0.024109303913564493,-0.023868347533667345,-0.024028980990339833,-0.02415950109441359,-0.023597271606283055,-0.021810194975081642,-0.0184569142643256,-0.013758302025661698,-0.008397072132057471,-0.0033972675159663402,0.00036764482158675873,0.0019438878417201394,0.000819434440858631,-0.0027647619746470576,-0.00821635484713461,-0.014541404065439014,-0.020494989189549343,-0.024551049016858045,-0.025565065522407324,-0.02365751070125734,-0.019932759701418803,-0.014953035816133838,-0.008577783222091915,-0.001228678062068409,0.005487925273568864,0.010076097519476327,0.012023813802238643,0.012224608720523462,0.012013771888113457,0.01212421435882526,0.012676395737942199,0.013610095515155234,0.014724512577291132,0.015608008978766649,0.015949365915250417,0.015758606716202366,0.015316855418020399,0.01497550467642505,0.014895187948088806,0.01540721406048183,0.016531666841854496,0.017826794994024838,0.01911188742695841,0.020035551484934678,0.020587732864051612,0.020788533977224848,0.02068813342063823,0.02041705749325394,0.01978455319091234,0.018640022776177715,0.016923220959187364,0.014312880826596307,0.010578087912632584,0.005668641319514042,-0.0001042241656158272,-0.005595975897862573,-0.00951148299930495,-0.010866850246449577,-0.009521524913430137,-0.0063790748401956815,-0.0026242055318476845,0.0012611838805740732,0.004815261368081461,0.007837233870856181,0.010537926451020254,0.012867154936990246,0.014011685351724871,0.013409300596870417,0.011200550300848995,0.008329176154998832,0.006060192339402701,0.0052068123879701195,0.005287130355284046,0.005056215270023243,0.0034297733344720045,3.633252497908238e-05,-0.004310885942884368,-0.008055721390462121,-0.010214268310746023,-0.010927089341423866,-0.010766455884751377,-0.010334746500694597,-0.010394985595668885,-0.010987328436398153,-0.011680071833714039,-0.012101745498534051,-0.012382857145155112,-0.012945086633285653,-0.014230172871330809,-0.01585661604585973,-0.0172421028404915,-0.01802520488026882,-0.018005127246906862,-0.017021230288844728,-0.0150835559202076,-0.012563574430077974,-0.010194190677384068,-0.008236432480496565,-0.006469433482657112,-0.00495343092037347,-0.003648261473566784,-0.0025639664368733973,-0.0016603880656140312,-0.0008170475503512686,5.641206017178314e-05,0.0009800703754864859,0.0015021384020046972,0.001180865913260146,-0.0001042241656158272,-0.0020920980691596534,-0.004260686903568743,-0.0056260954453497165,-0.005144187021977311,-0.0025238074532164334,0.001873609930064874,0.0074155602060361715,0.013228583311947555,0.018499466952867187,0.02276636361258589,0.025587540577586953,0.026149770065717493,0.023981175036419985,0.019623919734239853,0.014654231568191657,0.011080078305788839,0.01049777118429634,0.01318842804522364,0.017927201745499874,0.022937038983383562,0.02726418093296497,0.030938740946842822,0.034211698734374206,0.03667144732441797,0.03728387399339761,0.035245799068173864,0.030527109196148008,0.023659901928186594,0.015708409535353268,0.007937628232554384,0.0017330528677766592,-0.0013792745605264436,-0.0007969680585227868,0.002787228356982902,0.0075460803101099335,0.011461584314108101,0.012917352117839348,0.011481668142358474,0.007967747780041527,0.0038313637905304835,0.00016684946965975106,-0.0029153584731050923,-0.00554577747803579,-0.007644089639767296,-0.008818739601989064,-0.009170132257709601,-0.008828781516114251,-0.0078047230964397845,-0.006328877659346581,-0.005154226458147131,-0.005134146966318648,-0.006358997206833725,-0.007885039824776029,-0.008889020611088537,-0.009611883555891567,-0.010475302324005129,-0.01152947409627832,-0.012663968791776174,-0.013808505401399215,-0.015033352544470082,-0.016187924873329894,-0.016699957180611336,-0.016348564524890797,-0.015204027915267756,-0.01363783003060154,-0.012041506403559762,-0.010585738599828516,-0.009300646166894943,-0.008015559928849789,-0.006298758111859437,-0.0041000509689408885,-0.001570030042641442,0.0008093943851999693,0.0022852398222931725,0.0028173479044700457,0.00276714886515442,0.002676790842181831,0.002897665871783973,0.003208898924358704,0.0035502502854428955,0.0035201313574445936,0.002917745363612455,0.0016527349004627318,0.00032748577598091085,-4.398559720705542e-05,0.000578479857479123,0.0015623768774901427,0.002225001346807727,0.0024659558682383507,0.0024358363207512075,0.0024559164320685305,0.0028775863799554912,0.004042199383962805,0.005658601263855381,0.007013970369466535,0.007536038395984746,0.00723484292111331,0.006582260985409754,0.006009993300087076,0.005558203804712972,0.004985937358367977,0.003891602266015928,0.0025964728748679037,0.0023755978452657616,0.004544187918652535,0.009383354122160441,0.015828881530413424,0.02169211420695074,0.024794396623684448,0.024181969954704806,0.020587732864051612,0.015889126820276128,0.011682463060643295,0.008640413543995458,0.006732858722845472,0.005769039398145294,0.0055883233522001155,0.0055280848767146696,0.004785141820594317,0.003369534858986559,0.001873609930064874,0.0010302694148021114,0.001170825857601484,0.00183345094640791,0.0020442859203513904,0.001291303428061217,-0.00046565576191511047,-0.0028751994894481285,-0.0058068108718060535,-0.00898941497278674,-0.012141900765257964,-0.014922916268646695,-0.017593495496212037,-0.02065562264622183,-0.024561090930983232,-0.029249661255521944,-0.03417918176506939,-0.038606718076349,-0.04183952679204489,-0.043696878237457354,-0.04405831280730308,-0.04326516885340057,-0.04182947868303129,-0.039942007690131676,-0.03711079500589384,-0.03289409552702424,-0.02668951830377999,-0.017603537410337225,-0.00463215843162892,0.012164369625549173,0.03122988831270066,0.04964283745392543,0.06388930907668336,0.0713889648929906,0.07149941975347923,0.06583698199522675,0.057172668571715574,0.047895916089447925,0.039562905298518504,0.032253946732375124,0.025457026668401606,0.01881069814697539,0.012545881828756855,0.007515960762622789,0.004353431817048694,0.003148659829384417,0.0030583018064118278,0.0031888188130413803,0.0031888188130413803,0.00347997237378763,0.004222914810419141,0.005257010807796903,0.006130470870546809,0.0063814660671249355,0.0056385217720268995,0.0038313637905304835,0.0017029339397783574,0.00020700851526559889,0.0001467699778312692,0.001903728858063176,0.005106414309338868,0.008529977268172069,0.011049958758301694,0.012184447258911131,0.012224608720523462,0.011772821703104725,0.010859199559253645,0.009232756384724726,0.00680313353705653,0.0037008467839009305,0.00018692902343711706,-0.003658301529225446,-0.007292696984046759,-0.010013473392461204,-0.011489318829554406,-0.01157967747201584,-0.010294585039082267,-0.008176193385522277,-0.006047765393236677,-0.004501641424999367,-0.004090010913282226,-0.004581960011802135,-0.004923311372886327,-0.004150250008256514,-0.0017407060329279586,0.002114563832006656,0.006431663247974036,0.00953395185959616,0.009885344515316698,0.00718464574026421,0.0022049218549792453,-0.0031161540108787526,-0.006228483297648381,-0.005284742845287842,-9.418441970158629e-05,0.007676594219295277,0.015567853712042735,0.02142103827956645,0.02352938801900125,0.02184270574949804,0.017585844809016104,0.012686437652067385,0.008560096815659213,0.005819237817972078,0.0038012448625321807,0.00163265540863425,-0.0016503480099553693,-0.006348961487596955,-0.011850747204511715,-0.017222025207129545,-0.021699758699258255,-0.024912483586703768,-0.026508807213745544,-0.02614737264389982,-0.02429001500359894,-0.02128812694856343,-0.017513178767875795,-0.01363783003060154,-0.010505421871492272,-0.0085878251362171,-0.007915159372263171,-0.008095876657186033,-0.008387030217932284,-0.007784645463077827,-0.004853033461231062,0.000819434440858631,0.008268943254912963,0.015889126820276128,0.022435054785115725,0.027726016059397313,0.03224390481824994,0.03626985748784833,0.039733580669316176,0.04200256386542347,0.04231379505953167,0.0402456067817092,0.036510813867745476,0.03204311609485354,0.027444898217887835,0.022294498961805194,0.015969443548612374,0.008248859426662588,-0.00015442301908480017,-0.008095876657186033,-0.01484259954031045,-0.020233955176290237,-0.024219740189387884,-0.026257808919723208,-0.02596666155386538,-0.023918544714516446,-0.02161944197092201,-0.020525102542148073,-0.020866459478631836,-0.0217298782467454,-0.021589322423434868,-0.01911953811415434,-0.014641804622025632,-0.00951148299930495,-0.00495343092037347,-0.0016403085737855493,0.00034756526780939265,0.0015824563693186244,0.0024358363207512075,0.002957904347269419,0.003249057288526826,0.003138620393214597,0.0023956773370942437,0.0007792754572016674,-0.0013893139966962636,-0.0034876255389389293,-0.0052445838616308775,-0.006700347948429074,-0.008075799023824076,-0.009380969090119606,-0.010204226396620835,-0.01036486604818174,-0.010023509111697974,-0.009682158370102625,-0.009631961189253524,-0.010023509111697974,-0.011057609445497626,-0.013015361447496711,-0.015525301023501149,-0.017603537410337225,-0.01855731482091222,-0.018155718789454163,-0.01609756623086846,-0.012111781217770819,-0.006710389862554261,-0.0013190360850409983,0.0023655584090959414,0.0033996544064737026,0.0017932913432621047,-0.0015198310033258165,-0.005124106910659987,-0.007433252807357291,-0.007473414268969621,-0.00495343092037347,-0.0003652580549771645,0.00532728933894101,0.011471626228233287,0.01784687882227521,0.024192011868829993,0.03039658909207424,0.036179498845386904,0.04121946182564615,0.04508477484368363,0.047223250325493994,0.047574642981214534,0.04659073982826398,0.044753466016213474,0.0429362636426365,0.04180176894713865,0.041380101477207054,0.04077771052746418,0.03866936078802938,0.034663498141569785,0.02957333178557301,0.02415185040721766,0.019011493065260208,0.014523717659006313,0.010969635835077034,0.00785731150421814,0.004795181876252978,0.001662774336632552,-0.0008772860258367141,-0.002172416036473581,-0.0021222169971579553,-0.0012085985702399273,-0.00033513881723444176,-0.0003451785631486827,-0.001469632583499033,-0.0037084999490522292,-0.006469433482657112,-0.009170132257709601,-0.011639916566990125,-0.013868744496373502,-0.0157160602225492,-0.01730234193546579,-0.01859747008763613,-0.019300255399077204,-0.01902917947169291,-0.017874607142833104,-0.01628832542991651,-0.014661882255387589,-0.012433054326004212,-0.009049654067761025,-0.0046723174152858826,-0.0005760932147672973,0.0020442859203513904,0.0024960754157254943,0.0006587978867419347,-0.0026744045711633102,-0.006419236301808012,-0.009752439379202098,-0.012021422575309389,-0.013236233999143487,-0.013607710483114396,-0.013708104844812597,-0.01359766856898921,-0.012744291715000836,-0.01114796808795906,-0.009280568533532988,-0.00787500410553926,-0.00724249980319766,-0.007373013712383004,-0.008176193385522277,-0.009360891456757649,-0.010384943681543697,-0.010726294423139047,-0.009973311930848874,-0.008166157666285508,-0.0056762938651765005,-0.0030257959879061635,-0.0003853376707034147,0.002315359369780316,0.005116454364997529,0.007877389137580095,0.010176498076062947,0.011592104418181863,0.0125258041953949,0.013590017881793278,0.015346974965507543,0.017706322998964682,0.019945192842473244,0.021591713650364122,0.022445096699240913,0.022304534681041963,0.021390918732079302,0.020196184941607163,0.01926248516439413,0.018650058495414484,0.018087835202172362,0.017284655529033088,0.01635095575182005,0.015437333607968975,0.014503633830755938,0.013479581605969891,0.012505720367144523,0.011772821703104725,0.011351148038284714,0.011210592214974183,0.010829080011766502,0.009554029492958117,0.00737539874442384,0.004634545322136282,0.001994086881035765,-2.3906068209243078e-05,-0.001580069478811262,-0.0029053190369352725,-0.004320925379054189,-0.005716452848833465,-0.006660192681705162,-0.0071822607082233725,-0.007322816531533904,-0.0071822607082233725,-0.006971423875813367,-0.007292696984046759,-0.008467346946268528,-0.01028454312495708,-0.012101745498534051,-0.013467154659803865,-0.014059497500533133,-0.014049455586407947,-0.013888822129735459,-0.014059497500533133,-0.014912880549409925,-0.016459000800714184,-0.01863763154924846,-0.021117451577765758,-0.023577193972921094,-0.025795979988179285,-0.02750273989104445,-0.028155328021636422,-0.027422423162708206,-0.025093200871626628,-0.020916656659480937,-0.015173914562669031,-0.007955320833875503,0.0007993549490301492,0.011592104418181863,0.024944994361120163,0.0402456067817092,0.05519483274146612,0.06646948010267993,0.07137892917375384,0.06870837472574216,0.05906014575950361,0.04488397992539882,0.029603451333060155,0.016130077005284862,0.006009993300087076,-0.0005258943612983243,-0.004471521877512223,-0.006760587043403362,-0.007613970092280153,-0.007162176879972998,-0.005525697366718466,-0.0034575059914517853,-0.0018812624757273313,-0.0012587969900667109,-0.0020619785216725098,-0.004069931421453744,-0.006710389862554261,-0.008909098244450495,-0.009792594645926012,-0.00868822569280372,-0.005565856350375429,-0.0011483600947544816,0.0031888188130413803,0.006230868329689218,0.007515960762622789,0.007074209464440822,0.005688720811342525,0.004333352325220212,0.0034900118099574495,0.003108500845727453,0.002807307848811384,0.0024659558682383507,0.0022049218549792453,0.0023655584090959414,0.002857506888127009,0.003148659829384417,0.0024759959238970126,0.0001367301699681441,-0.0037988579720248184,-0.00830671348959604,-0.011780472390300657,-0.013226198279906716,-0.012754327434237605,-0.011127884259708683,-0.009250448986045844,-0.007794687377203015,-0.006881065233351936,-0.005957407989752929,-0.004622118995459099,-0.0025338475088750954,0.000618638965033855,0.004473909387508427,0.00794767014667957,0.009905422148678653,0.010256814804399191,0.009764866325368124,0.008801047000667944,0.007003928455341348,0.0038815628298461084,-0.0005158546153840834,-0.005495577819231322,-0.010073712487435492,-0.013416951284066348,-0.015113675467694742,-0.015434942381039717,-0.015103633553569557,-0.015043394458595268,-0.015545384851751524,-0.01600721378329545,-0.01538474520019062,-0.013416951284066348,-0.010937131255549052,-0.008909098244450495,-0.008266552027983707,-0.009280568533532988,-0.011188123354682972,-0.012935044719160467,-0.013246275913268673,-0.01147927691542922,-0.008376988303807096,-0.0052445838616308775,-0.0026744045711633102,-0.0006162522603731452,0.0011206274377747005,0.00276714886515442,0.0045743068466508365,0.006642500080384041,0.00897172237146562,0.011923413245652026,0.015577889431279504,0.019744397924188424,0.023981175036419985,0.027926804782793718,0.030888537571105306,0.03168168152500781,0.029633570880547296,0.024995191541969265,0.018469341210491624,0.011441506680746144,0.0055280848767146696,0.00205432535652121,0.0014820589101762153,0.003951841360990215,0.009042003380565093,0.015929282087000042,0.023358712648203574,0.029563289871447827,0.033147491242864244,0.03372979216946833,0.03197283508575406,0.029242016763214432,0.02659151516901104,0.02486467763278392,0.024603643619524815,0.026039333789894106,0.028368556080975684,0.030155632712177093,0.03020583608791461,0.028529195732536587,0.026189925332441407,0.024653840800373916,0.02476428327108572,0.026450959345700513,0.028408717542588013,0.029332375405675862
