-0.5664934851618787,-0.5751325017050387,-0.6147382637208393,-0.6475799228396136,-0.6565415735262103,-0.6281521565709604,-0.5239534502993274,-0.27094928601983487,0.15136250643889546,0.5239818363979734,0.7268678953754668,0.8293720533047604,0.8874039159713298,0.9247000759707963,0.9507260945994347,0.9688532361280083,0.97376919245147,0.9045942590749094,0.619743779373621,0.28758810510419824,0.1092159915399038,0.03548217496641267,0.011335567660889752,0.008201045081095228,0.014109990990836431,0.020449211263128247,0.02229911810975808,0.012468503729596835,-0.015573421898122967,-0.0617063291770369,-0.11382389465170292,-0.15788076173310286,-0.18596845428833492,-0.19550208407929365,-0.18796050604897757,-0.16229914741265428,-0.10665018743253024,-0.014691319391033837,0.02302650894695025,0.023794033436271404,0.01776179944444446,0.010668822512219666,0.002760527333947175,-0.0060379524377878364,-0.015447596557512802,-0.024395789128941296,-0.029331238172440665,-0.02105280898749401,0.0022705281882994524,0.025209625905633075,0.04107339103718156,0.060001001338789606,0.08909696761762328,0.13209576355112285,0.1767069888239077,0.21102762955921764,0.231574010547695,0.23774456161741092,0.229784304969895,0.20330535288384635,0.15356855248272716,0.08779624179958151,0.025045320290559562,-0.014671814964644099,-0.018729784082528483,0.0009641536142450863,0.019347726862399345,0.010439647068942435,-0.04558259775214535,-0.14077246895892265,-0.225350518591639,-0.2496603774456217,-0.2119316016715563,-0.1433458542169048,-0.08566240017196428,-0.06616345758746621,-0.08293697527566213,-0.10883536785813991,-0.11723704941138305,-0.0996725617245501,-0.05924830095238886,-0.003910323402791362,0.06495104901333454,0.14724116035806434,0.23731997595715965,0.30854370273105286,0.3307436535090087,0.31034910494297113,0.2777816927139642,0.2578549669515282,0.2384814795374957,0.11979649294049777,0.03840465231483982,-0.002631526013576325,-0.04034409537594977,-0.08285450374066941,-0.12658536800189915,-0.16484271109501064,-0.18979869350370154,-0.19259266637393646,-0.1604058078093126,-0.08590610656642136,0.015213758614681518,0.1092868327602486,0.17486074827408768,0.20825234271133244,0.22516975398694003,0.24299672568784259,0.2836497655134552,0.3727031436892949,0.5322789281208379,0.6993717891368503,0.7517222830438972,0.7337506150573172,0.7147791341163344,0.7055182833618274,0.6899930148989921,0.65548126577008,0.594125150683853,0.5019934637423495,0.3770422962420584,0.2336679551861657,0.10427050169817903,0.010160815650715761,-0.058912898878233776,-0.12916543716343157,-0.2268980542430848,-0.3372857824498873,-0.41336290425951006,-0.4297421547790126,-0.388011470730368,-0.30525890180509924,-0.19576969892522003,-0.07000837242889733,0.04717805606570294,0.12572097093229526,0.1487365111768474,0.12982621398615649,0.08753214949893919,0.04077778606441688,-0.009252843870032421,-0.06105937607867216,-0.10728925360144118,-0.15357043602805062,-0.20425619118514124,-0.2522454633824909,-0.29729045532526793,-0.34962836704134603,-0.42063240189909784,-0.5106983041760081,-0.5874758844214291,-0.5691431513805326,-0.3977776556620084,-0.24049980762627518,-0.16263787409705704,-0.13477322023021515,-0.1326904568777755,-0.1442735945470084,-0.16733023570891822,-0.2078762000525138,-0.26743781658104565,-0.3450100537408689,-0.4303731191889887,-0.5101859425400294,-0.5856926820272547,-0.648538248231769,-0.6837748681558502,-0.6989807453752906,-0.7222273391229251,-0.7592930338900306,-0.7918032509673888,-0.80279823552052,-0.785996801355159,-0.7420853374062676,-0.6734101934647067,-0.5858087764301625,-0.47783137555367755,-0.3599209747904524,-0.2449704825175792,-0.11244351869139455,0.04260124613604373,0.17037379031722305,0.22246349306898358,0.18226507221194455,0.05000673990483124,-0.159410989907531,-0.36575134715663976,-0.4848335557117194,-0.5031099667952581,-0.45890335400130433,-0.4211354834509664,-0.45205620910627936,-0.5374068460674483,-0.6440069279899759,-0.7222325810973477,-0.6954427100334597,0.03894086894634187,0.9192529288952199,0.9813780966040526,0.9912894035043843,0.9941798858270678,0.9949917062819216,0.9946393545046823,0.9924394086812647,0.9858758710240828,0.9677430663064183,0.9179765716427677,0.793910301471872,0.5767356110373042,0.3541773207371854,0.19492168418102102,0.065581369187769,-0.08141445482867682,-0.22008525960267095,-0.29239181662426994,-0.3119984422735949,-0.30864278234711107,-0.2949397621089002,-0.2789768475843182,-0.27300287559561087,-0.28217820585766884,-0.3046914382662867,-0.33380361823026666,-0.3714405278351767,-0.4237145715237957,-0.49566786664127654,-0.5496247729611821,-0.4830070851408199,-0.35427317186189045,-0.26597875404308435,-0.22042659465071296,-0.20431417833702326,-0.21391764671791294,-0.25868240562926365,-0.3664628266469489,-0.5754537682943889,-0.8108613638139789,-0.9015024121366768,-0.9026686847645509,-0.8857956015650639,-0.8514818776440193,-0.7781045381056527,-0.6431000980164248,-0.4838435875923084,-0.4049260868942535,-0.45343668719836505,-0.5715742270534675,-0.653505976134901,-0.6456755943624898,-0.5718251086911001,-0.4758854181826208,-0.38338257545995624,-0.30486988965708933,-0.24625248351436166,-0.21407213546956952,-0.20418590120087293,-0.19963035828768125,-0.15599282294888375,0.011385418426320373,0.32128745989976354,0.5763206896891907,0.6851972559509928,0.7088474256179974,0.6931452299454318,0.6612553904506538,0.6260503834294879,0.5916558241423768,0.5561704234335216,0.5146177457664864,0.473982867212778,0.44850700869217053,0.4544129231065951,0.497857130031639,0.5749421962745673,0.6618504205610627,0.7231673675063247,0.7485479050241723,0.7458683996477968,0.7253550797006296,0.7020835287758643,0.6903752133363908,0.6951769740264655,0.7127791003609534,0.7399258584714881,0.767960799218191,0.7887662350132494,0.7954256680242361,0.7813928865207795,0.7348876925880157,0.644328084213134,0.5238199628833999,0.41347564862625913,0.33092588483590324,0.27587473375268784,0.24327870947738434,0.21754377685397527,0.18775915330678347,0.14806304643795604,0.09445570055099663,0.031273970697370014,-0.04484461086332404,-0.1234028119348861,-0.1877589049285957,-0.21854384318661507,-0.2213301718341772,-0.2209148470040988,-0.25823077951262313,-0.34017961161593474,-0.44748142143860814,-0.5394817248220181,-0.5843588608525595,-0.5711128134950791,-0.5061478094599433,-0.4055519674199493,-0.34302690313238854,-0.36788386838794557,-0.4568324456596641,-0.5306839099564291,-0.5651665476622034,-0.5750458016453177,-0.5755313645173511,-0.5765431787205795,-0.5821809891754529,-0.5864410327189739,-0.5727647516829494,-0.5211071432138062,-0.4174348752392025,-0.2658378369805116,-0.09923506225791888,0.03790996631114294,0.12150738063732415,0.13542398763274896,0.0829226931052641,-0.015833429991612368,-0.13222682922208057,-0.2330310478435534,-0.30874196150263783,-0.36392003275666973,-0.4005384162425463,-0.4376027817081873,-0.4818470231748022,-0.5160143390716893,-0.5339749128284347,-0.5452387369151833,-0.5573729588534819,-0.5628861941532017,-0.5482709562396336,-0.4922696151728208,-0.3443961487915715,-0.010633113564897139,0.4816126612590564,0.806380526588863,0.9249932821329524,0.9630263066646659,0.9757477884610632,0.9800516766243091,0.9816196446213655,0.9816355668983041,0.9795860224837135,0.9716042931211549,0.9399852382306798,0.7709059588145322,-0.06026257065695086,-0.6775258510515645,-0.8192047872699636,-0.853515568765098,-0.8550200312080803,-0.8440189675058324,-0.8257131123408689,-0.7968600902462317,-0.7528372592320215,-0.6873433126756048,-0.5751252547346511,-0.3979514325991018,-0.21569484026811397,-0.09863133658634965,-0.03377460344790696,0.011552100882444388,0.05665719485357654,0.12015231445494835,0.21450069832173108,0.34138916708378697,0.4831593437405596,0.615449715622649,0.6881649540907945,0.5729848769432885,0.2809389735143616,0.05600874552905483,-0.06088211507591056,-0.10978500457398092,-0.12125655394107261,-0.11542286445039358,-0.10433332291926646,-0.0907711071810099,-0.07131469999164164,-0.03773816528066786,0.025905254480367568,0.14706497949686417,0.3245557800514572,0.4342289911553795,0.41908895975425414,0.34744277295056364,0.2588640163698855,0.15628032159195965,0.022322427545845538,-0.15134784866131426,-0.31509425488371423,-0.4187846712602356,-0.4843298120676606,-0.5452496038470236,-0.6137855342693184,-0.591303959576546,-0.31313274798325136,-0.10966518774407255,-0.0211915129211908,0.021304697320168358,0.04643717159636321,0.06585378287698472,0.08557238215173993,0.10650743632347134,0.11963371330122248,0.08002684513528407,-0.043476817235900904,-0.15794808747038983,-0.23819140950635412,-0.2913801891393017,-0.3172283135839664,-0.3132397825667046,-0.28003440000072277,-0.24778960958393986,-0.24946844928845183,-0.2770007567438259,-0.2985812562363088,-0.2906677710280393,-0.23912019031106269,-0.13819650989477927,0.0032503482087450834,0.14315012133841135,0.23419612322538913,0.2687816162701264,0.2670387483289115,0.2529624424277696,0.2419127083795099,0.23813588822654136,0.2356001685742366,0.23250687791651137,0.22738351187270955,0.2112290582613599,0.17916410022817308,0.13940974144651366,0.09628798746122644,0.05354784879622892,0.011344309077747158,-0.03182078867059785,-0.07569446603919816,-0.12249801492717935,-0.17134612173511088,-0.21843633753212321,-0.26561824877262785,-0.31996728448062606,-0.38766065538776956,-0.46213707670895116,-0.5234424425929514,-0.5614827436324542,-0.57922047878416,-0.5836914859871455,-0.5785860668892608,-0.5614110033018029,-0.5279072302925192,-0.47691604382634917,-0.3947681218903613,-0.2859093168716092,-0.14762297841370794,0.011005153635040881,0.16396171922717315,0.262345912876935,0.3028062249911862,0.3364175989120855,0.3762186832609241,0.4040583065326076,0.3988772264939745,0.3423412293772474,0.23190105771353312,0.08891340139738468,-0.0593991819537784,-0.16894240253175816,-0.20438068627510286,-0.16751903976805305,-0.08307989807938171,0.02280855705722734,0.11948865941801991,0.19054418527395853,0.2268001376915542,0.23498500032988381,0.2374152190562598,0.25141362932051553,0.27217964029674235,0.2861899534273216,0.282524452289851,0.27055302791474095,0.2624725134779736,0.25801812644448124,0.24827829755815262,0.23288459291636893,0.21842804060884957,0.22175228997173385,0.24571116383826605,0.2684315454961124,0.26540319853179567,0.21336979441998719,0.10816003329767743,-0.014564735735744551,-0.07669994744692689,0.021715257908790135,0.28609327693761527,0.5570091704445131,0.7163652564778378,0.8013834679877287,0.8531215216686948,0.8866779328544491,0.9061287210825699,0.9126756162309902,0.9067116133725954,0.8826557668410905,0.8177063265786216,0.625837768757953,0.042210384197855944,-0.6197547541653662,-0.8457258821668371,-0.9181282328859947,-0.9411379047921522,-0.928364978221578,-0.8846134367008123,-0.8085632143663503,-0.6398255922156127,-0.10738004942393752,0.7199057385829576,0.9491776355095666,0.9855324020345775,0.9911511746220679,0.990799056220452,0.9884691271736006,0.9832004184027399,0.9694043703139604,0.9278323975689516,0.7890320097054448,0.4291716071995682,0.06995500713217447,-0.03232916279099055,0.008362318583704936,0.07557349298572107,0.10474077914771822,0.06051502364673852,-0.07003243759549359,-0.2741634028702643,-0.505244401820947,-0.7066608352557924,-0.850389163889155,-0.9300453369139688,-0.9435781655983736,-0.9058452033326915,-0.8476390678346669,-0.7926025740966318,-0.7487393664476545,-0.715525701563732,-0.687338586801493,-0.66278742122412,-0.6480863978514054,-0.6559839263421783,-0.6984683008447475,-0.7759907770726799,-0.8742920164672708,-0.9562635956035794,-0.9462690683149642,-0.7679171028460016,-0.5248035347695574,-0.35703549941412915,-0.2747393678822694,-0.25478697354646374,-0.2861569180832489,-0.36332849386119453,-0.473200596445101,-0.5696455377960177,-0.5985935079327805,-0.5743716678507532,-0.5297523327767746,-0.4277207178143021,0.02139376148930245,0.8402715724689588,0.9318881940483189,0.9425012575119106,0.9459796261420323,0.943261567802421,0.932146199544861,0.9056105328929382,0.8447733537628078,0.7083878236153595,0.4683840997804345,0.23915319409528613,0.15914029857723047,0.22691285178566462,0.37865850607753915,0.5581614933911071,0.712737800494587,0.738218191871022,0.5423332030376748,0.2863202286363731,0.11250283817537132,0.019279035839853114,-0.019676028733151902,-0.041763268750575726,-0.06881283967514695,-0.10683506425744413,-0.1609925447742752,-0.22151379960120038,-0.27424111118776745,-0.3089038274759241,-0.31689177284082204,-0.29365785291801305,-0.2558675067064015,-0.21316590968932536,-0.1618946607889565,-0.08360539582639075,0.01956853149645947,0.11952553188587929,0.17834197206942992,0.1939027217200319,0.18124786411820845,0.1459472195869794,0.06778870047094814,-0.046075525251222806,-0.19514023015709822,-0.3949408277190821,-0.6282781254410718,-0.7938570397370666,-0.8521292097320148,-0.8608953646915027,-0.8457414677273387,-0.8083920243577671,-0.7368008943797066,-0.5864544296099107,-0.23596114470327723,0.33929251456335746,0.7154137910709345,0.8503650038081666,0.8973531285507271,0.9133335642687105,0.9132314050825436,0.9009200180506186,0.8731186413539135,0.8250143594038022,0.7542089262201399,0.6632893503770125,0.5769180896092301,0.5158846081774996,0.4672692176456458,0.4069397958109832,0.3394249661110069,0.27286249337282936,0.19974072005336804,0.13126463205711789,0.07543495812902465,0.024657029684869623,-0.014452398010536665,-0.039096063359666776,-0.05547894395713165,-0.07036291408532791,-0.0889245904246709,-0.11715775774835974,-0.16459206302579388,-0.24386241878955492,-0.3807865440732579,-0.6292521743228983,-0.7799099692252682,-0.5320658201158288,-0.3665030886952696,-0.2975936555572792,-0.2719409713684732,-0.26201967451187497,-0.2536743348297307,-0.2387479145877095,-0.2120935690039245,-0.16877036381261326,-0.10149450099890865,-0.0034343978141442083,0.13530771953844148,0.307356834145048,0.48055675756024585,0.617638958224906,0.7070348969205614,0.7728521776042907,0.8340559213019401,0.8164334288857095,0.7378752161774386,0.6854526279053512,0.664544655287502,0.6644923255216081,0.6843215464576117,0.7254296472125163,0.7811967983944365,0.836354894691181,0.879037299607559,0.905122139873592,0.9140657058288264,0.893952052068286,0.7842238166244201,0.4045716992937631,-0.16012785157595968,-0.466677355755977,-0.577904214626415,-0.6042924106889478,-0.5920399955784513,-0.5678522229924514,-0.559372902031785,-0.5741015111828867,-0.5527220232234018,-0.42356417129625273,-0.273969042544053,-0.16851673992157173,-0.10747597264692832,-0.07656988684693423,-0.06794630540264555,-0.07557739476040985,-0.09294160450061308,-0.11891883426774917,-0.17105288533400134,-0.3007278502386506,-0.563593201664258,-0.8326120294162789,-0.9279111351651638,-0.9287544731677477,-0.8874993390780282,-0.8067824334151388,-0.6937373934857417,-0.5723109013561161,-0.4679660870630521,-0.39691019212032014,-0.3674390301900342,-0.383853946627777,-0.45116711162096806,-0.4977001666491182,-0.3944730245447956,-0.25432196204505136,-0.15316600479832268,-0.0867078524037895,-0.03998784541813797,-0.006110143646292476,0.02135634544682956,0.04356231357435021,0.05871180521781245,0.06788017678215731,0.0828859694756791,0.1284742795851595,0.23831241561676486,0.41156982134525283,0.58861865350521,0.7175772471732512,0.7882874264848623,0.7903366391221855,0.6181411092385816,0.27130512094420656,0.034245424049453244,-0.1003744513292132,-0.19481426335355315,-0.27113197094296665,-0.3287644465534357,-0.33635530122329343,-0.23562655056797682,0.029608501918857548,0.20754527245051024,0.22559307183852026,0.20863070859590402,0.18986150172280022,0.1763111730110264,0.17429399593375594,0.192159393468865,0.23958686292134332,0.3198751598386693,0.4258099556693425,0.5431692111448683,0.6636857515529976,0.7934297915585735,0.8905029631773502,0.6247642383923153,0.20254150162670684,-0.008168150584437126,-0.07743615288784396,-0.06422968529185155,-0.0010352921113278653,0.08894726052792876,0.17735799156994875,0.23951343539344666,0.2604116251791019,0.23936581414801889,0.18853126586280505,0.1247580667433404,0.06281536167116168,0.00048231186836186226,-0.07254138521693357,-0.15031107714800987,-0.15798590856402783,-0.12965972422967048,-0.10145167544870366,-0.0967775911771222,-0.11633731029413663,-0.12138818076739222,-0.10122127903484941,-0.07838147923644857,-0.06202561209129188,-0.052292152539790845,-0.049365394433634115,-0.05551775417419245,-0.07428159259079957,-0.10119004356542041,-0.1049827682631966,-0.0733923410725276,-0.03708602576672977,0.006431866150873876,0.060332635105384835,0.1065421507208798,0.12325850517745847,0.10551449174665298,0.06396610190017396,0.009828580288684005,-0.05574463870531138,-0.13885823241444023,-0.25126566110257476,-0.4077131436087049,-0.5956770852254215,-0.7418415639543615,-0.7878299756873018,-0.7774279928387084,-0.7468335906297373,-0.6886924752849906,-0.5872170727644148,-0.4511695315207953,-0.3055228260486371,-0.16552518929728685,-0.03128625150595777,0.10684075487165579,0.2580607841543127,0.42021355217629536,0.5754977935355071,0.704820346780162,0.8072845613667445,0.8957136707322461,0.9653613581425521,0.8288802448750845,0.45112790999764774,0.24066616745826913,0.18002670910431096,0.2025042991950184,0.28666326471267356,0.422898748203343,0.5854094151130088,0.7228328326932991,0.7890739559925836,0.7600965817524141,0.5825210541097422,0.11080051291829843,-0.4746607245440082,-0.7412824604108219,-0.8204168702346664,-0.8355427101900567,-0.8221576564083414,-0.7894006713498677,-0.7393233741582775,-0.679868419441561,-0.6256956462777313,-0.5876108193176801,-0.5684732178982802,-0.5654301877108839,-0.5694465808646617,-0.571476644472941,-0.5679265977080551,-0.562830847826538,-0.5560237762505095,-0.5459355795954908,-0.5397142973652594,-0.5488311044691142,-0.5754864942258088,-0.6091643803925864,-0.6315215773321612,-0.6379785614802876,-0.6339964720797155,-0.6272685563599606,-0.6204491528479977,-0.6166711380500655,-0.6237017350377395,-0.6482010007954431,-0.6901068406832851,-0.7520684083950266,-0.826251791821749,-0.8892605741876198,-0.9275381839972366,-0.9448280072668511,-0.946615022541261,-0.9310838842867111,-0.8789094642193773,-0.7068133520447074,-0.1531479000336461,0.5343885546806574,0.8035337492171286,0.8911986073753075,0.920332545366806,0.9230801458802605,0.906388876968842,0.87319968035512,0.832111023084063,0.7919343787924414,0.7579631110484106,0.7238091307910193,0.6806933780768673,0.6128135899758252,0.5042622729336771,0.34803155540298997,0.1764572280533039,0.04844142750564435,-0.008510570183619205,0.004041225319681163,0.0852515905468437,0.23680130232160154,0.44438117875743577,0.648546542463311,0.7951956712418492,0.8743864823983795,0.8877143760722205,0.8093772122772458,0.6180151429828311,0.4078747625790604,0.2700296302204487,0.20013027603589703,0.17157659246279064,0.16952171155376622,0.19076961812507,0.23379180180978684,0.311429864226517,0.47299945371582985,0.5203331027136318,0.18853730081825223,0.02563089899365169,-0.0721170672877356,-0.15590785347694558,-0.2718714218233583,-0.4520245135384417,-0.6480936883200089,-0.7300446404346704,-0.7027092699338298,-0.6371786811008955,-0.5655608093987571,-0.4961489236023957,-0.4378397250221214,-0.4040345722538913,-0.4140365814794094,-0.4791925561406453,-0.606095083984238,-0.7294068879679114,-0.6077145657599846,-0.357152009335042,-0.1779998331037147,-0.06320553155192293,0.016098694806372826,0.07809256354124151,0.1339705073064905,0.19459337037464888,0.2699392235744449,0.36629655885982587,0.48340026718937534,0.6078671905275551,0.7159830288401663,0.7864688196250527,0.8217317073319824,0.8301716711177619,0.811939200899627,0.7520759781587698,0.6291718704826897,0.46046769094020784,0.33544430789753904,0.3039296471585152,0.3212850524023957,0.3155704043205052,0.2457965916918344,0.09949542891926028,-0.10909421212847208,-0.34058479155119775,-0.5302529014881525,-0.6330413760196738,-0.6614139213588196,-0.664984961133387,-0.6688186535454947,-0.6681485075475262,-0.6568996323239165,-0.6284617465025828,-0.5805360332234843,-0.5143644849731145,-0.4559379708801715,-0.44035616748686796,-0.4774707934957179,-0.5542707017298422,-0.6394396338548972,-0.7107502420029614,-0.7589773584912546,-0.7791898786821534,-0.7616460331962209,-0.6863970356422762,-0.5586016786477301,-0.41997239540674786,-0.30879395834666107,-0.23601022510337388,-0.1910515257319761,-0.1577407191983216,-0.12995263962322692,-0.1045150657492388,-0.07912053078886927,-0.05552259506019037,-0.035708376661713975,-0.022637574275274033,-0.016052959433793597,-0.010560677879678768,0.002254289956194547,0.04190423333694514,0.18722745049490747,0.5154243758539139,0.3107653747787943,0.2450587694532582,0.21986628763295574,0.2033251655499259,0.18418509638131664,0.16072415356025047,0.13360362967946873,0.10374070370808547,0.07324626775820155,0.04414940604332399,0.019769453964806002,-0.0008479164587328842,-0.021091651742047576,-0.04441808963378557,-0.07548280151327022,-0.1252114603264017,-0.19529309722566315,-0.22388469437960262,-0.1859220921438994,-0.1202848684328109,-0.005119522643902741,0.2194870017644842,0.4768712062833265,0.6334958070444255,0.72111423799276,0.772678770557876,0.7943805246027714,0.7873398339353419,0.7465927587759262,0.6569765858486228,0.49637808284143337,0.2752697086714226,0.06560969373903075,-0.07264590061694594,-0.15024852679732295,-0.20823711445452858,-0.2685739603491842,-0.29054246401941347,-0.2468551319851348,-0.193288473615003,-0.15407228413840618,-0.12730980882798446,-0.10884500438361645,-0.09332964579853512,-0.0799530293972082,-0.061527756373163885,-0.02754037964303142,0.027671677704686648,0.07602219185400126,0.07765252873703075,0.019864788506122954,-0.10313800153616584,-0.2742916908103411,-0.42362990500306974,-0.5054089308522617,-0.5218026141087624,-0.4820073382122725,-0.39121540273880634,-0.2397399242510384,-0.051570751758028825,0.08543926646109323,0.14510785223035796,0.17104353561840072,0.1875767078540547,0.17982543207636761,0.11818020003486922,0.03387404165460747,-0.03176564369610735,-0.07768967856819124,-0.11241404175788978,-0.13703589245328468,-0.12184832063548505,-0.03338534708885533,0.1494146333455677,0.356906956450041,0.4577632515484359,0.3297033948695761,-0.08538812600781141,-0.4478534275742535,-0.6089148675511556,-0.673700307444487,-0.6892183237651165,-0.6599296972764486,-0.589846830824682,-0.5092907317518279,-0.4580058505747061,-0.44737582048139063,-0.42813022541469925,-0.3870828352219421,-0.3555262779259051,-0.3580947668717055,-0.40991671941427466,-0.4988428095527215,-0.5895912726271902,-0.65504434398882,-0.6839734582539768,-0.690266748733965,-0.6873184949315877,-0.6860838385659671,-0.6854598416861831,-0.6793830128804745,-0.6698379364911359,-0.6466357601820111,-0.5861592343748561,-0.4632883596065602,-0.282648115624231,-0.09153087003188574,0.05464316919084025,0.12484925431985028,0.12732435806308953,0.08006932319862926,0.011702277963134184,-0.07515525879369019,-0.199435633660772,-0.38056702560549,-0.6331492760003687,-0.8535967150445959,-0.8653471920480867,-0.7139224887164601,-0.32905589094831633,0.368903188222318,0.7783741657055238,0.9042424900564937,0.9451617208772234,0.9584271709673821,0.9619400826409878,0.961724386252478,0.9580694691121784,0.9485642931221456,0.9292328688558598,0.8937463578761957,0.8323357816526034,0.7210784595332683,0.49242347786628154,0.07572520000811003,-0.3359290499733249,-0.5472983489153739,-0.6252787656900958,-0.6489404435318585,-0.659716656656908,-0.6760352802525855,-0.7021745782782962,-0.7318659729542915,-0.7476081984082561,-0.6823787657995268,-0.3023710850099757,0.4550788072063668,0.8240706759761058,0.9299572075950381,0.9613147222158808,0.9679483905074179,0.9605444393055866,0.9343872093638925,0.8637542338404969,0.6789718175604795,0.3534977060096774,0.07663322883000881,-0.055355509314725014,-0.10171540891154049,-0.1134037028899625,-0.1115014485863821,-0.09718194809251132,0.0342276467793267,0.4278556843712297,0.34590308943275616,0.3339997344186186,0.32803039313107635,0.31250086210023426,0.27600608749297606,0.19631617617921485,0.034850236701308615,-0.2576709194675163,-0.6371504350244354,-0.8779896625809004,-0.9480736228459566,-0.9525631552660925,-0.9452446747133839,-0.9482812516601055,-0.9621853933624426,-0.9756988519627072,-0.9764563868314606,-0.9445026189101328,-0.8201020377341175,-0.5199421229444728,-0.19610345663303197,-0.06575940027407265,-0.10896775038748728,-0.2631982473638145,-0.4646260395384585,-0.648149867567571,-0.7766295901112001,-0.8456486679169064,-0.8642170007615836,-0.8457442066186166,-0.8129080709858738,-0.792222881227382,-0.7788900979380882,-0.5937632279502568,-0.0343999126986722,0.3469880123752083,0.5425459631781104,0.6545037538331232,0.71465594776148,0.7365725658255525,0.7247108979348063,0.6719523136136327,0.5619791265600412,0.38749437954915933,0.1733634887787456,-0.05655547892047556,-0.327756072015166,-0.6277306999865512,-0.5561078120739845,-0.3815440484266794,-0.29076238531723364,-0.2545735249893617,-0.24758692958137785,-0.25115251308385644,-0.2566889981409937,-0.26021334892438275,-0.2691300313047657,-0.28719482854862954,-0.30646194264184407,-0.31946888586720623,-0.32244148976233505,-0.3122774829454763,-0.2979234417312778,-0.2907334872429576,-0.29752318671585487,-0.3196776867710775,-0.3456767501866608,-0.35905864927388226,-0.3480763989261403,-0.3172753948414013,-0.2768845484334049,-0.22614809794197152,-0.15824806204774342,-0.06688194721535685,0.04531839980150482,0.1536301163856742,0.22450828869960784,0.2459572147706604,0.2302937796766786,0.19926479225308918,0.17134868235653852,0.14888244796691388,0.13093340442201482,0.11852138645180658,0.11002920799704373,0.10166875024194837,0.09150755288787052,0.08101977811354638,0.0714416218265462,0.066029252914889,0.069854542264437,0.08952557986846835,0.051078274276260216,0.040251151016302514,0.04166987685850739,0.04471015701911591,0.04781803138214972,0.05197544890535246,0.05967537745687366,0.06970137553612529,0.08143937172733982,0.09574254640770068,0.11085049845369917,0.12591676464439636,0.14215396926890514,0.16176576536480886,0.18672492514582315,0.22123850697039912,0.2693514575141324,0.3273109497907272,0.38179482687395117,0.4279723920656433,0.4784701801817012,0.5474036193821514,0.6270125681337196,0.654237430758223,0.6001276836646974,0.5051977400540176,0.4080190485838352,0.32931580518661424,0.27376916773321314,0.2383369357995909,0.21526780756687477,0.19495476266014547,0.1700943471640705,0.1379785783676394,0.10489245148742175,0.08174746889331956,0.06879496356293112,0.06037518293891368,0.057501907639827814,0.07456191174193111,0.14704695180728877,0.4191526137735976,0.5670246811024267,0.36797008017549293,0.30566794577502615,0.28723253993052594,0.2885302994249336,0.30326187345617767,0.3185027446163884,0.31337607726194894,0.28552995919850427,0.23560300984373192,0.16508155819684991,0.08507469702731375,0.005698753239490149,-0.06580289720412279,-0.12387033210010293,-0.17058337238117854,-0.19998976626070541,-0.20777793268758665,-0.1962654852710738,-0.1760196978393552,-0.15230078488016838,-0.12805033062332458,-0.10183418602936373,-0.06433769719161427,-0.018566826888177727,0.017696424783906522,0.029048683236142035,0.01969873204052862,0.0028295049198061068,-0.010587734038310833,-0.01628913154802997,-0.014404118093218895,-0.0066858880468148255,0.0011204206794895824,-0.0014589462179875473,-0.05332812949420358,-0.020531365754190786,-0.013148774970376356,-0.009562621565820117,-0.008362036539777575,-0.00971779351014748,-0.012948043214228546,-0.017504590198772197,-0.022287576801645885,-0.0253873900830018,-0.022713061692235147,-0.00732941377144948,0.012739400021701139,-0.03952033557370341,-0.1333108873041462,-0.1877772491841769,-0.20773834942868283,-0.21662255578318734,-0.22514140440846253,-0.23868089747439522,-0.2604705031902176,-0.2901088274768189,-0.31193443371004487,-0.3075793968208175,-0.28730367697292114,-0.2859500419505697,-0.32746842741234794,-0.3829529249989981,-0.31886079451674715,-0.24283063740109306,-0.22649702951315545,-0.25445804606845085,-0.3107248018225652,-0.3753308559760519,-0.4210003268632893,-0.43350285291658325,-0.4194909482969972,-0.39457119269331253,-0.3815163988662516,-0.40967024593074614,-0.4817563574948127,-0.5432365589834449,-0.5335019832598488,-0.45978715762289424,-0.3304582561306231,-0.12880696973948105,0.1578481819239628,0.46571665826453573,0.6742608833736743,0.7700649309257769,0.7887243369174715,0.7299517839292389,0.49982964810544844,-0.16357300196861888,-0.7456655030151852,-0.8929391675270846,-0.9124354185088945,-0.8886994287526605,-0.8065699260752947,-0.45804901278309845,0.5148193228901169,0.8661603531315392,0.9272735082554756,0.9357345839138521,0.9217601451770799,0.8849167074767794,0.8151452427621209,0.6981798967105206,0.5193997624433595,0.2725863407050286,-0.0347297127945608,-0.3523078876549303,-0.6280624535228408,-0.837550748455901,-0.8371730577763226,-0.579738963000513,-0.3593938949236032,-0.24509942457539974,-0.1998268172048954,-0.19592192299090858,-0.22034676360355163,-0.2626466921840588,-0.2872802615192943,-0.22789538746380225,-0.01131229396978596,0.33126268613329946,0.606112419132868,0.7506221280897312,0.8199646644429922,0.8500389798081033,0.8536525764119912,0.8288468095913004,0.7539480232966118,0.5271028526694194,-0.37713456335423196,-0.9614707890036389,-0.923557491654388,-0.858594619266764,-0.8111311999707898,-0.7866007294427562,-0.7830467253002482,-0.7930407250299897,-0.8099032056715946,-0.8289268229845069,-0.8509653848376163,-0.8786997631433815,-0.9102359767292333,-0.9299632220116245,-0.8842757864501902,-0.6805662560498561,-0.3395925879421483,-0.026663439775338704,0.17774329609848186,0.2910206456800809,0.3489868366711853,0.38554192624222133,0.43338437134852303,0.5261259012377143,0.6599042682305123,0.7473371886591818,0.7863970952751963,0.8336512329602344,0.8848788694724574,0.9015167783190376,0.8548876967817975,0.7615704753826429,0.6648722892968658,0.5913911226379812,0.5432490387344457,0.49604020967159285,0.4184807252146263,0.30231602814765074,0.1611592914758174,0.0120896938093573,-0.14008529491540292,-0.30247828324231,-0.491616508834588,-0.7069450963093704,-0.8831909493841239,-0.9479906614916509,-0.9389958779029052,-0.9108718447598609,-0.8677583662150945,-0.7796619299648183,-0.5346333923364657,0.15852918534004204,0.7533371209670113,0.900790536355787,0.9360034411749264,0.9461465277346361,0.9478178563926478,0.942071596510334,0.9214990434091679,0.867938418428503,0.7476265148565725,0.5159001492278413,0.16778018270432682,-0.1798231454311646,-0.423196895690153,-0.5672294248069786,-0.6426682068720323,-0.6688015602895275,-0.652784664429219,-0.5935831873003803,-0.5024865228907619,-0.4339245833898719,-0.4585830343006129,-0.5899532962182491,-0.7356697937737102,-0.8015944897168092,-0.8120657516648898,-0.7986197689994639,-0.7755082128789909,-0.7340993261737802,-0.6506158058049515,-0.5361702032277036,-0.444145454177138,-0.39363902211096463,-0.3720097581472214,-0.3522841187778596,-0.316966743457704,-0.25788206376186634,-0.1738961291150004,-0.06414361796738638,0.051690924586705295,0.146546489242807,0.2149888463870958,0.2619276121227186,0.28081594084224,0.2611425996059334,0.20470253398064536,0.13343143495683876,0.06519778452267691,0.005707876957411912,-0.04020397176151147,-0.07015581990621102,-0.08584882243913157,-0.09119277969652452,-0.09090128533772013,-0.09256711074181262,-0.12373478262600891,-0.22581129961264432,-0.3946409081389559,-0.4897478872180058,-0.47899253125113694,-0.4029825519149878,-0.2251524840511824,0.06937798772210074,0.33767203025183334,0.5147010288125228,0.6224648954283202,0.6786471010171656,0.6720587592785398,0.5789934536952734,0.4327733050399468,0.3143700762309363,0.23554967522316025,0.1481621369660916,0.020407111248874725,-0.12082195892036793,-0.22998935707014873,-0.2861108001098125,-0.2821747074822744,-0.21453270690764464,-0.08690432285623688,0.07266435657596722,0.21862219670252697,0.32819042639107526,0.40125550481924893,0.44883072150698833,0.4756657839905497,0.48822000082404043,0.48652756954644283,0.4467638909503964,0.357328283007765,0.25545776562104366,0.1604145967141731,0.0773026477784757,0.005152855359697495,-0.05366598384230923,-0.10488706935863629,-0.15213962005889298,-0.19080705428311673,-0.22838231965894754,-0.26685738875974396,-0.29916518784833923,-0.3229582492005375,-0.3369976143442235,-0.33797274049393433,-0.3097424466287227,-0.185816921758737,0.3238496355324818,0.7690998669153153,0.7878264786020158,0.7861179671250252,0.7868267762357322,0.7830503933213765,0.7588236353110658,0.676435674036138,0.48895935777515387,0.25310345518713817,0.08267108555285918,-0.0007733441268366933,-0.010824391885758866,0.05481529417543997,0.2568818211431571,0.6797379491605395,0.9025583392196983,0.8433293370304722,0.7948423679481939,0.7728533390391169,0.7216237732552407,0.6078525538285907,0.48589472732870626,0.4061531815521773,0.3690677158723346,0.36768146005648367,0.40052584994505425,0.472682475910385,0.5657794053923003,0.561188190788826,0.40054379592452494,0.2155295706368986,0.057233125296517334,-0.0830274109364389,-0.2150501597792816,-0.32653667259443564,-0.39714809561218084,-0.4340800045192956,-0.4441828520037246,-0.4150397766817161,-0.3533725159056706,-0.29306744466015233,-0.2552394929085247,-0.24253091281327008,-0.2607718585984179,-0.3183146563422883,-0.3645643962327006,-0.33694914855582486,-0.28621220645867085,-0.24651902812660634,-0.21356400417786467,-0.184864586365695,-0.16813999716058708,-0.16829228252014752,-0.18131890331397865,-0.20702275060085584,-0.2527356207536522,-0.3336902309728109,-0.4621747694995165,-0.6294913250701295,-0.7877352943867849,-0.8938331424826956,-0.9487642398054661,-0.9647716075777837,-0.947831235839938,-0.9017844337559255,-0.823829975555194,-0.6857080220701424,-0.4038875406697391,0.10733672697883057,0.5640961522835808,0.7615883675061311,0.8271309544210671,0.8351054573691742,0.7980444815917698,0.6897260069912223,0.451058112679766,0.07279257505628085,-0.27572916540856834,-0.47928345836186775,-0.5652258138355666,-0.5673441913022254,-0.48816190031488105,-0.2864140969200634,0.07215207684325205,0.4352187772267839,0.6364598586031388,0.7076097315044557,0.7002557865607202,0.627726971679059,0.5021631000386106,0.3589880784752317,0.24963653563867544,0.19363438057865495,0.17596012845280573,0.17592230441928977,0.1749223780018444,0.1631903024962174,0.13554110271953732,0.08974928496500424,0.01741552253914637,-0.05416444735992045,-0.0879593283758498,-0.09758232824104963,-0.09335946445725235,-0.07864862967931166,-0.054401369524408834,-0.017590559889377487,0.02985745238707078,0.08489245294302807,0.13857584565562367,0.1858928563683658,0.22264185368007328,0.240828938404571,0.21672731029226439,0.17050387528465502,0.14423373063221942,0.14174550302165578,0.14987714195815952,0.1524664839382408,0.12972140444654082,0.04936894817469431,-0.0976893852840257,-0.25165178280142386,-0.3617168772460615,-0.43335300419629413,-0.48993125078294286,-0.5421619476059258,-0.5807354820746233,-0.5835123627155698,-0.5360241213403248,-0.4573203960777141,-0.38450149624782143,-0.35729647450520474,-0.3851291100541485,-0.4401197647532761,-0.4946833406278845,-0.5234656131625747,-0.5103320842827063,-0.4527658983161756,-0.3556198404994887,-0.23960957405142327,-0.11011910433800527,0.029464089272150638,0.1700943240028821,0.2794905636830848,0.3373516571203037,0.3525338601723255,0.36444560060551706,0.3969483652353612,0.4547203590129777,0.5244728315907279,0.587041766101563,0.6037854773813522,0.542855726264392,0.43383365207884067,0.3357900442472031,0.26879539815373654,0.2281073669176504,0.2009033111853424,0.17831571033798724,0.15687508107028988,0.13175834409227316,0.10464924073589928,0.08105155894303828,0.06557491323643688,0.04589938377466447,0.011907245516838581,-0.05031211196781216,-0.15459050333245902,-0.26666208211248493,-0.3193300205581778,-0.31675322227183983,-0.2884589701408922,-0.25520438155584013,-0.2232225780837864,-0.19062663639052033,-0.15307171444800144,-0.10874537486723891,-0.05982060554844304,-0.012167124572487961,0.024523680242434023,0.04179814545698071,0.035280422540193916,0.0028835164111262034,-0.02026210334218957,-0.013378031004822467,-1.8767169954827516e-05,0.01642355513006128,0.037835688266075515,0.07006714737310354,0.12193959813343065,0.2072830116709964,0.3358111577602055,0.47048651206341313,0.554698956157542,0.6021112078963252,0.6415240342921325,0.6809310297768164,0.7180432777877713,0.7425981069770492,0.739700239143067,0.6979447822391047,0.6253910672684156,0.5507767569389771,0.5008910216027025,0.4817844655117004,0.46053143305259475,0.3623507162091946,0.22799240180417196,0.13720183655070636,0.07926096104293281,0.015043485811112593,-0.08118531828785726,-0.20553509371377965,-0.33348996010355664,-0.4383975870254033,-0.5109549200499705,-0.561292711217654,-0.6059620964315964,-0.6529406320505362,-0.7008739065379886,-0.7392456082253221,-0.7646992682849936,-0.7835350656105037,-0.7974755872730963,-0.8057966882129091,-0.8069274489140432,-0.7991918768809468,-0.7705171049585356,-0.7103779342183293,-0.63131864497109,-0.560379513308309,-0.5110354299439301,-0.4806685561758707,-0.46549480241331276,-0.4613231691703336,-0.47357081353318137,-0.5076330617661313,-0.5607799198555858,-0.6294775279315022,-0.704899290385612,-0.774321941799885,-0.824842037744839,-0.8572704684376447,-0.8752036367062446,-0.8820561154535804,-0.8736413440777291,-0.8344172075955993,-0.7458304615875001,-0.6472564838610629,-0.5723656905494127,-0.5072310561869666,-0.43237567985123765,-0.3231446344547448,-0.11995696439353243,0.2670129838521305,0.6542912742594772,0.8094270417814754,0.8454236572928663,0.8298746050466937,0.7730891534912495,0.6682138780595719,0.5175816267276125,0.3591961006745824,0.26327672359274235,0.2567385319553717,0.279740951181769,0.24998176019625745,0.10738168387383541,-0.16023825736926645,-0.4419651939450626,-0.6362124645406827,-0.7507390374762231,-0.8041437073200778,-0.7494580802822904,0.31107792199533724,0.9348239925205023,0.9695874672040724,0.976006044264874,0.9779321623674906,0.9779748496154597,0.9758067929693082,0.9712302234207069,0.9660581285019235,0.964557757851641,0.96688728945646,0.9677902641681772,0.9625713368136927,0.9428511574614581,0.872350694922276,0.557455323940338,-0.23690970391366256,-0.6263144634078343,-0.7216042321479692,-0.7326188946036005,-0.7125987961332042,-0.6902143956164632,-0.6901109189108792,-0.7260840435423725,-0.793440414748269,-0.8638184092431332,-0.910465479230916,-0.9326795675448576,-0.9383440463918499,-0.93165489801794,-0.9118176441080096,-0.8781032821534717,-0.8378158466718953,-0.8057126205639609,-0.7900511584841938,-0.7872362377997418,-0.7901922924589269,-0.798346399911058,-0.816380806465599,-0.8467367239328891,-0.8847033734319637,-0.9133940314533567,-0.909456767274995,-0.8485411983206668,-0.724963017762944,-0.5703147447345489,-0.42534542888907034,-0.3190640893532216,-0.2558099785745199,-0.2262668372468885,-0.2285401592913703,-0.24860515800948346,-0.17461004761205307,-0.019602176271382093,0.08619912312039495,0.15933404735024004,0.2202124943073241,0.2741356846838362,0.324670170529484,0.37591740733880946,0.4337932915135114,0.5022960141824133,0.5804374056167129,0.6718043897507837,0.7706097597153975,0.8651548607246027,0.9360721633387619,0.9388432054246482,0.8285785202235416,0.6513757791437705,0.4977842353028579,0.3922376126377853,0.31944474762761266,0.2646792062988433,0.22197158401509826,0.1940330665190666,0.18610131130425323,0.19613138730567267,0.19546943532981856,0.16293427244526887,0.14200043602899495,0.15496207515827234,0.20216106913484375,0.25842932554081116,0.26240330733195233,0.22555656325359127,0.18247429338841883,0.14529593903413712,0.1232591179416817,0.12110483794220422,0.144053708040359,0.19655871462383823,0.2765114553586433,0.3684815076672691,0.46081113998928497,0.5517682725033957,0.6333629254727849,0.5796162444055922,0.2935564028639146,0.10816234783946947,0.02800570261042107,-0.01304713845319379,-0.047455749951102584,-0.08578528491279687,-0.12831950126852554,-0.16505378216895555,-0.17215031900591518,-0.12189449055685751,0.005418071690240552,0.21530974011819265,0.4468978445723538,0.6208455352157631,0.7043646064955058,0.7054061351399509,0.640348891436522,0.5221510394658714,0.370197698751532,0.21531873033138202,0.09550987543097274,0.0298862517148221,0.008103595596409887,0.012212991160885896,0.01099369761872428,-0.02798366443107009,-0.08809038243715586,-0.11663887685529424,-0.12492676721184527,-0.13248213640588774,-0.145287937210476,-0.1672567040291695,-0.20422612315495298,-0.2650469002975585,-0.3696695384743688,-0.5466608007991905,-0.792162752921282,-0.9174460268424304,-0.7671959432281291,-0.4996781928909584,-0.20001040726519326,0.0938918083377638,0.34527869709332426,0.5327205634520183,0.6521124037196282,0.7170406609334975,0.7417848586841793,0.7301555401477551,0.6783399961515666,0.5766459140055223,0.42818469300124345,0.26693347797084693,0.14495033058594095,0.08036896443468479,0.05386515266903816,0.020672190264030835,-0.07152075006133612,-0.19409434827771438,-0.293390694572784,-0.3533220559224241,-0.36896153517092956,-0.33977822588324663,-0.28159361025682483,-0.21841044844680393,-0.1795848926357814,-0.17270110623022886,-0.2053797797491454,-0.27170887105788294,-0.3423511540636662,-0.3950856608793247,-0.42454901142037205,-0.43214104279971793,-0.42140342368246736,-0.4021469110606869,-0.3881007457008183,-0.38328740791409116,-0.385343591955395,-0.3754028325586569,-0.34036787185936473,-0.29641232298185144,-0.2765951706387609,-0.2898517926572156,-0.3007307356851993,-0.2914986746406362,-0.279842215974528,-0.27471707679863394,-0.27645574756534586,-0.281629054656039,-0.28575352379091584,-0.28673300277495695,-0.2920829063053869,-0.31295160196781446,-0.3587029998078629,-0.4412063822881285,-0.5822080810888272,-0.8004382546726948,-0.6944698533123521,-0.34113118742507265,-0.1824213209241443,-0.11804925253492776,-0.08778142625264614,-0.07058728541002061,-0.06075265657536887,-0.05700478939695405,-0.061212554087308524,-0.07705559767537984,-0.1048181337867294,-0.14356458566784627,-0.1864580437048848,-0.22590760638056728,-0.2635263380813938,-0.306773244849219,-0.3263107927157196,-0.23201737433733932,-0.09920188218055209,-0.034118663177814694,-0.010467505112566786,0.006703571793929719,0.029335829724305963,0.05949896052358662,0.0953184680446792,0.13403218060635844,0.169105023273861,0.18363891859798773,0.16606997060029785,0.13645739583424638,0.12256257771082646,0.13418260239367225,0.1772724909111702,0.25304203183952534,0.3317828109382962,0.3593837635828938,0.343443195711192,0.32599360659364,0.3278803043192736,0.34647402231146646,0.376922752035382,0.4162233615058773,0.4588961148176918,0.4667441348802061,0.40178580049059986,0.33795141844793636,0.3181778303180448,0.32674738160037176,0.3514933547669866,0.38538006240041606,0.421792457518049,0.4568589232244678,0.49103169230364363,0.5371399590599284,0.6306578633993137,0.7607592491706701,0.5955964839544151,0.3641022212464137,0.2574449071245618,0.21489568023770894,0.202163004976895,0.20293736329715742,0.20854946745210903,0.21368386832175937,0.20852350218729765,0.1828724717166736,0.09443444356301191,-0.006357282821080364,-0.05495991489752163,-0.08647530604460993,-0.10981778914580892,-0.1258495048612311,-0.13480020594220957,-0.13903826522679416,-0.14652672814201603,-0.17447460634062564,-0.23578288347848286,-0.3249513806875155,-0.4182031639359296,-0.4844459179832641,-0.5136638877859314,-0.5146225057568214,-0.49981459599854994,-0.47193830418149696,-0.42333956787241794,-0.36095244341943217,-0.3055955224164521,-0.2795901406594713,-0.3043480675518612,-0.3964249333172225,-0.550067226283265,-0.6536276200933706,-0.6146436028375506,-0.5277306766768814,-0.4631583760151889,-0.4341515903537209,-0.35515690323585675,-0.23005160935970967,-0.1275510266194164,-0.036522859765186516,0.05567202501854563,0.13490836967655856,0.17507857881894273,0.18712849257300443,0.17227643563259293,0.1271508995739604,0.040007014952472,-0.10771077132116746,-0.3225478752143598,-0.5715324592414474,-0.7749070947464768,-0.8779157668756107,-0.8926260325380162,-0.8380027889108979,-0.6861169713180852,-0.3636580868908162,0.026361507355679017,0.2305944915095606,0.2647667713194082,0.20038487047877446,0.0573129787179632,-0.0988018572451344,-0.18848045606240665,-0.1765303949311296,-0.07835825179316416,0.06698540320460032,0.2262095613661713,0.38418973401556616,0.5306977073700986,0.6555114268834358,0.7497294798719488,0.8126259016076095,0.8519388635480789,0.8757648359256021,0.8889737719093755,0.8938071509068048,0.8928965283353304,0.8914985333124454,0.9011281577104407,0.91999349180688,0.6832154143193412,0.009237125625428787,-0.322250131576153,-0.4868178383617275,-0.6057002812494463,-0.7070515552317986,-0.7927718118278144,-0.8591218130229635,-0.9003628629945337,-0.9163240781220396,-0.9108950718856448,-0.8899216842145365,-0.8589289486964208,-0.8268448565348094,-0.8035249910409793,-0.7921371924424542,-0.7901792793152743,-0.7858272783883066,-0.7650223435676329,-0.7229978309798581,-0.6661295185589875,-0.6130740738922551,-0.5768934238050949,-0.5519312498650035,-0.5190906391695678,-0.4457296698558527,-0.2929306960888608,-0.045506635533826556,0.26017663807040964,0.5371149688196002,0.7252513307361197,0.8188628484327326,0.8317038058748019,0.756393221324987,0.5530469499788537,0.21632687451459842,-0.08896104843674833,-0.24782902677202176,-0.29914166012371707,-0.29913197600412145,-0.28640003686904125,-0.2816956356696087,-0.28510197179746316,-0.2903111719416815,-0.2955395093551748,-0.3017721335915416,-0.3038278433079037,-0.3005334640189851,-0.29687088445350956,-0.29924976911848156,-0.3150021362661356,-0.3609239414178301,-0.5061154419878368,-0.44393262238234316,-0.11345696159767604,-0.02870003768064658,0.000914930672445375,0.016243319072632396,0.02899455268789858,0.046635634983049054,0.07928743206389101,0.1486960890342438,0.31316670766563115,0.6651506394666497,0.8315252012039605,0.7312311231147834,0.6707483682903455,0.6480264028809596,0.6392742052436554,0.6270743627489807,0.6016730565071737,0.5571846223432075,0.49432340951920156,0.4231110248039736,0.3476154647963077,0.255582268828536,0.13993061941484228,0.047103617538681454,-0.003560522417419624,-0.02006787315778239,-0.006866132196659393,0.03391880216767107,0.09032260339701485,0.13996285360268962,0.16159362559742216,0.1625668294276073,0.16171474379847303,0.18068396900398506,0.22474047599801206,0.2827077362943903,0.3386624416870287,0.38614624348611476,0.4156714966053973,0.4133454780108506,0.3663520721037158,0.2521303709546489,0.0732750680438367,-0.11349468081057273,-0.23441929540830764,-0.28832163997683874,-0.32090185842259406,-0.3532542676364771,-0.37919235452215755,-0.3764789519734987,-0.3409687777369573,-0.2860563387000284,-0.21591553362840152,-0.1485380411015814,-0.11261889602597469,-0.12407669130670905,-0.15138508842221873,-0.1631961920795999,-0.16283560085358387,-0.16031638469350828,-0.1611858456726471,-0.16701956190440537,-0.1766281596726471,-0.18814529751511258,-0.21134219342238209,-0.24636117492441814,-0.15735243061095613,-0.08472098687605492,-0.05104075268244709,-0.023865110356309505,-0.0002246125681085033,0.012243749530839,0.009689762070948151,-0.004215804539049299,-0.023919996139591476,-0.0457953039564749,-0.06284929599510712,-0.06377497694431991,-0.03239037930992851,0.03621014198905464,0.13570094639406227,0.277112465117437,0.4721701658849141,0.5034674965731486,0.4256573173974195,0.37407354984965346,0.346776096173324,0.34919037194138697,0.38523333511092966,0.44999537778914117,0.5349249187770132,0.6124018169978934,0.6545775890001272,0.6530210470234713,0.6155074645796161,0.5485979671736343,0.44982648916221407,0.3144393569077025,0.1479609187199682,-0.003696368610131269,-0.08822009091434171,-0.09788633016994903,-0.04048293197087465,0.09070466887428064,0.3021322834112477,0.48773767930091155,0.4372168531025655,0.27652081064719664,0.13443023135381874,0.025052797629807874,-0.054141899369370805,-0.10579412100817741,-0.13030217431384294,-0.13182045565591236,-0.11898650979600914,-0.10109213056369863,-0.0904107600310195,-0.097751231909603,-0.13948806925126347,-0.26722447019061685,-0.6136075247634605,-0.8891356938052317,-0.7619006857644487,-0.6886060050310385,-0.6585864258765939,-0.6394014815508998,-0.6158053452105966,-0.5824136538589855,-0.5390828033850716,-0.49089211977235503,-0.4477182430960288,-0.41974146042078675,-0.41177429323270304,-0.42794206768155985,-0.47475527028135917,-0.5572295903801201,-0.6681544464648953,-0.7673230415459567,-0.821501607038938,-0.8311989514042191,-0.8061105760705607,-0.7498356537364326,-0.6709344357622243,-0.5939029447501315,-0.543030198611759,-0.514883261878756,-0.4888035808374621,-0.395163413447486,-0.2162928552973335,-0.09020664268216273,-0.013933050511710982,0.05182775016558828,0.12967591873262518,0.2346781302413622,0.3872250672420367,0.5972201485189064,0.7939298809150334,0.8819108600703001,0.8983748674958396,0.8984811661604502,0.8921785109972785,0.8766921490563735,0.8534283726209977,0.8259945019530989,0.7923189130554319,0.7472927232753979,0.6857244280953797,0.6077769605667295,0.5164269561806786,0.4148016317080814,0.3041306420893019,0.1911804911368886,0.08695362040912424,0.0057035563408989985,-0.04837371280895505,-0.08734557495903843,-0.12793895727463434,-0.1911169662745214,-0.27623135488260836,-0.3661462235696164,-0.4403110124429434,-0.4918924435211166,-0.5333294194174681,-0.5745778573170995,-0.6224595732805984,-0.6391706462587596,-0.40605396101719515,-0.023812552889313693,0.27575448662292246,0.5137619871822271,0.6935628066175655,0.8073982935570988,0.8668858515047473,0.88728344507041,0.8748684188097923,0.8268433006762694,0.7258420450841458,0.542019151321872,0.27512929260120966,-0.0013283056758920508,-0.19863397368943309,-0.30422137155976176,-0.34730455740624244,-0.36267302211631425,-0.37775875789098,-0.41350207820921525,-0.4644602200964091,-0.507243355792836,-0.5263126113318526,-0.506452879833968,-0.43931743371762616,-0.3348877218775501,-0.231131397304126,-0.16520914905058134,-0.15113142763557014,-0.18268474948336275,-0.24365777758310406,-0.30705926203933687,-0.3506749132692425,-0.36943947265744304,-0.36292021338305913,-0.33475867968559186,-0.29258528560738584,-0.24752555976580914,-0.20283166425057683,-0.1612120201284952,-0.12580073917423892,-0.09918497502282725,-0.07292856189121015,-0.03668450882563639,0.01222593574731404,0.06243130499918373,0.09670912788712374,0.1074422665677132,0.09755718683355409,0.0698341781771993,0.0044075717350676846,-0.10870208188951276,-0.2639178529478349,-0.43040049273399056,-0.5655209874775968,-0.6451469863010885,-0.6636147118189412,-0.6046107866670682,-0.45979023364145205,-0.27261078559673607,-0.09615426765348624,0.06975529995374431,0.23430221159647188,0.40070557991246186,0.550483796163249,0.6337090556619212,0.6126492855695113,0.5227916863538635,0.42663100300871143,0.3590817786429081,0.32964712265903223,0.31745994957557133,0.2903553051683107,0.2539639717919167,0.2252282204974399,0.20825854281277753,0.20425013135593675,0.2078204288401158,0.2126235170672084,0.21121604596165963,0.19715893792283196,0.17078436350360432,0.12549807873065608,0.03281824245637778,-0.15809811374769855,-0.2903214466635358,-0.28789456790421514,-0.2535175976058479,-0.2158717667585016,-0.17843248239196818,-0.14632365225186492,-0.12016533244369394,-0.09930887895222076,-0.09011357891173458,-0.10155455163045032,-0.13392211265500598,-0.18334613417447845,-0.24359614091075651,-0.30381658382153953,-0.3591981235976791,-0.4143384663622112,-0.4828615253474484,-0.566757935715074,-0.5912158459177538,-0.4464976982355275,-0.28192701946575105,-0.1798060833590696,-0.11519445747444901,-0.0656577310791673,-0.022964138029166335,0.020639226856527804,0.0735695255067879,0.13960988145521694,0.21450593160874123,0.2896282368315446,0.36086340752421114,0.43065732371822374,0.508524693321768,0.6177529527787352,0.7561768372280587,0.782770999494107,0.6383778530675996,0.4907159935977707,0.3877061768143545,0.31824428737315347,0.2726868697367373,0.24330721433599145,0.21742328490110494,0.17461395399941732,0.09033918438352286,-0.05101384934410471,-0.22200474324865574,-0.37316212256566755,-0.47833277403125024,-0.5612952347952371,-0.6224611781761806,-0.30198279403004286,-0.14163834919998422,-0.14214019699527866,-0.18975549772730385,-0.2597274543583928,-0.33504773707146107,-0.3988322627102563,-0.4425031912170593,-0.436357218948367,-0.27620644093971614,-0.1094032048115178,-0.02131033983993745,0.03680768485155617,0.0929925753572476,0.17165702242788508,0.29199354497511215,0.4472446614690484,0.5924905328082992,0.6938342960681002,0.7543657614146617,0.7878431293784304,0.8040178946332087,0.8026301653108678,0.7633008039060434,0.6622892561641919,0.5077146883244005,0.3145181352001724,0.04819399651077985,-0.26372095304106125,-0.41473524956847024,-0.41552243513441156,-0.3558531770311443,-0.2638219727517983,-0.15937465597481748,-0.06641565989927853,0.00042345586405407654,0.040218045274007554,0.057618983117507204,0.06485315236904791,0.06345936613201968,0.042726319468094735,0.030592784603696143,0.028011434830223562,0.026325928031279783,0.021642835855547223,0.01243677873973719,-0.0020262768052475505,-0.026210454325845615,-0.06073057646594351,-0.09140789692902768,-0.11427234105034627,-0.144611712930078,-0.19344564535228084,-0.2635831720625755,-0.34789624461295715,-0.44709926549773615,-0.5717607827948077,-0.7202301462103583,-0.7415948900199298,-0.5175760159427929,-0.315196948770751,-0.17808126490328985,-0.06704895369456139,0.03301583165276567,0.12894466845626243,0.22405653469457842,0.3144658857943352,0.38910450598700963,0.4380749882967108,0.4516840038440567,0.41580627060461994,0.30439888951291555,0.09254100308971881,-0.19110076666003906,-0.44911901560071854,-0.627173379827109,-0.7385650022857811,-0.7998569702384325,-0.7906256018031639,-0.7075471608540702,-0.6090001673247554,-0.5246927260980322,-0.4466801944636563,-0.36054185722927684,-0.2548786745907743,-0.11266911603982911,0.06440502205886163,0.2524612058550559,0.42692744621825673,0.584012481740545,0.7151450068347223,0.809460801913444,0.8682547797045577,0.9043350404038997,0.9275079093904061,0.944213540943903,0.9561571833778664,0.9644669866272187,0.9687975069441805,0.9675685984972262,0.9581018134951976,0.9306854491881056,0.8559362329784281,0.5986268741075371,-0.21754220335041663,-0.7602463046131028,-0.8901181119000607,-0.9292360569869426,-0.9397503866225496,-0.9395145154412838,-0.9360371392381145,-0.9339511563534201,-0.9322841613432447,-0.9297551210082358,-0.9236269288265447,-0.9052020755206389,-0.8371139037980738,-0.4790045280636654,0.6036865136783794,0.8995084769460643,0.9392011587168595,0.9252652714488283,0.8633022557844947,0.7115407476407722,0.416543512089463,0.035483500472478766,-0.2753068402367511,-0.48584541326194186,-0.6259869735176697,-0.7307265491123884,-0.8025493448738066,-0.839876677645156,-0.8554027850950776,-0.8660039488474781,-0.873041198610446,-0.8599868053347626,-0.826067420644398,-0.7883697709192335,-0.7461749659051474,-0.690626304203074,-0.6083621962126899,-0.503496828305554,-0.4104526706025566,-0.35245183307837497,-0.3201254046223472,-0.28299845602881174,-0.2177968146737744,-0.12910372434023853,-0.05121576523096771,-0.003413869016793238,0.01842680298034334,0.029095882768406262,0.04032148506179524,0.05925045396840905,0.08979256562804042,0.13446770876973146,0.19943308939302298,0.29913133658271396,0.5220077287888634,0.47505320805964746,0.13198654012933722,0.042772372367420645,0.012240166917513852,-0.0003888455705466127,-0.00595496819407832,-0.007799812118912131,-0.0036095887882914173,0.011407408971156918,0.055168583445129094,0.20866842380045955,0.3610065828697684,0.32695250681667914,0.32882337370547643,0.33367814544205193,0.33544169084881176,0.33025110700578886,0.309851298359235,0.27230571059697783,0.22116559937915511,0.1643150188007594,0.10954996101599751,0.06273364713759726,0.02791212288799422,0.008698746322186273,-0.0012178771228115034,-0.01893927616119753,-0.04829210404818063,-0.0854582726553676,-0.12959389611997185,-0.1783112445543183,-0.22008904232481155,-0.24370482084710288,-0.2512430325451363,-0.2551489076051469,-0.2649411732528239,-0.2865897412863238,-0.3322499972385952,-0.42903242634141125,-0.30446855777481646,-0.06293829913570172,0.012678324577245397,0.04068151985109245,0.05421111891505098,0.06453663887455781,0.0749217311296635,0.08562738333109896,0.09974619773695112,0.12281663757501092,0.16411812183511956,0.24165237435953427,0.2908088748961238,0.1642357904747949,0.08587792204001132,0.04512301315328087,0.013628373774261512,-0.020092097078456404,-0.0606496883589946,-0.11127426559514013,-0.17178868771894268,-0.23822548743758412,-0.30969462375324863,-0.3863013608766745,-0.46943368112915346,-0.5560313099920752,-0.6402911837136224,-0.6993823903007235,-0.6749728760670437,-0.4764207316083508,0.0848644719863415,0.6977237931165793,0.8858412219897377,0.9326885022173016,0.9420672293674394,0.9320422996057613,0.9065953937980362,0.8701509558518199,0.8336464223340374,0.8160823224320083,0.8359972965631024,0.8796002907610162,0.9083710403430023,0.9176782978928649,0.9150088717889121,0.8839718852972989,0.7485245267866475,0.3104933570053999,-0.2551213273709394,-0.537451381139168,-0.6356933056175937,-0.654180657827741,-0.6436754041882539,-0.6394121265533914,-0.6544474273716434,-0.6668387729638979,-0.6167702996686071,-0.5048019374125744,-0.3891350812657929,-0.28901027874005525,-0.19105317221114848,-0.08176008202286508,0.040000876711084134,0.15630569090559887,0.24390416279153315,0.2847091047425797,0.2814359620255951,0.245087744383133,0.18196572063620076,0.08429717651917294,-0.054665542712297614,-0.22542060747823128,-0.3883769222000404,-0.5072394987904986,-0.5783280377741701,-0.620202855721776,-0.6510272135402039,-0.6813178521389428,-0.7139815365520724,-0.7461412765217367,-0.7728694522175408,-0.7889634846851511,-0.7945086583477154,-0.7925166078826907,-0.7843338851739122,-0.7664666815967084,-0.7382516968641296,-0.7062632308752269,-0.6692107533170242,-0.6197349421939182,-0.5619026028656299,-0.5086588676747017,-0.47471878332729245,-0.464570871397445,-0.4651680099390917,-0.46211249868865045,-0.45068466097355653,-0.4365765383487118,-0.4159184631599275,-0.3700119170419328,-0.30177617959678893,-0.23216797981621692,-0.1843608075145949,-0.1633467669134844,-0.15590438893324235,-0.14928100064812463,-0.12887642342211714,-0.08660503399656298,-0.025767960129902266,0.040641200427113146,0.10577946432929634,0.1747017957560443,0.2500483750496401,0.33208175745123963,0.40541213457819875,0.459849260120539,0.4807512894314428,0.4600798403783542,0.4064854359219054,0.33501124759690215,0.2859210956245372,0.2865905518939377,0.34480905067224976,0.4326381117980179,0.5105026140800044,0.5570766307954651,0.579341554517751,0.5942754122601359,0.6042908355746782,0.6049533990884239,0.5872802609479789,0.5570895262512064,0.5252830583899767,0.49207873621628734,0.47002605559879096,0.4713868376014108,0.4895290630939851,0.5150100516031958,0.5326815859219683,0.533266127351324,0.5195364583792923,0.49825727407286735,0.4643881387869182,0.416628250750974,0.3530676201880071,0.2892331074115527,0.22477523736506866,0.16368681612712915,0.10435596938958898,0.035006397684932175,-0.05164159730259688,-0.13061300113516783,-0.18981359254576935,-0.2237339187363164,-0.22211781915263518,-0.19569970920302293,-0.14766400520054326,-0.09375618897225443,-0.06316020713097,-0.06489278322368122,-0.08592826852812065,-0.12254921470371952,-0.16865342481805734,-0.2264531445786466,-0.2999681596950148,-0.37007888611080175,-0.3946976827944239,-0.37930107564645027,-0.3350292144635239,-0.2630783148974255,-0.1780646366053519,-0.10272042633952812,-0.04754726339305516,-0.006445270695553277,0.01859522666629459,0.0039079926798075955,-0.024561228952585685,-0.042213307495258,-0.05000448945897853,-0.04998681762781149,-0.04658164227523267,-0.04811552456576203,-0.06891764839558744,-0.12250424027123834,-0.21636411431536523,-0.341821480044912,-0.45001605862929156,-0.45745548529923047,-0.3257122468347969,-0.09446550584859748,0.15116375551490882,0.347232734209426,0.4694571309550164,0.49412491831250427,0.40702576205817165,0.2735705557152443,0.16408083315939107,0.08640380098730926,0.03665248900227204,0.020030896867457557,0.06100218943956567,0.16981708837831777,0.2916464616835605,0.34625955747180415,0.3372909228428985,0.299808582238119,0.266087935399657,0.2656578578125061,0.2902469340632841,0.30549808766590836,0.2893308787763251,0.2478211867999636,0.21833024566780113,0.2552316247954217,0.3760738966746322,0.5108481782146732,0.6127151408204846,0.6841982308997487,0.740356787674695,0.7867843710536053,0.8193207702333944,0.8374628111749594,0.8442071602452131,0.838371978333634,0.8132376148366489,0.7589726168052369,0.670945358351323,0.5675550367480897,0.5084399214276989,0.5538476247340729,0.6949074825295524,0.8125658209985585,0.823984388776083,0.7382735886018602,0.5349767560529556,0.14452786521893524,-0.340474843521379,-0.6542730425679273,-0.7916588030319508,-0.841450388502823,-0.842927297928936,-0.7833721495257037,-0.5034328613805096,0.43638402810616544,0.8819911346928772,0.9563892252397748,0.970583758618366,0.9654764831833333,0.9406894105947351,0.87086525161253,0.6862498207424799,0.33180015903339455,-0.03837419662845437,-0.29499937604913995,-0.47672722754486374,-0.6220143292042635,-0.7322302562849622,-0.8069861918102602,-0.856063871943891,-0.8828372381767083,-0.869396009578487,-0.7934568708479036,-0.6761081852076098,-0.5754469934424497,-0.5200501005542049,-0.5109735099940685,-0.5445019551200251,-0.6211518969666646,-0.7348274270080017,-0.8585650576690755,-0.9403937036491126,-0.9567153459641652,-0.9338093739404569,-0.9002520826230584,-0.8676164605954744,-0.8355216385050482,-0.8047448334761638,-0.7802194315530661,-0.768919753887292,-0.7573421461439624,-0.6879709606645146,-0.49498693600660887,-0.3071530710913888,-0.20213980224829128,-0.14930512619420602,-0.12074250593324354,-0.09921917093216949,-0.07761109155499091,-0.05316661052180772,-0.027729152012874275,-0.00622530871910774,0.0077582221581327625,-0.012345531129551116,-0.09464634403499736,-0.14219570385751457,-0.14821310151330802,-0.11159390168693818,-0.04538425377310221,0.025662709870454752,0.0863879204826303,0.1329538189521322,0.16743601792651294,0.19480092846727343,0.21928271934865046,0.24335296591777406,0.2666566884823186,0.28833140418129105,0.30483372522428087,0.3178559104804699,0.3331786295944078,0.3625465079890381,0.4250745733467888,0.5315966094162359,0.5773875082405535,0.41916961659117624,0.2701417784366049,0.17545962490755834,0.10471960140720606,0.0411673301780695,-0.016835149871573092,-0.061306340353250596,-0.08057717977070933,-0.06515049691395677,-0.01184503772060707,0.07679408801144313,0.1895542016990763,0.3020493547809435,0.38165289364795896,0.41384478835287186,0.3964489010079192,0.33237226750686816,0.23677752080773057,0.14874122172116067,0.09666659938330754,0.07305267988719062,0.06966814927310193,0.08191538784375162,0.10876816343260458,0.14513111970833653,0.19142576793021654,0.24507771763129627,0.30728378985398275,0.3827175222696937,0.47687971182531813,0.5774353561262344,0.6513223914160882,0.6813546900509233,0.6945512146770714,0.7091982514907849,0.7171698118550225,0.6953784387025921,0.6401056620901399,0.5647922287172265,0.48974182151017814,0.4327710447360233,0.40022723002625615,0.3891388578558658,0.397647559025631,0.41783773397480106,0.44589316438248644,0.4836810587505498,0.5269239047259968,0.5637426769481795,0.5757459299736418,0.5477960776306353,0.4884840844298625,0.4254776007355945,0.3801384916549846,0.3579308587374383,0.3432028978368183,0.31670660103865,0.2738778124058739,0.223908167221882,0.17429688054445414,0.13009425996025883,0.09285831999304937,0.06267989389140236,0.04174816069426709,0.03525748538971991,0.04670157047391126,0.07607203598473118,0.12275058851201655,0.19091205196850955,0.28171947390480856,0.38088746001367824,0.44602411091174493,0.44697232944418597,0.40131841666990076,0.34280771983357855,0.28676959163654264,0.24007427813215163,0.20398174118718554,0.1755083865732301,0.15195746032848656,0.13094511023706357,0.11155104142441373,0.0916284294841652,0.0680497106470556,0.03673216913969672,-0.009812406791376599,-0.07983972285867398,-0.18035913274546436,-0.31574317654072226,-0.46423315432128015,-0.547614396446502,-0.5394455709526735,-0.5100725528722163,-0.499490166979641,-0.5164206981511694,-0.564859330800141,-0.6326572654223502,-0.570528503296055,-0.3238580115794025,-0.17228408409085463,-0.10531845992488656,-0.07650888261329487,-0.07000064954978315,-0.08518241537324567,-0.131674914402312,-0.22309262179156558,-0.34144939002287944,-0.4198060555434935,-0.45953087729613484,-0.48943254303691947,-0.5099218398648806,-0.5051508327860491,-0.4714066520367542,-0.42567145448476656,-0.3718235038187314,-0.26161448084334876,-0.01362178284619895,0.2873172741235404,0.5011367410161577,0.6263822783046934,0.6948134029543183,0.7271059159169213,0.7364544278789521,0.7347017880294592,0.7336727844228096,0.7420739893282269,0.755157663525945,0.7520521314070647,0.6698886523138736,0.300490708028989,-0.3073597860662861,-0.5602346291724323,-0.5988613466303802,-0.5474864102175947,-0.4360311588824993,-0.2812399642536726,-0.1199619760417358,0.010677226134914536,0.09054804436965588,0.12079981157716911,0.11113004949454282,0.07708785489925524,0.03447481017949509,-0.0024986120668637327,-0.02806891868907605,-0.016083378742069145,0.07694751626592879,0.300089754512233,0.6301940336883826,0.8620931424648453,0.944658568003802,0.9678951730852806,0.9744232183893459,0.9692139262156171,0.9004064229684595,0.6338929041675209,0.26982272379367594,0.017870421525064087,-0.13441588373559715,-0.23246752705422638,-0.3042153680196266,-0.36971093918580966,-0.44513080902767904,-0.5373480002584743,-0.6450063626077599,-0.7594061923585503,-0.8565529460225885,-0.8868392767498118,-0.8237256448680691,-0.704838442816333,-0.5816295218572305,-0.4783688297229579,-0.4019266827527205,-0.3525131675096585,-0.33179114318334507,-0.3399740610436086,-0.3745569906189845,-0.42706326776971626,-0.4851943327603377,-0.5328926503330601,-0.562688932852884,-0.576862286982691,-0.5834554846104887,-0.6075554951323007,-0.7037324344679985,-0.7060425372121301,-0.3509321484395529,-0.226274745395463,-0.23102761156869334,-0.29876994889209907,-0.40280908748908895,-0.5123636316286971,-0.5712994785714176,-0.5442356452597216,-0.43110353444510957,-0.23416012154761007,0.0346763112112821,0.31858078221013864,0.509889780060534,0.5564784671753531,0.4982047758678819,0.39019372773908223,0.2662459580508632,0.15015528394815572,0.06995250057522039,0.03821290325983729,0.053164103775995925,0.1097216081414247,0.18692262889866698,0.26340435353349945,0.3207261109644314,0.35793508316059214,0.37521189844160524,0.3825988911719168,0.3851618488064566,0.35239199145252176,0.2663658325774355,0.22219164234954628,0.22519289396263215,0.25271857543966664,0.30584594551010796,0.40920731854104486,0.609314382342132,0.8130865749913024,0.7117763188371435,0.5644298736784018,0.48252173061946024,0.4410470307076573,0.40942095852000865,0.3660293305733216,0.3070428754408281,0.23999958125004275,0.18657742476057576,0.16898038463941048,0.2145921050962645,0.42212250302552734,0.26272896863017786,0.060505109252644955,-0.014036943390672078,-0.04545805329826753,-0.043693973208110436,-0.01272304085912978,0.04396341945893293,0.11713201866105494,0.19830900934044154,0.2854842333046662,0.39951609449520303,0.5867971141713098,0.8678794512407935,0.8957664594834754,0.6728153410730526,0.5324360842964208,0.4651817399289343,0.43669547027250477,0.42722177431098,0.41931196673691523,0.3965633336170456,0.3419186586763453,0.24914204762322884,0.13149267758340719,0.011809777682990633,-0.09204482202651026,-0.17287920436699625,-0.23390319652952316,-0.2883784242458762,-0.34358216054394447,-0.4006607437111704,-0.46398848469178616,-0.5349029375903326,-0.5346508693902551,-0.15875137715377227,0.18951173943390487,0.3429499645200047,0.39722576348594735,0.37343725650680143,0.2553415151107088,0.03232681314101998,-0.21616044165054984,-0.3886734962426847,-0.4756313528575325,-0.5023233502229353,-0.4771183794108354,-0.3983907327449182,-0.2877278216293452,-0.1828012106267226,-0.10731662667038129,-0.0732178341945601,-0.09649028781535644,-0.20802003649941403,-0.39474150949913184,-0.5305847587252528,-0.6067762451171526,-0.6614074822996134,-0.699271478222773,-0.7043188405658666,-0.6446391257032752,-0.4739347798330154,-0.18039114098742023,0.10553845214768258,0.2462939585709832,0.2615552913650857,0.2581633299240439,0.36481103209318805,0.616003362219641,0.8473237117274859,0.9484467421495487,0.9797899896223887,0.9890431692657584,0.9918602233051808,0.9926654094089594,0.9925763672990513,0.9915547311054003,0.9875702317441026,0.9611796741693325,0.14756387090708675,-0.8765588703493806,-0.9185147359132936,-0.9036773853612533,-0.868891922395112,-0.8310652844419553,-0.8105000202190973,-0.8154609457150976,-0.8367211179039166,-0.8630142229720361,-0.8863391052215058,-0.9010287189864402,-0.9070141036894495,-0.906329458925624,-0.9018505597462697,-0.8918823995328998,-0.8724471656032472,-0.8401146745106434,-0.7986620761217912,-0.7563763592072754,-0.7225725114209385,-0.7059937426707878,-0.7108193339650631,-0.7389496006899599,-0.7934625915189478,-0.8745905271586125,-0.9496471114604095,-0.8809779805534388,-0.6261145896438806,-0.4077232754508902,-0.30011355182053834,-0.2766223218896065,-0.30435797200533443,-0.3508909874334272,-0.39222396300506857,-0.41125052836957376,-0.40000252310086587,-0.35963135245796557,-0.28843395229184005,-0.19070826621211273,-0.07679764395048125,0.02746726340898187,0.09989751723718195,0.1359033865415054,0.14646844195565054,0.1525721601818295,0.1673882959771139,0.193054199464499,0.22007840253243033,0.23421480782965098,0.22664644652687554,0.193810812860569,0.14463463486114633,0.09555988263464203,0.07417601471962791,0.0749445783193003,0.06326850363172035,0.034813150244066705,0.0035445687028513783,-0.030556264553506792,-0.06707401277241815,-0.0918453316396838,-0.08751815941107594,-0.06591422904077611,-0.042782511050863295,-0.01637137869676339,0.015801943085005352,0.06618324693253597,0.130369444739236,0.18821545088749778,0.2298252808944066,0.257930936639511,0.2788324643090258,0.3038737238302389,0.34551155628103464,0.4124689802264507,0.48741826145800193,0.5349925580089305,0.5227070719906707,0.4284873599599763,0.24020833098872532,0.029623073856615702,-0.11978859035427088,-0.1611665787110015,-0.10830140473665686,-0.025525859385201164,0.02692503085216426,0.02223961364736307,-0.037717536398250436,-0.13037832708521324,-0.18931205471767945,-0.12355212416094624,0.04554470606641457,0.21289059265674423,0.3158227424580288,0.360814495429922,0.3673976391881362,0.34601507928514946,0.3068331666764597,0.25697654174725293,0.19761072834635088,0.12682537707457153,0.049501187117345156,-0.008607857530191167,-0.019165974584894475,0.007464275608567572,0.04568599225534611,0.08914021621991391,0.13964479453992454,0.19173424188291727,0.2314637466937551,0.2534506437765145,0.26245902350971784,0.2692107010064904,0.28358303626884496,0.2895110730581571,0.015719202027471367,-0.17721124152917458,-0.2934760649295812,-0.3932790329693807,-0.4654085883947308,-0.48218698262496157,-0.3604637537027608,0.03726656559977949,0.4584561524380673,0.6768922414585579,0.771972556103011,0.799832512495323,0.785393136758549,0.7407063586439575,0.6724186413313767,0.5876277691777448,0.5020179859156894,0.4503344959967242,0.5238010285191015,0.7237274935866597,0.3053582216275217,0.20081364751665728,0.17893093860988035,0.1923586121385774,0.23657596005060255,0.31599947439643145,0.427298577117862,0.5445748839487232,0.6291504360127297,0.6567273438364205,0.6171596929951747,0.475900846265044,0.10417545161291364,-0.582236484896237,-0.9244905533300963,-0.9188904106397056,-0.8298952302185514,-0.7319750006310687,-0.6526673451969676,-0.5993342632892715,-0.5660665130257934,-0.5453347679690452,-0.5339858897885877,-0.5325195959013009,-0.5409193934376514,-0.5606118346062312,-0.590573908828939,-0.626759450184269,-0.6611538937380048,-0.6860184354114386,-0.7022887355194095,-0.7169586899669922,-0.7349726603012907,-0.7492254030920006,-0.7503424119636408,-0.74228229805968,-0.7256560310056512,-0.6693087552465075,-0.4759415877456318,-0.0006690358199654333,0.4309002068447144,0.5576327346071784,0.527824963578643,0.41647304371774974,0.2590496846427455,0.08937033731551713,-0.06440964359724893,-0.19284367133175742,-0.3023844434672693,-0.40885007569061943,-0.5404520727154902,-0.650979693889622,-0.6081380562223491,-0.5314423706582029,-0.49473960601369804,-0.4804923740636115,-0.4655534314072001,-0.4380804584844579,-0.3917328733778015,-0.32958062247545916,-0.2606752169513248,-0.1814730906824958,-0.08457056682205909,0.0016857710976702865,0.04877885394265109,0.05647052288526925,0.027202859071286833,-0.0398602806319223,-0.15293561900941188,-0.3364703860566078,-0.5990153928338375,-0.7622322750206779,-0.7095359945659714,-0.612060135396518,-0.5243296868443712,-0.4375761285770599,-0.34194651559152456,-0.23550548474224875,-0.1092271309158967,0.060618458432769494,0.2962396169843071,0.5599080116138699,0.7532850009817119,0.8487548252745722,0.8895253896224949,0.9139956398190525,0.936777297214932,0.9533206633814001,0.9325514014205374,0.8105313312710805,0.5950730824442324,0.42662701962909905,0.36752974923065457,0.39194327437378357,0.45388668113753017,0.5088590544808947,0.5273713831710307,0.5039645121205032,0.4467558372846019,0.36463889881415357,0.25695483080919024,0.11387258498778356,-0.07409775034264315,-0.30831474984806956,-0.5579999654766423,-0.7584497420364663,-0.8777543930825106,-0.9378250103187769,-0.9698713606108863,-0.9879381895524688,-0.9876686669905448,-0.9466110544205013,-0.8317240603946794,-0.6172925238255943,-0.28896719592601494,0.15451502226834887,0.5933798024846896,0.8502744996414865,0.9489286140723305,0.9803980454955357,0.9895819318115533,0.9916879445097745,0.9910576637358524,0.9890080032874454,0.9858014308053428,0.9783166501368199,0.9169203621564195,-0.3757681699684509,-0.8578920772806988,-0.9116569980501391,-0.9348510680906277,-0.9521400604704849,-0.9596446402854806,-0.9456314357928685,-0.9055541524768417,-0.8532632764107287,-0.8055726296049007,-0.7712959845916064,-0.7496880557574713,-0.7421477203799166,-0.7495374465972178,-0.7725681734019366,-0.8073099467633968,-0.8460392149543261,-0.8784453648428779,-0.8985115486468015,-0.9095779135668325,-0.917093261808276,-0.9157605904452577,-0.8884797535436261,-0.8047512497882826,-0.6328813169834833,-0.3911931967699666,-0.1553697327984303,0.039341093882774736,0.1922727031925047,0.29871908595577307,0.34998291386612,0.35133946742714595,0.3049896235782432,0.2230212689222738,0.11683271587948632,-0.004589466189596292,-0.14466783838968073,-0.29775254713116234,-0.419995775444393,-0.4375193789721744,-0.3565806410292866,-0.2449546552223514,-0.16856038469528042,-0.2086031804263562,-0.39408861552894214,-0.5934092686417325,-0.7232384871919072,-0.7931073224543955,-0.8271101492250142,-0.8402003763369292,-0.8439772161225055,-0.8485265998159276,-0.8530731719349168,-0.8497420974619928,-0.821489025189751,-0.7460802457550944,-0.6156524487989464,-0.468171854277837,-0.34557514529404615,-0.2521937052314573,-0.17858506306182836,-0.11843455130633807,-0.07975449800978071,-0.10000591414086708,-0.24790025412625571,-0.36694150845130546,-0.38009361509078915,-0.3612643047048216,-0.31485449490887707,-0.24049261343287065,-0.1420815953096302,-0.029022608309427687,0.0903109457485052,0.21968176626355415,0.37149047746850383,0.5342226898562688,0.6669418780861583,0.7525540023659532,0.800556943533947,0.8206664295630577,0.8161695527803187,0.7840386883116451,0.710806439379056,0.5797724024690357,0.4484775618960014,0.5108701374957254,0.760642083780999,0.9125726449691358,0.9569934915629864,0.9606972904955384,0.9401724087895972,0.8912480067831788,0.8066437267981058,0.6853753809163025,0.5324601498650043,0.34306752388482686,0.08564904785852089,-0.2441781091939344,-0.5140434186785006,-0.660550448964562,-0.743955616406295,-0.8034309371355144,-0.8541270450111518,-0.8977040852364051,-0.9279866885452613,-0.9314070622852255,-0.8976296837524712,-0.8303583915152781,-0.7470341214982047,-0.664043591484996,-0.5873715006655665,-0.5163987568478688,-0.4453585587602881,-0.3760020331610771,-0.31705301837057825,-0.27533332252371095,-0.25212575284132743,-0.2445003863496463,-0.24892185564552782,-0.26987846856761083,-0.3268918837360948,-0.4614374442421167,-0.6873636886873696,-0.7044470620394476,-0.580232134803497,-0.5108858900091888,-0.485161178154994,-0.4882618980703602,-0.5181425600721322,-0.5798515535740592,-0.663634698692688,-0.7014184793684879,-0.6468632875976863,-0.5528109900462073,-0.41185400533475663,-0.2516591618881111,-0.1468122373896179,-0.1014893540318635,-0.09100227881212974,-0.09637734248705306,-0.11099468934944387,-0.14019536710797323,-0.20940519057790227,-0.36906616673738635,-0.5931499394253061,-0.7178116521579456,-0.7564329204979792,-0.7805113024240883,-0.7821952760158681,-0.578026316633632,0.12091826805012598,0.46829704269887495,0.5931995123039154,0.6534867966113971,0.6803098882382903,0.6698842074091531,0.6010153181084672,0.432946398298296,0.11316681299795098,-0.3138026691491246,-0.644853140929008,-0.8019135973174735,-0.8342973209300059,-0.7459716414522511,-0.32161399794780915,0.5575248940311627,0.8373547696665913,0.8637810821560999,0.8085527926971952,0.6682532099375599,0.4499052500609647,0.25004055085710825,0.17773266635520849,0.2727547189219592,0.4898436141644557,0.6922767358898451,0.8048130188175524,0.8471830858236047,0.8377857197895258,0.7428233674437963,0.38182804621929195,-0.25346077234977193,-0.5650943787818736,-0.6443855205824625,-0.6012702105108925,-0.2708455676698876,0.37238658957056314,0.5566423846419044,0.5539141097798495,0.47471668846950105,0.33502943065559754,0.16114025658702286,-0.004129596556084825,-0.12914641613690825,-0.2090165396020205,-0.252968347728552,-0.26503545680464197,-0.25191549315282336,-0.22192907891219868,-0.183990203819702,-0.14279521735888642,-0.10012642385113485,-0.050280115415823605,-0.00876471552489302,0.010864945620909106,0.02148577359248431,0.029065286547850573,0.03480796192323378,0.03892536819492494,0.04122409350067242,0.04229365046969649,0.04592547380320284,0.06594934892482927,0.1557237038746687,0.34578480286411595,0.37840431076985276,0.42842870048559684,0.47722953832340803,0.505324887423624,0.5105490995416742,0.5000756729532745,0.48308109225980866,0.46084098755743946,0.4245063354334661,0.3494242226658307,0.19281493637972966,-0.07865565447455793,-0.3814532545863085,-0.5685232554616653,-0.6370137075734386,-0.6438600183909,-0.6260490542556166,-0.5989712816739515,-0.5661636423795868,-0.5260768142542179,-0.48392430128047254,-0.4402278121645647,-0.391718382181979,-0.33221786909138096,-0.24951754611886176,-0.13614413076566206,-0.005738284856028656,0.10552196806063134,0.16364393976463268,0.14120818641961128,-0.020460390552437792,-0.294060362894879,-0.4823318885742971,-0.5698990314477761,-0.6078590924191476,-0.6190138287893656,-0.6213769809618832,-0.6304049071414808,-0.66158777285534,-0.7116037890918419,-0.7569665381910639,-0.7648736037213024,-0.7192747407143911,-0.6436144838360239,-0.5760045486566119,-0.49257360482720397,-0.29140809292037,-0.21553819692965562,-0.19843268038556544,-0.19313863086976027,-0.18700997457321744,-0.175772613296142,-0.15584441667325938,-0.124086583645183,-0.08506282783127583,-0.04345726277445929,-0.005512594303271876,0.010717592444399862,-0.032501304644777025,-0.1616839546693925,-0.16475689489860168,-0.10187155005944977,-0.028826427286733597,0.03865804013450623,0.0905104386208636,0.12108126158713334,0.12987053567059323,0.12208983322058668,0.10342026638148888,0.08020504857650952,0.06023253246434589,0.05128739289690191,0.055406086047061764,0.07096632430324613,0.09283485384867232,0.12329527690939995,0.1720699911405436,0.2709388952284862,0.4446595372038041,0.3281356086695554,0.25741294149309646,0.28085394952346987,0.34765136625419957,0.4137215653224617,0.44526286823605915,0.42476437027442016,0.34870539342362533,0.22893108689380334,0.09012911544242741,-0.035472019660730596,-0.12870193095865148,-0.19342619771918118,-0.24496020638965307,-0.2892953778587757,-0.33278282253749136,-0.37685775557438267,-0.412921152918153,-0.41970872437252443,-0.3885314443417814,-0.3318992499015938,-0.26663927187072456,-0.20219088418902864,-0.13592914841686338
