-0.0012404239720539996,0.0006816418418617201,0.002597192392402718,0.004441073035682515,0.005998271637750398,0.00695604671200697,0.007171059247985539,0.00653254253181449,0.005125195791420911,0.0029881206577494425,0.0004861775081744316,-0.0022047147117131467,-0.005364719965555519,-0.009013388063755375,-0.012798878300935795,-0.016434516676441913,-0.01982256217881733,-0.022891353343385747,-0.025217377949397636,-0.02615560642947434,-0.025517085693024768,-0.02334092098924423,-0.01981604932760972,-0.015274762809179035,-0.009651904779926423,-0.0027194374034859594,0.005307632010525871,0.01331515442832998,0.019583046045239767,0.023081858261486798,0.0241894892176962,0.024515260426989326,0.025961700355742648,0.029766745227659985,0.035552492881837684,0.041273103983382256,0.04430929872968445,0.04298015444712445,0.03706408544433822,0.027766487810662707,0.01710064868578892,0.007653203210717629,0.0012615191775210116,-0.0017225691408696469,-0.001891971617002344,-0.0005432678753711941,0.001026962057501836,0.002199748059625567,0.0028187185836445984,0.0029685744655974255,0.0027796253952848586,0.0022779336322893413,0.0012615191775210116,-0.00023704044606296548,-0.002041827498955171,-0.0036576658835626623,-0.00475877956625808,-0.005280020737628433,-0.005521092718994478,-0.005990206959032829,-0.00702616841000888,-0.008681099982976111,-0.01043376050656417,-0.011560938056953437,-0.011274256015741523,-0.00921536685676168,-0.005670948600947304,-0.0016508988315805941,0.0016198707239662756,0.0031379769417301225,0.0024538517738246124,-2.48329508764508e-06,-0.003299314739145251,-0.006153092563679395,-0.007325880173914536,-0.006315982188604484,-0.0035534184533442966,0.00014737267651739324,0.003796039850053189,0.006636788353921446,0.008500215591381114,0.009568753359230775,0.010070447936421256,0.01041576573989426,0.011158532298450787,0.012422536008099146,0.013868967896295417,0.014983115723990949,0.01500266231817082,0.012995896070244454,0.008285203055402547,0.0012940967004781774,-0.006179156029345396,-0.01195186592027231,-0.01438214036866968,-0.013013890836914364,-0.008870045033010155,-0.0040420804936460745,-0.0005953915904803771,0.0004079919355106572,-0.0007387322090584825,-0.003227644429856198,-0.005925050305007089,-0.007970909741293192,-0.008993841469575506,-0.00935219301602077,-0.009573718403206944,-0.00987994703859873,-0.010590133260003127,-0.012017022574298052,-0.013730593929804892,-0.014538513122108637,-0.013561191453672194,-0.011130917005274826,-0.008277138376684978,-0.006100969652625916,-0.0053125970545020405,-0.0058077747602063926,-0.006628723675203878,-0.006035812998600176,-0.002067889758537615,0.006239343619116443,0.01835161865246502,0.03230126549816431,0.045345244099546406,0.05491652219368977,0.05957510033803524,0.059803130535871975,0.05644113241804847,0.049801843450885584,0.04002863078679968,0.02800104694082114,0.015484810301181432,0.004434556164196385,-0.0037163052640744195,-0.008518210358051023,-0.010544523200157257,-0.010713925676289954,-0.010055866386217558,-0.009482502303793727,-0.009586748125900683,-0.010440277378050299,-0.011788980315625744,-0.01320283990722693,-0.014395170091363417,-0.015385525502772121,-0.016388906616596043,-0.01769200351460414,-0.0192752615620595,-0.02101489638323234,-0.022715433995766917,-0.023927310774083277,-0.02443552222275989,-0.02436384869724802,-0.023836094674670058,-0.022891353343385747,-0.02154916325701791,-0.01990074855553681,-0.01832400335928906,-0.017073029372334438,-0.016226021011949476,-0.01591979237655769,-0.01634329655675017,-0.017431384939058225,-0.018519469301087756,-0.018623715123194714,-0.01699484701589348,-0.013398301828747105,-0.00827062552547737,-0.0023610858570406955,0.0034767818939955165,0.008526279057047115,0.012455112324972756,0.015185098537275777,0.016931246209656227,0.01794766106645241,0.01832555920707754,0.017823864629887057,0.01611681014586635,0.012806946999931889,0.00810277085657611,0.0030923684899956615,-0.0011101142822531897,-0.004270122752318381,-0.007052227855396358,-0.010121019019964777,-0.013958632168198674,-0.018434766052882145,-0.022806650095180136,-0.025992720824827772,-0.02698306819567943,-0.025054488324472542,-0.019952871466590288,-0.011815043781291746,-0.00024355595065439858,0.014422785384539378,0.02940839368121472,0.04129915538821269,0.04830979748256492,0.05095510054805495,0.05147632965858973,0.05189331294701756,0.05256441804089778,0.05235592639668387,0.0497302020876019,0.044192027205162285,0.03646466191652691,0.028144385951287838,0.021120698053127784,0.016507738009185223,0.014298992968252553,0.013758205202702328,0.014377175324693507,0.015934377947039915,0.018104033819891365,0.020208529018438556,0.02114024464730765,0.01987624093765929,0.015862708441806567,0.009327681377864728,0.0011898492702598113,-0.006967528627469272,-0.0137371067810125,-0.018428249181396014,-0.02098883291756634,-0.021907514803463174,-0.021914031674949305,-0.021536133534324167,-0.02103444297741221,-0.02027212982467581,-0.019125405680106674,-0.01755517735534505,-0.015743873028938864,-0.013821810029218107,-0.012075662356837661,-0.011078794094221349,-0.011482755700512482,-0.013489521948438846,-0.016447546399135652,-0.019601036791631155,-0.022096463873775743,-0.023360463563145577,-0.02308029839341979,-0.02134066759252547,-0.01834354995346893,-0.014303953991950199,-0.009580235274693075,-0.005032431884776256,-0.0019115182111822137,-0.001214362114499408,-0.003370985048434304,-0.0076842317203598,-0.012720691924216317,-0.016949236956047612,-0.0193013250277255,-0.01956846047475755,-0.018493405835421754,-0.01704696992694696,-0.01551583479054508,-0.01378271684085837,-0.011821556632499354,-0.009749637750825773,-0.007814541008132756,-0.006087939929932179,-0.004491648139504556,-0.0025956433790877234,1.7063135466888808e-05,0.0033204103466401153,0.007210152436345278,0.011582036478643268,0.0165598609202387,0.022619260892934576,0.029942660555000288,0.038295512837112966,0.046772161555791,0.05368511088202911,0.0569232844213376,0.055287915523664334,0.04915031711341341,0.04029577427438877,0.030770126341483902,0.02223484588082331,0.015693301945395345,0.011217172080990398,0.008011554757162894,0.005307632010525871,0.0028969041563083726,0.000805435866259956,-0.000816917781722257,-0.0022307765692677383,-0.003742367121629011,-0.005442906342274998,-0.007084808192548491,-0.008655036517310111,-0.010583616388516995,-0.013228899352614409,-0.016955753827533743,-0.021842362169715957,-0.027250203642711475,-0.0320521127569666,-0.035212120020948236,-0.036117768163872806,-0.034677849126884146,-0.031139943722277377,-0.02616212330096047,-0.02049365521186199,-0.014388653219877288,-0.007899240236059844,-0.0012990633525657566,0.004812454304821519,0.009933621777162168,0.013992764332860768,0.017309144350281358,0.02022807963289695,0.02304276507312706,0.0258900308505093,0.02867865684535193,0.03101119832284995,0.032783413481174924,0.0339431673484378,0.03452304428206924,0.03481624319476728,0.03530490402898551,0.03591736129976908,0.03584568777425721,0.03414514614144411,0.03035965188398516,0.02480194648847977,0.018188733047818453,0.011679769449542618,0.006232830767908835,0.0022844492976919154,-0.00030871071514923304,-0.001787724186783978,-0.00245881802388434,-0.0028758085488135086,-0.0039378314553162996,-0.0060618764642661775,-0.008961265152701896,-0.011912776752191094,-0.01432350058613007,-0.01587418231671182,-0.016545279370035002,-0.016734228440347568,-0.016871054599606656,-0.017248948719953267,-0.018024291595383404,-0.01922313865100602,-0.020741244064714164,-0.022337535855141786,-0.023731848852563103,-0.024839479808772498,-0.025777708288849205,-0.026657296986386296,-0.027654165249002608,-0.028976804720912054,-0.03049491415489872,-0.03160254511110812,-0.03155041817977612,-0.02991503320098876,-0.0264618310445876,-0.02081291356994751,-0.012746755389882318,-0.002582612048282575,0.00862400800766794,0.019048775151175677,0.026600217071913696,0.0300013003375399,0.029017461797617324,0.024300251911289282,0.017954177937938538,0.012285709848840058,0.00868916466169368,0.00751637705145854,0.008285203055402547,0.010024837876575387,0.011770985548955837,0.012846040188291627,0.012995896070244454,0.012324803037199798,0.011008672396219436,0.009138732307552163,0.006851800889900014,0.0043303103420894275,0.0019651909396063913,0.00015388818110882634,-0.000706154686101317,-0.0003868964486241484,0.0009487764848380614,0.002714471153426232,0.004186967311344209,0.005105649197241042,0.0055552208633780475,0.005600826902945394,0.005411877832632828,0.00536627179306548,0.005626890368611396,0.005998271637750398,0.005815839438923962,0.004551835729275603,0.0022518721767626026,-0.0006800928285467256,-0.003468717215277948,-0.005521092718994478,-0.006635240546690009,-0.006863282805362315,-0.0066482702693837475,-0.006289918722938484,-0.005983690087546698,-0.005859897671259871,-0.005996719810240437,-0.006329011911298223,-0.006726456646103227,-0.006908888844929662,-0.006921918567623401,-0.006921918567623401,-0.007195570886141578,-0.008062129860984934,-0.009449925986920118,-0.010694383102388608,-0.01102667118316787,-0.009834336978752859,-0.006889342250749792,-0.0025956433790877234,0.0022388408459574544,0.006786644235874274,0.01022029979809556,0.012266163254660187,0.012917709693524975,0.01261799792961932,0.011797049014621837,0.010467888650947738,0.008558855373920723,0.006278436807476182,0.00397195799158846,0.0019195824878719301,0.00010827980977993554,-0.0016508988315805941,-0.0034165930981409124,-0.005195317489422822,-0.006602660209537876,-0.0073975496791478836,-0.008016519801139063,-0.00923491345094155,-0.01151533201738609,-0.014597152904648246,-0.01772457983147775,-0.020063634160183377,-0.020708667747840553,-0.018858270233074625,-0.013984695633864674,-0.005670948600947304,0.006180703836576834,0.021205397281054868,0.038165199529061486,0.054382267380739764,0.06663137259362595,0.07254745365724775,0.07119221776707207,0.06317164150490309,0.05048597424718102,0.03591736129976908,0.021830888294810703,0.009640422864464123,-0.0004259895163755323,-0.00868761283418372,-0.015255212194720641,-0.019985451803742418,-0.022748010312640524,-0.02368623879271723,-0.022976052571312834,-0.020930193135026733,-0.01755517735534505,-0.01273372566718858,-0.006335528782784354,0.0011898492702598113,0.00864355460184781,0.014826746990830513,0.019296364004027854,0.02149208334254531,0.020449605020083125,0.015100395289070168,0.005639920091305133,-0.005853380799773741,-0.01634329655675017,-0.022917412788773222,-0.02366669219853736,-0.01879311759932741,-0.010440277378050299,-0.0023154778073340865,0.002128077750336514,0.0017110872254073458,-0.0023024468785567908,-0.007475736055867362,-0.01154139146277357,-0.013496034799646454,-0.013352695789179757,-0.011899743009218831,-0.009906006483986207,-0.007847117325006366,-0.0060618764642661775,-0.004569834516224036,-0.0033970469059888954,-0.002634736165419611,-0.002113497808244224,-0.0015205895438076367,-0.0007843406607929439,0.00023207387438095654,0.0014895610341654657,0.0027926563240621544,0.003672245825654953,0.003730885608194562,0.0029685744655974255,0.0017436647483645112,0.00035586797918476273,-0.0011883002569448168,-0.0032732528815906593,-0.005990206959032829,-0.008993841469575506,-0.01150881514589996,-0.012857518083475405,-0.012798878300935795,-0.011560938056953437,-0.009469472581099989,-0.006954498904775533,-0.004335275386065598,-0.0019115182111822137,6.267147865382996e-05,0.0012615191775210116,0.0016263859873409973,0.0013853132019192474,0.0008640752467717129,0.00025162030774968536,-0.00031522621974066614,-0.0008625262334567182,-0.0012013311857221123,-0.0009537431369256409,0.0001278262431486644,0.0022649027035120456,0.005444454149506436,0.009340711100558468,0.013152268823683413,0.016383945592898394,0.018736033664576286,0.019856694343479423,0.01964168582777938,0.018162669582152454,0.01555647980641478,0.01257238786977345,0.010089990510322605,0.008597948562280463,0.007952914974623283,0.0076857795275912365,0.0074772838630988,0.007281821941578626,0.007275305070092495,0.007646686339231498,0.00862400800766794,0.01037015568004839,0.01253329468141371,0.014494454889772726,0.01549132315238904,0.014768107208290904,0.01199251093614201,0.007255758475912625,0.0009878692711699486,-0.006348558505478093,-0.014160614981483502,-0.021712052881943,-0.02828616509368753,-0.03355067157649488,-0.037505564289807995,-0.04016388099687767,-0.04130410033079625,-0.04058085222446992,-0.03745995422996212,-0.031237676693176727,-0.021190811710572643,-0.006967528627469272,0.011067316199037568,0.032001553734258656,0.05419331429014867,0.07391571524983863,0.08628864504123984,0.08827586871526485,0.08052243996096348,0.06660532118879552,0.0508573675771556,0.03639950526250117,0.024397984882188632,0.014650827643211685,0.0062523773620887044,-0.001676961091163038,-0.009495532026487466,-0.016903630916480263,-0.023432137088657445,-0.028566330263413313,-0.03201953644009299,-0.03396114603399362,-0.03481467126586471,-0.03481467126586471,-0.03409797219325271,-0.03268411260165152,-0.030110499142787458,-0.025960140487675643,-0.020180913725262595,-0.012916157866015014,-0.00428315247501212,0.00582235229013157,0.016976852249223573,0.02746677604675705,0.0348488195116409,0.03731167429719039,0.03449698483668176,0.027382076818829964,0.017921597600786408,0.00812231745075598,-0.0004976594236367327,-0.00703919813270262,-0.011280772887227652,-0.013606797493239542,-0.014649275815701723,-0.014981563896480988,-0.015124902906947684,-0.015580987424292295,-0.016675588657807956,-0.01806989763495075,-0.019249202116672023,-0.019776952118971458,-0.01940557084983246,-0.018369613419134928,-0.017125156303666438,-0.01601752534745704,-0.015359462037106121,-0.015020657084840726,-0.014675335261089202,-0.014128038664609894,-0.013496034799646454,-0.013013890836914364,-0.013072530619453973,-0.013528611116520064,-0.013724077058318759,-0.012974797648554625,-0.011098340688401218,-0.008537756952230892,-0.006146579712471787,-0.0043808854459114685,-0.003377500311809025,-0.002745499261040551,-0.002041827498955171,-0.0011817845915422427,-0.00020446308391694088,0.0008640752467717129,0.0018153346556257118,0.002525521681085813,0.0031510078705074183,0.004017566041295068,0.005444454149506436,0.00749683045727867,0.009927104905676038,0.01209024390704136,0.013087112169657673,0.012565875018565842,0.01086533338575274,0.008317783392554678,0.004942763592594476,0.0007402812223734772,-0.003866161548055099,-0.008290168099378716,-0.012121268396405009,-0.014948987579607378,-0.016258597328823083,-0.015665690672497908,-0.01331360260082002,-0.009541142086333337,-0.004739236992356733,0.0006816418418617201,0.006180703836576834,0.011086862793217439,0.015126454734457645,0.01846238134605811,0.021400863222853565,0.024052663058437108,0.02651551784398661,0.02884154647027702,0.03123924058152226,0.03361087524738001,0.035624162387071036,0.03696635247343887,0.03731167429719039,0.03645162817355465,0.034047417190823284,0.030340109310083813,0.025916094316175302,0.021283583657774347,0.016872606427116615,0.012930743436497237,0.00929510506099112,0.005861445478491309,0.0023496039415783943,-0.0013316404734950698,-0.00482393622028382,-0.0077624140768007555,-0.009945099672345947,-0.011280772887227652,-0.011815043781291746,-0.011587001522619439,-0.010713925676289954,-0.009489019175279858,-0.00818592227727176,-0.006947982033289403,-0.00591202058231335,-0.005260474143448563,-0.0049021225970032984,-0.004921669191183169,-0.005319113925988172,-0.006140062840985657,-0.00754088868961458,-0.009612811591566685,-0.012173395327737008,-0.015079296867380337,-0.01833052023077519,-0.021718565733150605,-0.024722200243693284,-0.026774576551465517,-0.027256720514197606,-0.02533465349419833,-0.01983559592178959,-0.009866913295626467,0.004708208482714562,0.02285381600281449,0.042413295175351175,0.060865167513349604,0.07511456230546125,0.08203402448290698,0.0796949460325302,0.06854040185037445,0.05129388941920624,0.03191033361456691,0.014201259997353204,0.0009618074136153572,-0.006772062685670574,-0.009619328463052815,-0.00927400663930129,-0.007299816708248535,-0.004667563466844861,-0.002113497808244224,-0.00031522621974066614,0.0003819298769421395,-3.506068416953579e-05,-0.001207846449096834,-0.0028562623566614907,-0.004608923684305252,-0.006055359592780046,-0.006765549834462966,-0.0068958591222359235,-0.006746003240283096,-0.006348558505478093,-0.005846867948566133,-0.005403813153915259,-0.005208347212116561,-0.0053125970545020405,-0.005729588383486914,-0.0066743297147712245,-0.008316231565044716,-0.010524976605977386,-0.012916157866015014,-0.015248699343513033,-0.01739880460190609,-0.019073282769053193,-0.019978934932256286,-0.019946354595104156,-0.019073282769053193,-0.017770185871045095,-0.016212991289255737,-0.01442123355702942,-0.012375374120743314,-0.010238298585043994,-0.00814682908891202,-0.006009753553212698,-0.0037749446445861767,-0.0016378679028032984,-1.5514250800806932e-05,0.0007142193648188856,0.0005057241023543014,-0.000601907255882951,-0.0023024468785567908,-0.004016017430007926,-0.005468969807940999,-0.006732969497310835,-0.007899240236059844,-0.008928684815549766,-0.009827824127545251,-0.010531493477463518,-0.010889845023908782,-0.010687866230902475,-0.009958129395039686,-0.009332646421840899,-0.009456438838127725,-0.010700895953596213,-0.012935704460194885,-0.015437648413825599,-0.017255465591439395,-0.017503054444291573,-0.01581554655445073,-0.012381886971950922,-0.007801507265160495,-0.0028562623566614907,0.0017566956771418072,0.0057376530622044826,0.00866310119602768,0.010233333541067823,0.010676384315440175,0.010305003046301171,0.009497083853997427,0.008519762185560983,0.0076597200822037595,0.006903923800953492,0.006141610648217093,0.005066560029159825,0.0034637509652182207,0.0013201585580327687,-0.0008885880910113099,-0.0023610858570406955,-0.0028367161645094733,-0.0029018704063680997,-0.0035534184533442966,-0.005429876619581259,-0.007996973206959194,-0.009554171809027075,-0.008492150912663546,-0.003944346718691021,0.004102268083417122,0.01497660287278334,0.027792551276328705,0.041364324103074,0.05341145052295389,0.06149064244599134,0.06393396671847507,0.060650163017928076,0.05279900129272736,0.04225690634079812,0.030906952500742994,0.019856694343479423,0.0093732914377106,-0.0005562988041484898,-0.009658417631134031,-0.017294558779799137,-0.02295650999741149,-0.02648137763876747,-0.02796038986411587,-0.02767371184318248,-0.025999233676035377,-0.023334404117758098,-0.019952871466590288,-0.015795999960270864,-0.010818175518675434,-0.005136677706883213,0.0011703026760799414,0.008324296243762285,0.016188479651099697,0.024319798505469153,0.03181912153543222,0.03743547073375574,0.040054690232187155,0.03899918218703123,0.03471851022386794,0.02868517371683806,0.0223716720400824,0.016970339398015965,0.013406370527743195,0.011399604279816834,0.009914075182982299,0.0076792666763836285,0.004108784954903253,-0.0008951037564138837,-0.007013134667036619,-0.01368498386995902,-0.020506684934555725,-0.027263237385683738,-0.03369401058696157,-0.03916049586277522,-0.04306325360419929,-0.045096107439462796,-0.04503093872460149,-0.04271143903063278,-0.03828742403672426,-0.032345307649386125,-0.025829835220181206,-0.019646642831198505,-0.01432350058613007,-0.010186175673990517,-0.007130414232115838,-0.004797872754617819,-0.0027780767839977166,-0.0009472274715230668,0.0005708787462407801,0.0018153346556257118,0.0029881206577494425,0.0040827214892372515,0.0050795897518535645,0.006122064054037224,0.007346974575325843,0.00868916466169368,0.009725126112669732,0.01018120660973582,0.010018321005089257,0.00928858818950499,0.007946398103137152,0.005913572409823311,0.003444203969010499,0.0013983445327243956,0.000974838342392653,0.0035810293242138826,0.010168176887042083,0.02116630811297365,0.03643859443058239,0.05371116228685954,0.06812341856194662,0.07477573323152471,0.0713290680480023,0.05904735837629285,0.04197026048209292,0.024456624664728244,0.009725126112669732,-0.0010319287095894153,-0.008387901070278064,-0.013359208640387366,-0.01650618618167526,-0.017841859396556966,-0.017294558779799137,-0.015157483244099814,-0.012160361584764747,-0.00935219301602077,-0.007508312372740971,-0.006863282805362315,-0.00704571500418875,-0.007638621660513929,-0.008264108653991239,-0.008622460200436503,-0.008700646577155982,-0.008505180635357283,-0.008303201842350979,-0.008296684970864847,-0.008570333269104502,-0.009058998123601246,-0.009762667473519511,-0.010733472270469823,-0.011860649820859092,-0.012974797648554625,-0.013952119316991066,-0.014668822409881594,-0.015033686807534466,-0.014838224886014292,-0.014088945476250154,-0.013079043470661581,-0.011977929385938313,-0.011085306945428955,-0.010700895953596213,-0.010941967934962259,-0.011547908334259699,-0.012075662356837661,-0.01203005229699179,-0.011183039916328304,-0.00987994703859873,-0.008420481407430198,-0.007065261598368621,-0.006022783275906438,-0.005332143648681911,-0.004967275230750516,-0.004915152319697037,-0.004889088854031037,-0.004459067802352425,-0.0034882638094578177,-0.001787724186783978,0.0007142193648188856,0.0036136068471710483,0.006317529995835922,0.008330813115248416,0.009418897477277947,0.00936677456622447,0.008076707390910109,0.005933114983724657,0.0036070911817684737,0.001691540631227476,0.00025162030774968536,-0.0006735775651720038,-0.0011426918052103554,-0.0010775371613238767,-0.0002826488173918563,0.0012484882487437158,0.0032552553007257844,0.005183835573960521,0.006499962194662358,0.0064869324719686195,0.004949280464080607,0.0023105111552465074,-0.00029567978637193727,-0.0012860324237884608,0.0008119515316625299,0.006591182314354098,0.015549962934928649,0.02604640360394826,0.03530490402898551,0.04062805029433247,0.04075183467006225,0.036184492726522605,0.02871775003371167,0.020371414623085123,0.012722243751726278,0.006545572254508228,0.0020173146547155744,-0.0010905680901011725,-0.0031559741205671454,-0.004433008356964948,-0.005071525073135995,-0.005123647984189474,-0.004393915168605208,-0.0028562623566614907,-0.000816917781722257,0.0013266742234353426,0.0031314612763275484,0.004623505234508951,0.005854932627283702,0.006636788353921446,0.006701945007947186,0.005796292844744092,0.003984988920365756,0.0015612313434545187,-0.0012273930432767039,-0.004341792257551729,-0.008010002929652931,-0.012303704615509966,-0.016812414817067047,-0.020265616973468206,-0.021275514958778257,-0.01872144809409406,-0.012205971644610618,-0.0022047147117131467,0.010239846392275431,0.023179591232386144,0.033760735149611365,0.03933147428808902,0.038790686522538795,0.03288765930328188,0.023648705472424494,0.01319787486325076,0.0030272134440813303,-0.005781711294540393,-0.012492653685822534,-0.016773321628707306,-0.018571592212141236,-0.018395672864522407,-0.017118639432180307,-0.015633110335345774,-0.014408199814057155,-0.013411335571719366,-0.012349310655077314,-0.010889845023908782,-0.009078540697502592,-0.007293299836762404,-0.0060618764642661775,-0.005429876619581259,-0.004960762379542908,-0.0037684289791836026,-0.0012990633525657566,0.002499460225559074,0.007047262811420188,0.011308388180403615,0.014429298235746986,0.015888767887194042,0.015836644976140565,0.014540064949618597,0.01253329468141371,0.010748053820673523,0.010005291282395516,0.010858820534545132,0.013458493438796676,0.017634915559574492,0.022958065845199972,0.028509258389497756,0.0332069176613674,0.035832658051563465,0.03531793375167925,0.031232727730314647,0.02410478998976911,0.015211157982663256,0.006017818231930267,-0.0022177456404904425,-0.008426994258637806,-0.012447043625976663,-0.01490989439124764,-0.01662346172647596,-0.018376126270342536,-0.02039592626124116,-0.022187679973188955,-0.02320409482998514,-0.023334404117758098,-0.022891353343385747,-0.022357082449321653,-0.02227238322139457,-0.023015145759672572,-0.02441597562858002,-0.025712555655101985,-0.026325008905607038,-0.0259471107649819,-0.024748263709359286,-0.02334092098924423,-0.022155103656315348,-0.021288544681471993,-0.02050017208334812,-0.01972482920791798,-0.019112375957412935,-0.01881918106499341,-0.01874099468827393,-0.018506435558115493,-0.017600787415190923,-0.01586115259401808,-0.01375014052398476,-0.01150229827441383,-0.008948231409729635,-0.005455936064968737,-0.0005041750890393068,0.005770229379078092,0.012513752107512365,0.01889240641801524,0.024612997418167203,0.029206410867929893,0.03141515992914109,0.02986447417828081,0.02446965438742198,0.01672275054516379,0.008754317295440897,0.002597192392402718,-0.0007257012802811868,-0.0013316404734950698,6.267147865382996e-05,0.0023430886782036726,0.004616988363022821,0.006565118848688098,0.007998525034469154,0.008819473949466639,0.008949783237239595,0.008278690204194939,0.006832254295720144,0.004792907710641649,0.00238218146453556,-0.00019143215513964514,-0.0025435192619506887,-0.004191936375598902,-0.004810906497590081,-0.004289665326219728,-0.002843231427884195,-0.0007322165436559084,0.0015807775356065361,0.0038481639671902237,0.005965695320876789,0.0080180676083705,0.009888011717316299,0.011282324714737616,0.01209024390704136,0.012305256443019927,0.012064180441375359,0.011744922083289835,0.011972964341962142,0.012989379198758323,0.014553094672312337,0.01613635674004622,0.01714625472535627,0.017165801319536142,0.01610378042317261,0.01398625148165316,0.011054282456065309,0.007822605686850325,0.004753814522281909,0.0023496039415783943,0.0009161989618808959,0.0004796618427718576,0.0006620956497097027,0.0011312098897480543,0.0016524478448955886,0.0018218503210282858,0.0012289420565916986,-0.00020446308391694088,-0.002387148116623139,-0.005006368419110255,-0.00754088868961458,-0.009469472581099989,-0.010590133260003127,-0.011007124588988,-0.010870298429728911,-0.010218751990864125,-0.009039451529421377,-0.007176024291961708,-0.004687110061024732,-0.0019440957341393793,0.0006425490555298329,0.0026884088938437887,0.004089238360723383,0.004936246721108345,0.0052424753565001305,0.005157776128573043,0.005086106623339695,0.005424907555326566,0.00649344934345475,0.008441575808841504,0.011243231526377875,0.014663857365905425,0.01832555920707754,0.021733155323911353,0.024130849435156587,0.02450223070429559,0.022137112909923963,0.017022462309069446,0.00988149484583017,0.0018804897015400428,-0.005723071512000783,-0.01193231932609244,-0.01591979237655769,-0.01699484701589348,-0.014727462192421204,-0.009378252461408247,-0.0021460753312013896,0.005692043002358612,0.013204391734736892,0.01952440626270016,0.02330338364867297,0.02359006568988489,0.020540821119496344,0.014885382753091599,0.007718355844464846,0.0003819298769421395,-0.005931567176493219,-0.010466340843716301,-0.013059500896760234,-0.013926055851325066,-0.01363937381011315,-0.01269463247882884,-0.011345929541253394,-0.009990709732191818,-0.009065510974808854,-0.008843985587622678,-0.009221883728247811,-0.00980176066187925,-0.010121019019964777,-0.009756150602033381,-0.008550786674924631,-0.007071774449576229,-0.006074910207238439,-0.006192185752039134,-0.007293299836762404,-0.008824438993442808,-0.010264358030431473,-0.011378505858127002,-0.011958382791758442,-0.01193231932609244,-0.011352442392461,-0.010251328307737732,-0.008655036517310111,-0.006798126151336575,-0.005136677706883213,-0.00419844922680651,-0.003950862384093595,-0.004185419504112772,-0.005110618261495736,-0.006596147358330268,-0.00819243914875789,-0.009456438838127725,-0.01028390462461134,-0.010720442547776083,-0.010798628924495563,-0.010570586665823258,-0.010049349514731428,-0.009045964380628983,-0.007130414232115838,-0.004393915168605208,-0.0016508988315805941,-2.2029727250290373e-05,0.00010176434539128766,-0.0010123821154095455,-0.002693375545931368,-0.004165872909932901,-0.004778326160437949,-0.004165872909932901,-0.002282900284376921,0.0006881571052364419,0.004525772263609603,0.008793410483800638,0.013113175635323673,0.017120195279968792,0.020899172665941605,0.025075594786719422,0.029994783466053766,0.035454759910938334,0.040856080492169204,0.04471976916690467,0.04572315028072859,0.04323423604979162,0.03764396237796966,0.02994917742648642,0.021602846036138393,0.014142620214813594,0.008558855373920723,0.005170805851266782,0.003776493657901171,0.003945896134033868,0.005229445633806391,0.006884377206773622,0.008031101351342763,0.007920338657749675,0.006089487737163615,0.0027991719894647285,-0.0011752693281675208,-0.005123647984189474,-0.008459570575511412,-0.010766052607621956,-0.011867166692345223,-0.011854136969651485,-0.011352442392461,-0.011085306945428955,-0.01162609471097918,-0.01320283990722693,-0.015678720395191643,-0.018467342369755755,-0.020825947312919774,-0.022435268826041133,-0.023112878730571922,-0.022787103501000265,-0.02137324390939908,-0.01892342688710037,-0.015418101819645732,-0.011098340688401218,-0.0059706603648529595,6.267147865382996e-05,0.006923470395133362,0.014142620214813594,0.020977359042661087,0.02658067449801235,0.030105546159646855,0.030835282995509646,0.028730779756405412,0.024365408565315026,0.018612241248289457,0.012565875018565842,0.007105902593959798,0.0027014402246489364,-0.0005432678753711941,-0.002680344617154072,-0.0039573776474683174,-0.0051497114498554744,-0.007065261598368621,-0.009964646266525818,-0.013346178917693626,-0.01640193633928978,-0.01821324066569597,-0.018278393299443186,-0.01650618618167526,-0.013300572878126278,-0.009345676144534638,-0.005214864083602692,-0.001396795519409401,0.0017501800117392331,0.004271670559549819,0.006395716372555401,0.008115800579269849,0.00926904159532512,0.009979227816729516,0.010650324870052696,0.011588553350129401,0.012878616505165237,0.014057916966607983,0.014494454889772726,0.013940641421807289,0.012546328424385971,0.010572138493333218,0.008356876580914418,0.005913572409823311,0.003222678179796471,0.0003298060412246008,-0.0029800563810597268,-0.006850249062390053,-0.010831205241369171,-0.01432350058613007,-0.016662554914835696,-0.017581240821011052,-0.017073029372334438,-0.015352945165619991,-0.012798878300935795,-0.00997768000949808,-0.0074627023128951,-0.005579732501534086,-0.004928186062669299,-0.005931567176493219,-0.008433511130123935,-0.011756403998752135,-0.015092326590074074,-0.017770185871045095,-0.01940557084983246,-0.019776952118971458,-0.018982066669639974,-0.0170860631153067,-0.013984695633864674,-0.009208854005554074,-0.0020287965701778756,0.007972461568803152,0.019843664620785684,0.031134994759415297,0.03922722444570354,0.04256317115869662,0.04099944362430703,0.035747958823636385,0.029121711640002802,0.023179591232386144,0.019113931805201417,0.017335203795668837,0.017543699460161273,0.018755580258756153,0.019674262144652985,0.019583046045239767,0.018247372830358065,0.01603862376914687,0.013556226409696025,0.011288841586223746,0.009536177042357164,0.008011554757162894,0.006291466530169921,0.004180454460136601,0.001548200414677223,-0.001729084806272221,-0.0057882281660265236,-0.010355574129844688,-0.014636246093007985,-0.01808944422913062,-0.02044153230080851,-0.021653409079124865,-0.021731595455844348,-0.0207803372530739,-0.01924268524518589,-0.01765942719773053,-0.016252080457336955,-0.01485125460870803,-0.01331360260082002,-0.011828073503985483,-0.010616196725669127,-0.00986040044441886,-0.009378252461408247,-0.009104604163168592,-0.008902625370162287,-0.00872670602254346,-0.00871367629984972,-0.008993841469575506,-0.009632358185746554,-0.010609679854182997,-0.0120886920795314,-0.014147581238511241,-0.016864537728120525,-0.02029167641885568,-0.024122776715881974,-0.02730233057404348,-0.028546783669233442,-0.026592144352639083,-0.0203828925182689,-0.00931309982766103,0.006728004453334665,0.02599428069289478,0.0442115657587851,0.056486762579286955,0.06005073949011677,0.055431238453016944,0.045618904458621636,0.03456213747042898,0.02522545066867225,0.019244241092974377,0.016826996367270745,0.016820483516063137,0.017400360449694577,0.016872606427116615,0.014611734454851947,0.011191108615324397,0.007809575964156587,0.005450971020992567,0.004545318857789473,0.004981856780954216,0.005796292844744092,0.005770229379078092,0.0042456070938838185,0.0013918288673218215,-0.001891971617002344,-0.004504677862198296,-0.0058794442654397415,-0.006048846741572438,-0.0056318554125875655,-0.005273503866142302,-0.005468969807940999,-0.006263855257272483,-0.007423613144813885,-0.008843985587622678,-0.010531493477463518,-0.012205971644610618,-0.0137371067810125,-0.014773068231988552,-0.014922924113941378,-0.014141068387303633,-0.012603416379415621,-0.010583616388516995,-0.008387901070278064,-0.006276889000244745,-0.004152843187239162,-0.0019375800687368053,0.0005448168886861887,0.00326828622950308,0.006076458014469877,0.00872174097856729,0.011067316199037568,0.012885133376651366,0.014083980432273985,0.014735530891417294,0.014891899624577732,0.014474908295592856,0.013777751796882199,0.013093629041143803,0.01255284127559358,0.012051150718681621,0.011419150873996704,0.010357125957354649,0.008526279057047115,0.005620373497125264,0.0013397051522126386,-0.004055110216339813,-0.009554171809027075,-0.013945602445504936,-0.016362847171208564,-0.01633026683405643,-0.014030305693710545,-0.00991252335547234,-0.00476529643774421,0.0006295181267525372,0.0056659835569711344,0.009842401657470428,0.012806946999931889,0.014585675009464468,0.01549132315238904,0.015686789094187737,0.015439200241335563,0.015054785229224297,0.014559611543798468,0.013921090807348895,0.013126205358017411,0.012103273629735099,0.010858820534545132,0.009575270230716906,0.008311266521068547,0.0070277162172403184,0.005698559873844744,0.004304246876423427,0.0027275016801756756,0.0008510443179944172,-0.001214362114499408,-0.0033840159772115996,-0.005429876619581259,-0.007267240391374926,-0.008830955864928939,-0.010147082485630777,-0.011495785423206221,-0.01310510693632758,-0.014955500430814986,-0.016740741291555176,-0.01824581698256958,-0.019496786949245674,-0.020630481371121074,-0.021725082604636736,-0.0226502813620197,-0.023021662631158707,-0.02259164157948009,-0.02098232006635873,-0.017900499179096578,-0.013033437431094232,-0.00645932119907118,0.0014830453687628916,0.010024837876575387,0.017028979180555574,0.020410511831723384,0.01977850796675994,0.01639046246438453,0.012357379354073406,0.009464507537123816,0.008278690204194939,0.008565368225128331,0.009529660170871035,0.010552591899153347,0.011256261249071614,0.011399604279816834,0.010748053820673523,0.009379804288918207,0.007548957388610672,0.005522640526225915,0.0036005759183937525,0.00180881939225099,0.00012131077876001652,-0.0012469396374565737,-0.0020287965701778756,-0.0021591062599786853,-0.002061374093135041,-0.0023936633799978607,-0.003846614953875229,-0.0065635670211781376,-0.009834336978752859,-0.01266856901316284,-0.01431698371464394,-0.014545025973316245,-0.013463458482772845,-0.01150881514589996,-0.009189307411374203,-0.007156477697781839,-0.005898990859619611,-0.0055666987585618255,-0.006231278940398874,-0.007410579401841622,-0.008394417941764196,-0.008759282339417068,-0.008329261287738456,-0.007221630331529056,-0.0057165586607931754,-0.003879192476832395,-0.001787724186783978,0.00046663091399456183,0.0026558313708866226,0.004252123965369949,0.004864577215874997,0.004428043312988777,0.0034116268480811856,0.002466882702601908,0.0021671705366684015,0.0026623466342613447,0.003854679632592798,0.005450971020992567,0.00698862302888058,0.007972461568803152,0.00800503788567676,0.007190605842165408,0.005646436962791265,0.0035614827300340128,0.0012940967004781774,-0.0006214534480349686,-0.0015987751164714113,-0.0010188977808121195,0.0012810657717008814,0.004955793315288215,0.009627393141770383,0.015315407825048734,0.0220002907709434,0.029206410867929893,0.03608676377590178,0.04135125819787355,0.04354697351611248,0.04161840570574117,0.03526581084062577,0.02533621336226534,0.013341213873717455,0.0007858892720800861,-0.01092893821226852,-0.020630481371121074,-0.027654165249002608,-0.03189573598324912,-0.0338699299345804,-0.03412403163864018,-0.03312064650453774,-0.031042214771656553,-0.027888724379161046,-0.02352986603927827,-0.017718062959991617,-0.009971163138011947,-4.809165716989529e-05,0.011842655054189185,0.02471724324027416,0.03674482708625269,0.04594470783014295,0.050740096052633424,0.05087039327957081,0.04726082641028775,0.041605380003325955,0.03585872151722947,0.031226210858828516,0.027707852048401618,0.024332828228162896,0.020202016167230948,0.014957056278603472,0.008734774721539551,0.002102015892781923,-0.004113749998879423,-0.009267489767815159,-0.01309859006484145,-0.01549628819636521,-0.016199957546283474,-0.01492944098542751,-0.011788980315625744,-0.007527858966920841,-0.0035078100016098348,-0.0011492074706129294,-0.0010058668520348238,-0.002999602975239596,-0.006296435594424615,-0.010049349514731428,-0.013300572878126278,-0.015672203523705516,-0.017379258007726224,-0.018929939738307974,-0.020623964499634946,-0.022298442666782044,-0.023373497306117836,-0.023451683682837315,-0.02268937455037944,-0.02136021418670534,-0.01956846047475755,-0.017235918997259528,-0.014121521793123763,-0.010453307100744038,-0.006863282805362315,-0.00369675866989455,-0.0015010429496277668,-0.0009276808773431971,-0.00223729183264246,-0.004993338696416517,-0.008322748436530848,-0.011437145640666611,-0.01367846699847289,-0.01480564454886216,-0.015085809718587945,-0.014962017302301117,-0.014883830925581638,-0.014935953836635117,-0.01487731807437403,-0.014251831080896721,-0.012857518083475405,-0.010603162982696866,-0.0074887657785611015,-0.003931315789913726,-0.0004520513739301238,0.0023430886782036726,0.00423909424267621,0.005392331238452958,0.006154644391189357,0.007229695010246625,0.009034486485445204,0.011621129667003008,0.014527031206646336,0.016853059832936747,0.018071453482739235,0.018227826236178194,0.01781083490719332,0.017504606271801535,0.017934627323480147,0.019270300538361852,0.02124449448969313,0.023179591232386144,0.02411130686125524,0.023264290460313235,0.020338838306211516,0.015921344204067652,0.010858820534545132,0.005880992072671179,0.001137725153122776,-0.0034882638094578177,-0.00814031221742589,-0.012447043625976663,-0.015470224730699209,-0.01646057612182939,-0.01539855522546586,-0.012772818855548318,-0.009554171809027075,-0.006381134822351702,-0.0035469027879417225,-0.0012534549008312954,0.0006230024613499631,0.0024017276566875773,0.004011050777920347,0.00530111513903974,0.005880992072671179,0.005281568544859869,0.003216162916421749,-0.00017188568156813105,-0.004446038079658686,-0.00871367629984972,-0.011613064988285439,-0.01203656916847792,-0.009736608028132034,-0.005293050460322171,0.0004145071988853788,0.006656334948101317,0.01319787486325076,0.01947879620285429,0.02469770066637281,0.028020593535001012,0.029017461797617324,0.02761663192870988,0.02398099355320376,0.018423288157698368,0.011256261249071614,0.0029750897289721476,-0.005416842876608998,-0.012864034954961537,-0.01875402441096767,-0.022487391737094613,-0.023575476099124144,-0.02223980288424244,-0.01929480815623937,-0.015711296712065254,-0.01209520895101753,-0.008316231565044716,-0.0034035621693636166,0.003059791369066348,0.010402736017200521,0.017647949302546755,0.024196006089182327,0.030164185942186464,0.03587826409113082,0.04157932859849552,0.048049203028690146,0.05684509000406108,0.06979139191844316,0.08729853900627137,0.10614138343065241,0.11953076024107798,0.12050808995007148,0.10618701359189091,0.0794277985246626,0.046961114646382085,0.016084233828992742,-0.007834087602312627,-0.02310636185908579,-0.03118555378212325,-0.03462572621583066,-0.03592230222207411,-0.03676280175152999,-0.03768148363742682,-0.038574102057657655,-0.039036699426209874,-0.038671835028557,-0.03774011939968791,-0.036775831474223725,-0.03618943766910616,-0.036150344480746416,-0.036456569095859676,-0.036932204227662684,-0.03751208116129412,-0.038137568154771435,-0.03858061892914378,-0.038437275898398564,-0.03729055175382942,-0.03518605655528224,-0.0323974305604396,-0.029758664467828322,-0.027979936458295742,-0.027048224849705173,-0.02654653429279321,-0.02610347949814234,-0.025491026247637286,-0.024650530738459936,-0.02341910736596371,-0.021712052881943,-0.019509820692217936,-0.0170860631153067,-0.014792614826168423,-0.012740238518396188,-0.011124404154067218,-0.009827824127545251,-0.008739739765515722,-0.007840600453520235,-0.007130414232115838,-0.00637461795086557,-0.0054754826591486075,-0.004569834516224036,-0.0038857077402071165,-0.0036120574318282014,-0.0036837277411172543,-0.003905253932359134,-0.004022533899466205,-0.0039573776474683174,-0.0037488827870315847,-0.003357954119657008,-0.002686859880528794,-0.001390279854006827,0.0007272502935961815,0.0035875449896164567,0.00699513990036671,0.010721994375286044,0.014403238790359508,0.017485059677621664,0.019433190163286942,0.019850181492271815,0.01821479249320593,0.014175196531687204,0.00803761420255037,0.0009031680331036002,-0.005964143493366828,-0.011456692234846482,-0.015203089283667162,-0.017431384939058225,-0.01810899082331049,-0.016949236956047612,-0.013698017612931282,-0.008570333269104502,-0.0022047147117131467,0.004695174739742299,0.01160809994430927,0.017973720511839885,0.023479302996291803,0.02811180963441423,0.03197549026859266,0.03520065820687855,0.03763744952676205,0.039142525217776454,0.03985271143918085,0.0401459103518789,0.04021106700590464,0.03980058852812737,0.03835415261965258,0.03568931904109677,0.03216443933890522,0.027942407158281533,0.023466269253319537,0.019192118181920896,0.015276314636688996,0.011673252578056487,0.008076707390910109,0.004441073035682515,0.0007924049374826601,-0.002817169570329604,-0.006140062840985657,-0.008583367012076763,-0.009410832798560378,-0.008348807881918326,-0.005573215630047955,-0.0017421157350495167,0.0017566956771418072,0.003437688705635777,0.0023496039415783943,-0.0010319287095894153,-0.005429876619581259,-0.009547654937540943,-0.012420984180589185,-0.013795746563552107,-0.013776199969372238,-0.012622962973595492,-0.010635739299570473,-0.008153345960398151,-0.005690495195127174,-0.0038857077402071165,-0.0030777885479033712,-0.0030712728825007967,-0.0033970469059888954,-0.0037293361928517153,-0.0037749446445861767,-0.0033840159772115996,-0.0026412514287943323,-0.0016052907818739851,-0.0004129581855703842,0.0007663430799280687,0.0019065515590946343,0.0028643270353790598,0.0035354208724794212,0.0040827214892372515,0.00477987798794791,0.005763716527870484,0.0069169535236472315,0.007698813270563499,0.007750936181616977,0.007255758475912625,0.006558601977201968,0.00590705553833718,0.005359754921579349,0.004747301671074301,0.00390680334770198,0.0029750897289721476,0.0021736862020709756,0.0017241181541846414,0.001548200414677223,0.0014113754615016913,0.0012615191775210116,0.0011246942243454802,0.0008966527697288785,0.00023858937897238965,-0.0009211656139684754,-0.0024913955468415052,-0.004426491485478816,-0.006530990704304528,-0.0085963967347705,-0.010414213912384299,-0.01150881514589996,-0.01151533201738609,-0.010316484961763472,-0.008466087446997544,-0.006635240546690009,-0.005169258044035344,-0.003944346718691021,-0.0027194374034859594,-0.001318609544717774,0.0004210228642879529,0.0022649027035120456,0.003965442326185885,0.005170805851266782,0.005946148726696919,0.006506479066148489,0.007177572099193146,0.008148380916421982,0.009431927199971686,0.010910943445598613,0.012344345611101143,0.013210908606223022,0.01316529854637715,0.011920841430908663,0.009575270230716906,0.006480415600482488,0.0029555435368201297,-0.0008885880910113099,-0.004980308973722778,-0.009013388063755375,-0.012381886971950922,-0.014636246093007985,-0.015769936494604862,-0.015893728910891688,-0.015157483244099814,-0.013958632168198674,-0.012707662201522578,-0.01145017536336035,-0.010101472425784906,-0.008550786674924631,-0.006941465161803271,-0.005364719965555519,-0.003625088360605497,-0.0014619501632958797,0.0011898492702598113,0.004043628300877513,0.006741034176028403,0.008975846702905596,0.010298486174815042,0.010233333541067823,0.008995393297085466,0.007431677823531453,0.006174190985369226,0.005092619474547303,0.0038221017076077797,0.0022714183689146196,0.0008901371043263044,0.0001278262431486644,0.00014085721212874538,0.0005839096750180759,0.0006360333901272589,-0.00028916428178050416,-0.002276384618974347,-0.004739236992356733,-0.006798126151336575,-0.007794994413952887,-0.007788477542466756,-0.007091321043756099,-0.006107486524112048,-0.004797872754617819,-0.0028106543069548818,0.00023207387438095654,0.004408496718808907,0.00929510506099112,0.014090497303760115,0.017628402708366884,0.019211664776100767,0.018703457347702675,0.016462131969617877,0.013119688486531281,0.009686032924309992,0.007158025505013275,0.006043881697596268,0.0061025174598573545,0.0066889112649749245,0.006943016989313232,0.006545572254508228,0.005626890368611396,0.00423909424267621,0.0023886967279102816,-0.00010673091707329662,-0.0032211291664814767,-0.006485384664737181,-0.009469472581099989,-0.011678217622032657,-0.012590382636443359,-0.01197141251445218,-0.009971163138011947,-0.006921918567623401,-0.002784592047372438,0.002642800442109327,0.009497083853997427,0.01771310193629397,0.026489454378320607,0.03367603190140576,0.036875136374025654,0.03474456966925542,0.027779521553634966,0.018038877165865625,0.008070194539702502,-0.00021749405289702185,-0.0059055037108272194,-0.008980811746881767,-0.010003739454885556,-0.009743120879339642,-0.008883078775982416,-0.008016519801139063,-0.007749384354107017,-0.008557303546410763,-0.010564069794337124,-0.013469971333980453,-0.016558309092728738,-0.018936456609794105,-0.0200375747147959,-0.019978934932256286,-0.01914495227428654,-0.017815795930890964,-0.016089194852690388,-0.014128038664609894,-0.01213430213937727,-0.01030345121879121,-0.008628977071922634,-0.006947982033289403,-0.004843482814463689,-0.002067889758537615,0.0011703026760799414,0.004252123965369949,0.00645435615509501,0.007314398258452235,0.006962563583493102,0.005965695320876789,0.004792907710641649,0.0036005759183937525,0.002317026820649081,0.0007793740087053643,-0.0009472274715230668,-0.002784592047372438,-0.004648016872664992,-0.006524473832818398,-0.008348807881918326,-0.010068896108911296,-0.011156980470940827,-0.010186175673990517,-0.005071525073135995,0.005379301515759219,0.020182469573051077,0.036028123993362166,0.04799706001624404,0.05231684928943822,0.04814042314838188,0.037761241943048876,0.025075594786719422,0.01381033213403433,0.006278436807476182,0.0024473361084220388,0.0009552917482127831,0.0001669191098861221,-0.001044959638366711,-0.003234160095258772,-0.0061270331182919175,-0.008987324598089375,-0.01096803140062826,-0.011274256015741523,-0.009827824127545251,-0.006798126151336575,-0.002745499261040551,0.0012224263911891245,0.0038872567535221114,0.004669115294354822,0.003809070778830484,0.001867458772762747,-0.00045856663730484555,-0.00245881802388434,-0.0037163052640744195,-0.004348305108759337,-0.004732720120870601,-0.004921669191183169,-0.00486302940864356,-0.004608923684305252,-0.0043613388517315995,-0.0044786143965322945,-0.005136677706883213,-0.006068393335752309,-0.006934952310595663,-0.007501795501254841,-0.007742871502899409,-0.0077624140768007555,-0.007521342095434711,-0.007013134667036619,-0.006055359592780046,-0.004569834516224036,-0.0026738289517514984,-0.0008690418988592923,0.00031677511244730504,0.0007858892720800861,0.0006230024613499631,0.0001278262431486644,-0.00027613335300320845,-0.0001653702573822684,0.0006295181267525372,0.001997768462563557,0.0035745136588113085,0.004812454304821519,0.00536627179306548,0.004962310186774346,0.003685276754432249,0.00203034558349287,0.0005643630808382062,-0.0005758453983283596,-0.001168753662764947,-0.0010645062325465807,-0.00014582378381075431,0.0013787979385445257,0.0031379769417301225,0.00479942458212778,0.005972208172084397,0.006610724888255446,0.006871347484079884,0.006936500117827101,0.00698862302888058,0.006923470395133362,0.006832254295720144,0.006897406929467361,0.0074772838630988,0.008578401968100594,0.010076960787628864,0.011927358302394794,0.014044887243914245,0.015914831352860044,0.016950792803836098,0.016540318346337353,0.014018827798526767,0.009418897477277947,0.0033790497271518724,-0.0031233969996378322,-0.009130667628834594,-0.013776199969372238,-0.01699484701589348,-0.019229655522492152,-0.020806396698461384,-0.021783718366897825,-0.021790235238383953,-0.020565328737373857,-0.01805686791225701,-0.01442123355702942,-0.009958129395039686,-0.005332143648681911,-0.001279516758385887,0.001593808866411684,0.0030728222978436436,0.0034963280861475344,0.003626637775948344,0.0043107637479095585,0.005998271637750398,0.008500215591381114,0.011412634002510571,0.014396721918873378,0.017341720667154968,0.02012382979051147,0.02283426940863462,0.025512132709884165,0.028268182387853186,0.031245757453008387,0.034255912855315714,0.03636692894562756,0.036217073063674735,0.0326400704504297,0.025127721718051423,0.013725628885828721,-0.0005562988041484898,-0.01545067813651934,-0.028247071905327787,-0.03707554323812938,-0.04098480981048253,-0.04005311428300606,-0.035212120020948236,-0.02769325843736235,-0.01855855846916897,-0.008576850140590632,0.0017632109405165289,0.012409502265126883,0.022775629626095015,0.03138910048375361,0.03646466191652691,0.036601488075786,0.03148031658316682,0.022143629781410098,0.010617744532900566,-0.0008951037564138837,-0.010720442547776083,-0.0178223128023771,-0.021601286168071387,-0.021985701180182653,-0.019496786949245674,-0.015059750273200466,-0.00997768000949808,-0.005618825689893826,-0.0029735411176850047,-0.0026412514287943323,-0.004426491485478816,-0.007384519956454145,-0.010446790229257907,-0.012740238518396188,-0.013965149039684804,-0.014375623497183547,-0.014427750428515549,-0.014434263279723157,-0.014538513122108637,-0.014623212350035724,-0.014792614826168423,-0.015046716530228205,-0.015144449501127555,-0.014655788666909331,-0.013691500741445152,-0.012316734338203707,-0.01045982397223017,-0.008023036672625192,-0.004986821824930385,-0.0014033107827841227,0.002486428894753926,0.006291466530169921,0.009640422864464123,0.01212282022391497,0.013608349320749502,0.01440975566184564,0.015100395289070168,0.015843161847626696,0.01664456416844431,0.017374296984028578,0.017895534135120406,0.018162669582152454,0.017823864629887057,0.01659244125739083,0.014416268513053249,0.011666739726848879,0.008936753514545858,0.006545572254508228,0.004460619629862386,0.0025320373464883875,0.0005839096750180759,-0.0014684654266706014,-0.003540387524567001,-0.005455936064968737,-0.006791609279850444,-0.007247693797195056,-0.006641753397897617,-0.005084554795829734,-0.0029344479293252654,-0.0006735775651720038,0.0012093954624118287,0.002479913631379204,0.0033790497271518724,0.004434556164196385,0.005796292844744092,0.007386067763685583,0.008799927355286768,0.009588299953410644,0.009588299953410644,0.009132215436066031,0.008604461413488071,0.00822005042165533,0.007978978440289284,0.007698813270563499,0.007105902593959798,0.0061937335592705724,0.0049232169984146056,0.003457235299815647,0.0019651909396063913,0.0007077036994163117,-0.00015233928840218742,-0.000660546636394708,-0.0008234334471248311,-0.000706154686101317,-0.0006084225192576727,-0.0007517631378357783,-0.0011492074706129294,-0.001670445425760464,-0.0019375800687368053,-0.0016313526394285765,-0.0006866084939492997,0.0007011884360415899,0.002330057749426377,0.00390680334770198,0.005294602287832132,0.00642829268942901,0.0070993857224736666,0.006943016989313232,0.006004788509236529,0.004884123810054867,0.004069691766543513,0.0036136068471710483,0.003437688705635777,0.003229193845199045,0.0027861410606874323,0.0020564074410474617,0.0008640752467717129,-0.0008820728276365881,-0.0031624897859697195,-0.00587292739395361,-0.008824438993442808,-0.011534878611565961,-0.013391788977539497,-0.01422576761523072,-0.01422576761523072,-0.01363937381011315,-0.012551293468362144,-0.011020154311681738,-0.009319616699147161,-0.007638621660513929,-0.006153092563679395,-0.004999855567902647,-0.0043157287918857284,-0.004146326315753032,-0.004354821980245468,-0.0047001438039969935,-0.00474574984356434,-0.004094203404699553,-0.0024653336892869137,0.00013434170753731227,0.003346472204194707,0.006565118848688098,0.009262524723838988,0.01089790970262635,0.011340964497277223,0.010813210474699263,0.009783765895209342,0.008780380761106899,0.00812231745075598,0.007672749804897499,0.007131966059625798,0.006239343619116443,0.005222928762320261,0.004323793470603297,0.003646183968100361,0.0033660187983745767,0.00348981242074496,0.003893772418924685,0.004467132481069993,0.005437941298298828,0.006890894078259754,0.008500215591381114,0.009751185558057209,0.010252880135247694,0.009829371934776688,0.008604461413488071,0.006832254295720144,0.004962310186774346,0.0035289056091046996,0.0028447804411991895,0.0029359973446681123,0.003554967466659291,0.004271670559549819,0.004695174739742299,0.004786390839155517,0.004467132481069993,0.0033595031329720026,0.0013918288673218215,-0.0011817845915422427,-0.0038270683596953597,-0.006153092563679395,-0.008023036672625192,-0.00941734967004651,-0.010505430011797517,-0.01141759904648674,-0.012232035110276618,-0.012785848578242057,-0.013013890836914364,-0.012824941766601795,-0.01205611576265779,-0.010524976605977386,-0.008023036672625192,-0.004354821980245468,0.0005904253404206499,0.00638919950106927,0.012324803037199798,0.01723747082476949,0.01999352050273851,0.020052160285278123,0.0176935553421141,0.01396018801598716,0.010239846392275431,0.007438190674739061,0.005757199656384352,0.004610475511815213,0.002922966013862964,-0.0004194738509729583,-0.005234410677782562,-0.010153595336838385,-0.01363937381011315,-0.0148708012028879,-0.013906509257145197,-0.01150881514589996,-0.008655036517310111,-0.00645280432758505,-0.005664431729461174,-0.00647235092176492,-0.008114252772038411,-0.009677968245592425,-0.010564069794337124,-0.010290421496097473,-0.008426994258637806,-0.004608923684305252,0.0015416847492746488,0.010109537104502473,0.020449605020083125,0.030913469372229125,0.0390382793956695,0.04267392983201118,0.0412470123757666,0.03577401826902386,0.028242118922187184,0.020801439695042254,0.014944022535631209,0.011269294992043875,0.009060545930832683,0.006780127364388142,0.002883873227531077,-0.0032667372161880857,-0.011254713441840177,-0.01972482920791798,-0.02694397500731969,-0.0314331386146969,-0.032566833036572304,-0.03060567684849181,-0.02616212330096047,-0.01974437580209785,-0.011697764216212528,-0.0021069821428416503,0.008956300108725727,0.02079492684383465,0.031395613334961214,0.038412788381913664,0.04034136423284203,0.03704453885015835,0.029708105445120373,0.020482181336956732,0.011438697468176572,0.003776493657901171,-0.0020874359506896324,-0.006335528782784354,-0.009443409115433987,-0.011821556632499354,-0.013509064522340193,-0.014577606310468375,-0.014962017302301117,-0.014675335261089202,-0.014036818544918152,-0.013548157710699931,-0.013574221176365933,-0.014056365139098023,-0.014818678291834421,-0.015867669465504212,-0.017190308937413655,-0.018584621934834972,-0.01981604932760972,-0.020910646540846862,-0.022200709695882698,-0.02405762006185623,-0.026338038628300774,-0.028481631035486225,-0.030156105182354804,-0.031061757345557897,-0.030866295424037724,-0.029217880722556624,-0.02596665735916177,-0.021125659076825426,-0.014681852132575333,-0.00696101175598314,0.0011246942243454802,0.008467639274507504,0.014227323463019205,0.018117063542585105,0.020306261989337902,0.021329193717620216,0.02184391801750444,0.022580167704574834,0.02414388317812885,0.02694553889566522,0.030626787331017206,0.03469896362968807,0.03869947042312558,0.04216572642389162,0.04477191217935076,0.0458469748592436,0.04481750213780402,0.041514159883634216,0.03617797987531499,0.02919337712495763,0.021218431024027134,0.012878616505165237,0.004714721333922169,-0.0028692932854387865,-0.009410832798560378,-0.014499419933748897,-0.017939592367456316,-0.019672706296864503,-0.01990074855553681,-0.019236172393978283,-0.018161117754642492,-0.01697530042171361,-0.015691750117885386,-0.014056365139098023,-0.012062628613865398,-0.00981479038457299,-0.0074887657785611015,-0.0053125970545020405,-0.0033318922621024165,-0.0016508988315805941,-0.0004520513739301238,-1.5514250800806932e-05,-0.00032174164392652875,-0.0011426918052103554,-0.002133044402424094,-0.0029279322639226913,-0.00325370628741079,-0.003116881334235258,-0.0028106543069548818,-0.0025565501907279836,-0.002335023999486104,-0.0021460753312013896,-0.002172137188755981,-0.0024327561663297485,-0.0027520145244152726,-0.0028823242142160823,-0.002426240902955027,-0.0014033107827841227,-0.00030219525076058515,0.00044056905643997035,0.0009227146272834699,0.0014504682478335784,0.0022649027035120456,0.0034832971573702386,0.005020949969313955,0.006701945007947186,0.008063677668216371,0.00866310119602768,0.008363389432122026,0.007327427981145973,0.006017818231930267,0.004981856780954216,0.004734267928102039,0.005288085416346001,0.006512995937634619,0.008115800579269849,0.009607846547590513,0.01050046898809987,0.010611231681692958,0.010070447936421256,0.009216918684271642,0.008337329986734547,0.0075945634281780194,0.007105902593959798,0.006773614513180535,0.006180703836576834,0.004884123810054867,0.0028773579641563555,0.0006295181267525372,-0.0014749810920731755,-0.003214613501078902,-0.004348305108759337,-0.0045633176447379045,-0.003638119289382793,-0.0016118064472765592,0.0010009001999472444,0.0035745136588113085,0.005646436962791265,0.0070081696230604494,0.007581533705484281,0.007360008318298105,0.0066889112649749245,0.005900538666851049,0.005131712662907044,0.004434556164196385,0.0038872567535221114,0.0036917924198348225,0.004115297806110861,0.004766848265254172,0.004981856780954216,0.004356369787476906,0.002766594466507563,0.0006295181267525372,-0.0014163417115614185,-0.0028236852357321775,-0.003527356595789705,-0.0038922234056096906,-0.004107233127393292,-0.0041332965930592925,-0.0038400992884726555,-0.0032406753586334937,-0.0026021586424624455,-0.0023610858570406955,-0.002843231427884195,-0.004048593344853683,-0.005690495195127174,-0.007182537143169316,-0.008042583266805063,-0.008068642712192542,-0.007566952155280581,-0.006889342250749792,-0.006159609435165527,-0.005397300302707651,-0.004582864238917774,-0.0036316040260080708,-0.0025239726677708184,-0.001383764590632105,-0.0003999274176042294,0.00022555840999230866,0.0005904253404206499,0.0009618074136153572,0.0016133550585637015,0.002720986416800954,0.004284700282243557,0.005854932627283702,0.00695604671200697,0.0075945634281780194,0.007783512498490586,0.007483800734584932,0.006949529840520839,0.006636788353921446,0.0065976951655617065,0.00649344934345475,0.005692043002358612,0.003665730562280231,0.0008119515316625299,-0.0019180334745569354,-0.003709789598671846,-0.004348305108759337,-0.003989955170425483,-0.0031624897859697195,-0.002400179045400435,-0.002067889758537615,-0.002335023999486104,-0.0029865720464623004,-0.003761913715808881,-0.004296182197705859,-0.004556800773251773,-0.00484999968594982,-0.00537123683704165,-0.006211732346219005,-0.007299816708248535,-0.008622460200436503,-0.00977569719621325,-0.01034906127863708,-0.010114502148478643,-0.009072027846294984,-0.007384519956454145,-0.005644885135281305,-0.004550287922044166,-0.003866161548055099,-0.002647767094196907,-0.00019143215513964514,0.003326925610014837,0.007249241604426494,0.010506981839307478,0.01227268012614632,0.012135849946608707,0.01047440552243387,0.008167927510601851,0.0061481275197032255,0.00530111513903974,0.005933114983724657,0.007803059092670456,0.010448342056767868,0.012924226565011106,0.014298992968252553,0.01428595922528029,0.013021959535910455,0.010324549640481042,0.00586796234997744,-0.00027613335300320845,-0.007052227855396358,-0.013007373965428233,-0.016877567450814264,-0.01829142704241545,-0.017340164819366486,-0.014277894546562723,-0.009111121034654723,-0.0017486309984242384,0.00813534717344972,0.020267168800978168,0.03277689660968879,0.04259573541473466,0.046772161555791,0.0439509311021251,0.03468593390699433,0.02123146074672087,0.006721487581848534,-0.00595763064215922,-0.015177025818001164,-0.021086565888465688,-0.024722200243693284,-0.02711989435493852,-0.028729219888338403,-0.029393796049896927,-0.028644516640132792,-0.026018780270215248,-0.02111262935413169,-0.013658924424571544,-0.004126779721573162,0.006363140055681793,0.01656637779172483,0.025342730233751467,0.031278333769882,0.033317684375239014,0.031434706523320956,0.026671890597425568,0.020645070961881822,0.01487886990188399,0.010259392986455302,0.006858313741107622,0.004480166224042255,0.0027731101319101365,0.0014960766995680398,0.00023207387438095654,-0.0016378679028032984,-0.004576347367431644,-0.008420481407430198,-0.012349310655077314,-0.015320368848746381,-0.01640193633928978,-0.015463707859213078,-0.013007373965428233,-0.009840853850238992,-0.006693876308951094,-0.003879192476832395,-0.0010970833534758942,0.0021932327962508455,0.00586796234997744,0.008982359554113204,0.010467888650947738,0.009673003201616254,0.0066628518195874465,0.0022062637250281412,-0.0026998908093060895,-0.007130414232115838,-0.010479370566410039,-0.01264902241898297,-0.013886962662965326,-0.014616695478549591,-0.015072779995894207,-0.015111873184253945,-0.014264860803590459,-0.011691247344726395,-0.006889342250749792,-8.718448370456776e-05,0.0074121312293515835,0.013491073775948806,0.016312276087665046,0.015536933212234911,0.01203160412450175,0.007268788198606364,0.002838264775796616,-0.00019794761952829303,-0.0016313526394285765,-0.0019245491399595095,-0.0014814967574757496,-0.0007322165436559084,0.00025162030774968536,0.0016133550585637015,0.0032487400373510627,0.004871094087361128,0.006343593461501923,0.007842152281030195,0.009568753359230775,0.011262778120557745,0.012565875018565842,0.013080595298171542,0.012722243751726278,0.011490820379230052,0.009633905992977991,0.007307881386966103,0.004603958640329082,0.0017306338195872155,-0.0009863202578549541,-0.0032732528815906593,-0.005058495350442257,-0.006361588228171832,-0.007391032807661752,-0.008342295030710718,-0.00930007010496729,-0.010257845179223865,-0.011117887282581089,-0.011573971799925701,-0.011482755700512482,-0.010857268707035172,-0.009997222583399426,-0.009045964380628983,-0.0082510789312975,-0.007638621660513929,-0.007117384509422099,-0.0065570541699705295,-0.0057882281660265236,-0.004843482814463689,-0.004002986501230631,-0.003625088360605497,-0.0039378314553162996,-0.0045633176447379045,-0.005025915013290126,-0.005162741172549214,-0.004980308973722778,-0.004446038079658686,-0.003670696812339958,-0.002647767094196907,-0.0013316404734950698,6.267147865382996e-05,0.001300611963852899,0.0025124911543363696,0.0037243699427919885,0.004910187275720868,0.006154644391189357,0.007607593150871758,0.009438444071457818,0.011803561865829445,0.014696433682779033,0.01784992809555306,0.02067764727875543,0.022782146497581143,0.02398751042468989,0.02422206955484833,0.02340763349105845,0.02165496894719187,0.01930939372672159,0.016787903178911007,0.014422785384539378,0.012168430283760839,0.009907558311496168,0.00756198711130441,0.005281568544859869,0.0030402447748864784,0.001092117103416167,-0.00030219525076058515,-0.0012273930432767039,-0.0018463631652678827,-0.0022307765692677383,-0.0023936633799978607,-0.0023480549282633998,-0.0022503227614197553,-0.0022503227614197553,-0.0021460753312013896,-0.0018137860443385694,-0.0013511870676749397,-0.0009276808773431971,-0.0008820728276365881,-0.0014619501632958797,-0.0024848802834667835,-0.003357954119657008,-0.003527356595789705,-0.0027194374034859594,-0.0011492074706129294,0.0004210228642879529,0.0011833336048572374,0.0007011884360415899,-0.00099935118663225,-0.003364469785059582,-0.005710041789307045,-0.007475736055867362,-0.008316231565044716,-0.008153345960398151,-0.007391032807661752,-0.006641753397897617,-0.0064462914763774425,-0.006791609279850444,-0.007228147203015187,-0.007202083737349186,-0.006596147358330268,-0.005625338541101434,-0.004947728636570646,-0.004973792102236647,-0.0057426181061806525,-0.007143443954809577,-0.009449925986920118,-0.013046467153787973,-0.0178223128023771,-0.02295650999741149,-0.027315360296737215,-0.02968699094231645,-0.029113630880171146,-0.025080551790138544,-0.01762032998909227,-0.006941465161803271,0.006512995937634619,0.020801439695042254,0.033004934848082576,0.040569434633464,0.04262178681956509,0.040308799976803984,0.03568931904109677,0.030757096618790166,0.026991148955511093,0.025003925281486074,0.024580421101293597,0.024893162587892988,0.025238484411644512,0.025440463204650817,0.02599428069289478,0.0275645090176564,0.03056163067699147,0.034894429571486765,0.03985923233094551,0.04416597580033185,0.046459424089470125,0.04576226759075947,0.041866014659985955
