-0.0007845758478763761,-0.00024852675500450585,-0.0010823807208200417,-0.003301027736305453,-0.0063907542693005595,-0.009465591959789167,-0.011773578461779007,-0.012510647371360895,-0.011207751913589336,-0.007611754202430549,-0.0022736006719850928,0.0036452737618411974,0.009169556199233424,0.013495176101768907,0.015870169285893816,0.015698931518405488,0.013309049491774081,0.009936402793828306,0.007159374110796863,0.006265956276233144,0.007665640695056654,0.011090400638727115,0.01555002931162885,0.01965229360704743,0.02244422032039315,0.023367415839969864,0.02242188475968146,0.020277684713070867,0.017701671482540746,0.01528944930129376,0.013331385052485772,0.011633891626205093,0.009995967351662074,0.008387820762132046,0.007077473992251405,0.0061617251908798855,0.005640565170209707,0.005134298585949914,0.004292999969185936,0.002960322232497495,0.0011139311933440683,-0.001104716281531732,-0.0034350401817948165,-0.005504783152942033,-0.007224607546030512,-0.008631738683059217,-0.009808067494765826,-0.010716369577932153,-0.011505556327142613,-0.012183060678890734,-0.012815898503119365,-0.013426396172732415,-0.013701865025574002,-0.013299829526667467,-0.012428751846719328,-0.011661900658220556,-0.011684236218932246,-0.012845676188132357,-0.014848416152267615,-0.017506324907439304,-0.02067794696507598,-0.023760226779865893,-0.02596398679040636,-0.02676805778821943,-0.0256364000979362,-0.022524338004229403,-0.018161493698475733,-0.013724200586285689,-0.010120760750825599,-0.007909558615983825,-0.007120376460677254,-0.007075705339253872,-0.006599216440007075,-0.004008314826360846,0.001865888945432453,0.011455211734415462,0.024588420367003743,0.03994027785263899,0.054994358488144296,0.06704802727007793,0.07426233987749163,0.07672669368007887,0.07569926707514889,0.07261698726035898,0.06837327666417672,0.06316167645747493,0.05658012817182763,0.04852453394509434,0.039069195578786964,0.02833331569103528,0.016480671549410755,0.003943079094175252,-0.008326487551300745,-0.018965569290192694,-0.026872288873572688,-0.031666950957149775,-0.033647355360573346,-0.03319320202203824,-0.030833093086515936,-0.02711798004140128,-0.022479666882806025,-0.01694794048355094,-0.010694038611124352,-0.004268894377305546,0.0013298396228653882,0.0055958986426902155,0.00855161181141518,0.010636247300192006,0.012274176168638918,0.013577071626410475,0.014195020608132608,0.013688749429968927,0.01188702951223888,0.009005765149950289,0.005298089635233049,0.0009129129845004121,-0.0036286135099948347,-0.007693649727072116,-0.010738705138643842,-0.012331962885667373,-0.012778669505997287,-0.01256276061708558,-0.012317074043160877,-0.012168171836384238,-0.01117052291646726,-0.008051018698459159,-0.002802204654518131,0.002789084465009166,0.005722465288755164,0.003995194636851881,-0.002080027343785074,-0.010001640822965844,-0.016501233863221023,-0.01932293366767585,-0.01825828265952769,-0.014751631785119552,-0.010790822978272416,-0.007894669773477327,-0.00680768320461748,-0.007366067628505847,-0.009130558549113816,-0.011311982998942594,-0.013270051841654472,-0.014759073909420856,-0.015674827304696267,-0.015831171635774206,-0.015406800576155984,-0.014587836141932528,-0.01367952946486231,-0.012845676188132357,-0.012212842957807618,-0.01173635405856082,-0.011274754001820517,-0.010746151856849035,-0.010098425190113908,-0.00953259864192424,-0.009026327463760558,-0.008438165354859197,-0.007753214284905883,-0.006844907607835667,-0.005765363163277123,-0.0046113699122822035,-0.003487155724471445,-0.0023406068947297745,-0.0013950758144413709,-0.0008515820706210579,-0.0007622402871646859,-0.0011568318242083607,-0.0018492286935860903,-0.0025788508849627846,-0.002943661980651132,-0.002943661980651132,-0.0028841006385500875,-0.0030925646468181593,-0.0034573757425065063,-0.0034722655037937814,-0.002534180222929793,-0.0003602036397821791,0.0029454320118198307,0.00693601850367996,0.01134353393085701,0.015847833725182125,0.020166011503416303,0.02423849811382189,0.027819602388570293,0.030782766869404343,0.0325621512264227,0.03283762007926429,0.0318474178775525,0.03030627797015754,0.02884702899350026,0.027469680135388443,0.025824309142640226,0.02367266697172833,0.02135722915762941,0.019451278154546107,0.018490853637847318,0.018535524759270696,0.01880355148781098,0.018155824821075854,0.01570637823661068,0.011417987331197274,0.0059681518626798664,0.0003917539744890889,-0.004127436591782157,-0.007038480936035686,-0.00840093635773712,-0.00877319417163066,-0.008892314099490416,-0.008855089696272229,-0.008304151990589056,-0.006710894243565526,-0.0038743023808714824,-0.00016663035752119922,0.0034591453142848163,0.0059309274594616795,0.006638214090126684,0.005536334084856449,0.003287908006186877,0.0007342298769780571,-0.0012312833869870688,-0.0018641189142637538,-0.0009558136153647045,0.0008161263204004026,0.002476388911997448,0.0034144746522518244,0.003682499543230552,0.003518706656385861,0.003503816435708197,0.004054755519562536,0.005543780803061642,0.007754982937903415,0.01007786287630364,0.011663673905121977,0.011708345026545356,0.00977261174454517,0.0059309274594616795,0.0007789005390110486,-0.0047900543979757255,-0.010046311944389225,-0.014468711620168882,-0.017923249248852337,-0.02066305812256948,-0.022740246893141115,-0.023842122304507458,-0.02312739354954115,-0.02000044261332786,-0.015176002844737777,-0.010478129722212643,-0.007872334212765638,-0.008073354259170851,-0.010224991836178858,-0.013009467237415494,-0.01544402497937417,-0.016851151522498983,-0.016836262679992487,-0.01525045165117415,-0.01213094743316605,-0.007701096445277309,-0.0026979726503840954,0.001776547161976081,0.0049332785395447025,0.006660549650838374,0.007412507402926759,0.007836878462544983,0.008603729651043755,0.009876842829898428,0.011589225098685601,0.013629189466039048,0.01609352489301072,0.019041795937434377,0.022548451405746406,0.026687940104383176,0.03108056668905373,0.034736128958046286,0.036359168983986695,0.035175393454074895,0.031750633510404434,0.027566469096440397,0.02414170915276994,0.02204962694578792,0.020873298134081307,0.01974908256809938,0.017872909250029073,0.01505120944557425,0.011514771698345338,0.007553962891498204,0.0036006030998082064,0.00013861976357841492,-0.0026979726503840954,-0.004812389958687415,-0.006256740905030418,-0.0071948298610175175,-0.00837860539092932,-0.010567467371155513,-0.013753982865202574,-0.017506324907439304,-0.021057646903270822,-0.023894240144136034,-0.026165002242907687,-0.028391097814159848,-0.03104155985112634,-0.03422062862696821,-0.03757837729459971,-0.04091379499542341,-0.04417475929590684,-0.047123025746426614,-0.04918532108058785,-0.04983306152903465,-0.04832171308836436,-0.043690823678454845,-0.035262944074404674,-0.02320928907418272,-0.009130558549113816,0.004099426640985917,0.013554736065698783,0.01745598490861604,0.01575104935803406,0.010129980715932215,0.0032283466640858323,-0.002281046012019119,-0.004559253910215185,-0.0024597286601510853,0.003965414195496553,0.013748309393898803,0.02516913575769991,0.03624004446222305,0.044928513264416096,0.0497678740328399,0.0502145393080348,0.04636544505597724,0.03940422898946232,0.031207133335118674,0.023397198118886745,0.017329418262551095,0.013882322758168945,0.013591960468916971,0.016570013792257515,0.022332542516834697,0.030082922363040644,0.038525699997405086,0.04544967328508627,0.04820438478302158,0.0453975554454577,0.03766951115996345,0.027425009013965062,0.017485762593629037,0.010040638473085454,0.005446996435913578,0.00278163912497514,0.0010096991892100324,-0.0006580087424210391,-0.0028841006385500875,-0.006308858744658992,-0.010917389624337364,-0.015927960596826163,-0.020015331455834357,-0.021921282458917658,-0.02164581360607607,-0.020060002577257735,-0.018332731465964064,-0.017230856054597718,-0.016806484994979495,-0.016858598240704178,-0.017320198297444477,-0.01793069596705753,-0.018399738148099136,-0.01885389148663424,-0.01950161815336937,-0.02032802930579802,-0.021094875900392898,-0.021370344753234485,-0.02078962476863443,-0.01921870258232259,-0.016523569423932714,-0.01262976729922065,-0.008147803065607225,-0.0038296321782288804,-0.00022619137804897121,0.001955230269498436,0.0021041329356654634,0.00033219299990035585,-0.002623521546995776,-0.005437776470806963,-0.006703452119264222,-0.005311209824742014,-0.000978149176076395,0.00536509631736812,0.012207169486503846,0.018096264857145977,0.02194539586043466,0.023345080279258173,0.02244422032039315,0.01982353137453576,0.016108413735517215,0.01179768726939212,0.007315718441874804,0.0030496640159538664,-0.000873917171942359,-0.004812389958687415,-0.00861684524664883,-0.01182569630140758,-0.013865660668761024,-0.014476158338374076,-0.013783760550215568,-0.012183060678890734,-0.010284556394012623,-0.008847647571970926,-0.00828926314808256,-0.008609403122347526,-0.01014309631153729,-0.012652102859932339,-0.015399353857950788,-0.017201073775680836,-0.017096842690327577,-0.0148781984311845,-0.011148187355755571,-0.006867243168547358,-0.002802204654518131,0.0006746689942674018,0.0035708226584528786,0.005804360813396732,0.00691368294296827,0.006802005139409819,0.005543780803061642,0.0036080479804518435,0.0013745102848983796,-0.0009334780546530144,-0.003077674426140495,-0.004834725519399105,-0.006145067695375857,-0.007016145375323996,-0.00713526530318375,-0.005728138760058936,-0.0022587104513074286,0.0032506822247975226,0.009958738354539996,0.016540231513340633,0.0218411647750814,0.02524358915804017,0.027171875721835166,0.028370544688157355,0.029457531257017205,0.030484962455851066,0.03136348226010051,0.032033544487547326,0.032003766802534334,0.030187153448393896,0.025861533545858417,0.019548062521694172,0.01275810719218702,0.006779669578698129,0.0024391635899984826,0.00021307100478385073,-0.0003304231065487736,9.394900966734564e-05,0.000495985886745047,0.00013117465323958302,-0.0010079296174317226,-0.002511844662218103,-0.003516936625217162,-0.0034350401817948165,-0.0017449966894520544,0.0019180049474994709,0.007226380792931933,0.01341328057712734,0.01897478925529931,0.02244422032039315,0.0230547179900062,0.02108920702299302,0.017024167130792623,0.011097847356932308,0.003965414195496553,-0.002958552201328796,-0.008244592026659179,-0.011297094156436097,-0.012354298446379064,-0.012101165154249166,-0.011311982998942594,-0.010291998518313927,-0.008899760817695609,-0.007045927654240879,-0.004819832082988719,-0.002891545978584114,-0.0018864540155850552,-0.0020130211210403924,-0.002965997541362822,-0.004298674818660874,-0.005221872175799143,-0.0048049432404822226,-0.0023182713340180842,0.0019105596074654443,0.006653102932633181,0.010420338411280297,0.012244393889722033,0.011775351708680428,0.009430136209568512,0.006236178591220149,0.0032730177855092133,0.0014042911856440965,0.0007565654376897475,0.0007937907596887125,0.0006076627715227201,-0.0005314416369657021,-0.003010668203395814,-0.006338641023575875,-0.00979317405835544,-0.012331962885667373,-0.013240269562737588,-0.012398969567802443,-0.009979305262254155,-0.006487538636448623,-0.002511844662218103,0.0013670654042547423,0.004657809686703116,0.006928576379378657,0.007866660741461867,0.007546520767196901,0.0064148584830097805,0.00477693420846676,0.0027369684629421484,0.0005034307673886844,-0.0015663140413200883,-0.0033978148597958507,-0.005266538703318634,-0.007269278667453891,-0.00866151636807221,-0.008654074243770906,-0.007016145375323996,-0.004164662373171511,-0.0007994660685540399,0.0021115778163091005,0.003503816435708197,0.0030347733358858137,0.0011437116346993959,-0.001179167384920051,-0.003003222863361787,-0.003293582855661815,-0.001685435806741399,0.0008161263204004026,0.002483834252031474,0.0020594622736324715,-0.0003006426192544071,-0.0033680344184405238,-0.0051623076179653764,-0.0040455406077502,0.0004885405467110205,0.007114702989373483,0.012988909517509114,0.015505362784109357,0.013294160649267585,0.0068392341365318965,-0.0021991495685967735,-0.011535338606059497,-0.018913451450564122,-0.02288914909991775,-0.022695575771717737,-0.01841463158450952,-0.011088627391825694,-0.0018343384729084264,0.007911331862885247,0.016368993745852305,0.0216178091679645,0.022213422588974942,0.018006922614299214,0.010204429522368589,0.0010320347499217226,-0.007098040899965564,-0.012488311810649204,-0.014446380653361082,-0.013411507330225919,-0.0103441163579425,-0.006346083147877178,-0.002191704228562747,0.001687205837910098,0.005275754074521359,0.008886640628186645,0.012907009398963658,0.016748698277951037,0.019384271472411035,0.020084115978774738,0.01865464928103434,0.015818056040169132,0.012579422706493497,0.009526925170620468,0.006697774054056561,0.003846292430075243,0.0007565654376897475,-0.002764978873128777,-0.006487538636448623,-0.009949522983337272,-0.0125032006531557,-0.014036898436249355,-0.014870751712979307,-0.015429136136867673,-0.015779058390049523,-0.01570460498970926,-0.015123885005109201,-0.01398478059662078,-0.012078829593537477,-0.009428367556570982,-0.006368418708588868,-0.003516936625217162,-0.0013801855937637072,-0.0002708620860210016,-0.0004048743936932483,-0.0018343384729084264,-0.00428378459798321,-0.007254389824947395,-0.009562376326937233,-0.0096442718515788,-0.006189734222895347,0.001344729843543052,0.011350980649062203,0.020262795870564367,0.024677758015946613,0.02318873135427634,0.017016720412587432,0.00881219182175027,0.0012479436388334315,-0.0036062779492831445,-0.004924063168341977,-0.003070229086106469,0.0008161263204004026,0.005268311950220056,0.008648400772467134,0.010219318364875085,0.010174647243451705,0.009355687403132138,0.008707960736397012,0.008908976188898335,0.010211876240573783,0.011834911672610304,0.013443058262140333,0.01557236487234054,0.018624871596021348,0.022280424677206125,0.026099777995481813,0.02964366246091592,0.03170596238898105,0.030894440079058904,0.02669538682258837,0.01982353137453576,0.011753016147968738,0.004121761742307218,-0.0015812042619977522,-0.004708158873334158,-0.0056983564811420515,-0.005899376527547264,-0.006494985354653817,-0.007663872042059123,-0.008892314099490416,-0.009636829727277496,-0.009584711887648922,-0.008892314099490416,-0.007820220967040954,-0.006710894243565526,-0.005757921038975819,-0.005102747654035499,-0.0047900543979757255,-0.004775160961565338,-0.005206978739388756,-0.0063014120264537985,-0.007946787613105901,-0.009845291897984013,-0.01213094743316605,-0.014945200519415681,-0.018243393817021194,-0.021236331388964344,-0.022554120283146288,-0.020975751378629254,-0.016225760416475547,-0.009123116424812512,-0.0012536184883083703,0.0057373541312616605,0.010919162871238787,0.014142902768504032,0.016041411647286032,0.01742620262969916,0.01878121592709929,0.01976397141060588,0.019816089250234453,0.0187588803663876,0.016942271606151058,0.014738511595610588,0.012184833925792157,0.009065325113880167,0.005461885278420075,0.0020743520349197466,-0.00023363648838780314,-0.0010377100587870502,-0.00045699025794314953,0.0010320347499217226,0.002885870669718786,0.004278109748508271,0.004628032001690122,0.003913298193429535,0.0028039746856868297,0.0019328947087867458,0.0011734920760547234,-2.837619059603779e-06,-0.0018268931328743999,-0.004224223255882166,-0.006882132011053855,-0.009376249716942408,-0.011364096244667278,-0.01291268287026743,-0.014223025046244179,-0.015235562808667653,-0.01568226942899757,-0.015287676054392338,-0.01415601836410911,-0.012719109542067411,-0.011230087474301027,-0.009822956337272322,-0.008624291964854022,-0.007663872042059123,-0.006666223122142146,-0.0054675587497238455,-0.0040306503870725366,-0.0023182713340180842,-6.984373936022875e-05,0.003071999117275168,0.007419954121131951,0.012624093827916877,0.01718795818007576,0.019540620397392867,0.01866953812354084,0.014664062789174212,0.008626065211755445,0.0019999009315314273,-0.003933863263582138,-0.00828926314808256,-0.010619585210784087,-0.010962060745760746,-0.009592158605854117,-0.006934249850682429,-0.003338253517694807,0.000786345419654686,0.004888612012025211,0.008492051847485303,0.01106061835981023,0.012385849378293477,0.012698547228257143,0.012341182850773989,0.011373316209773894,0.009936402793828306,0.008425045165350233,0.0073752829997085715,0.007032807464731915,0.007405060684721566,0.008544165093209988,0.01033844288663873,0.012467749496838937,0.01458960938883395,0.016048853771587338,0.016175420417652284,0.01453004942490407,0.011261638406215442,0.007084920710456599,0.00278163912497514,-0.0009036976132976868,-0.0035764975079278167,-0.004991069850477047,-0.004916621044040673,-0.0035392717265384627,-0.001707771367453089,-0.0004793256348986842,-0.0007920207285200135,-0.0028319850958734584,-0.005951489773271948,-0.008936985220913796,-0.010924836342542557,-0.011580005133578989,-0.011297094156436097,-0.010448347443295758,-0.009458145241583976,-0.008832754135560538,-0.008825312011259235,-0.009130558549113816,-0.009018885339459253,-0.008080796383472155,-0.006353529866082372,-0.0040455406077502,-0.0012461736076647327,0.0017467667206207532,0.004657809686703116,0.007032807464731915,0.008603729651043755,0.009318458406010062,0.009742834059532177,0.010651136142698504,0.012408189532909057,0.015103322691298934,0.01843129367391744,0.021714593535112563,0.024134262434564745,0.02522124900342459,0.024506520248458286,0.02132000475441122,0.015974400371247074,0.00975027618383348,0.004225993746441254,0.00026518686903375196,-0.002057692242463773,-0.0033159179569831163,-0.0041572170331374845,-0.005229314300100447,-0.006815125328918784,-0.008974214218035874,-0.01184803186211927,-0.015399353857950788,-0.01911447149696933,-0.02189894689820597,-0.022881702381712558,-0.021869169213192974,-0.019248484861239472,-0.01572694055042095,-0.012510647371360895,-0.01086527637861268,-0.01121519403789064,-0.013106256198467447,-0.01553336722222093,-0.017178738214969142,-0.016918158204634055,-0.014342149568007825,-0.0098601853343944,-0.0047528254008536485,-0.00014429498056566458,0.0035708226584528786,0.006824340700121508,0.010256547361997163,0.014753400438117084,0.02132745147261642,0.029934020156264,0.03965735768768832,0.04912757570869441,0.05659505835946913,0.0604590827991682,0.05961775524080972,0.0541307045568819,0.045196539992956385,0.034631893278789135,0.024007695788499796,0.014306693817787168,0.005945816301968177,-0.001000484277397696,-0.0067630120831941,-0.011706571779643935,-0.015801389356857324,-0.01901768712982127,-0.021333120350016298,-0.022747693611346306,-0.023551764609159375,-0.024244162397317883,-0.024847217942629632,-0.025070568955842643,-0.02465364461442961,-0.02377511562237239,-0.02271791133242942,-0.021921282458917658,-0.021928729177122852,-0.02275513573564761,-0.023864457865219152,-0.024281386800536073,-0.02332096687774117,-0.020983198096834448,-0.0180125914916991,-0.015198338405449466,-0.012741445102779102,-0.00990485186191389,-0.00563135439291087,0.000749120097655721,0.008477158411074917,0.015594700433052229,0.02006922254236435,0.020649942526964407,0.017225182583293946,0.011090400638727115,0.004494018178029592,-0.0001517401368435354,-0.000978149176076395,0.0027220782422644847,0.010502233935921866,0.020314913710192943,0.02890658895743014,0.0332843266995942,0.03243558458035775,0.02748456897789494,0.02058293584482934,0.013845098354950758,0.008477158411074917,0.0047918230509732575,0.0027071880215868206,0.0019477849294644097,0.0020371267129207817,0.0024168280292867924,0.0026178462381304486,0.0024689440313538104,0.0024168280292867924,0.003131559999985823,0.00479926976917845,0.006816898575820205,0.008201689558233331,0.008082569630373576,0.006511647444061736,0.004255774187796582,0.002297706263865482,0.0011511569747334224,0.00038430891008929595,-0.0008069109491976774,-0.0027873144338404674,-0.005415445503999162,-0.008043571980253968,-0.009726171970124257,-0.010046311944389225,-0.008936985220913796,-0.006569438754994081,-0.003509491285183135,-0.0002634170216212086,0.002900761349786839,0.005804360813396732,0.008186800715726833,0.009601373977056842,0.00981728286596855,0.00909510739279705,0.008082569630373576,0.00724126963543843,0.0066828852115500634,0.006452087480131858,0.006221285154809763,0.0058266963741084215,0.005379989753778507,0.004858829733108328,0.004196212845695537,0.0034591453142848163,0.0024168280292867924,0.0007714551989770222,-0.001968350459007401,-0.006107838698253779,-0.011371542962872473,-0.01666502491250416,-0.020968309254327952,-0.023857015740917843,-0.02534603780868423,-0.025599175694718014,-0.024847217942629632,-0.02334330243845286,-0.02164581360607607,-0.020112120416886307,-0.018332731465964064,-0.015525920504015736,-0.01123752959860233,-0.005616460956500484,7.1613632711811e-05,0.004166432404340209,0.005804360813396732,0.004977949660968083,0.0023200413651867833,-0.0012387282676307064,-0.004767718837264035,-0.007641536481347433,-0.009569823045142426,-0.010708927453630848,-0.011297094156436097,-0.011483220766430925,-0.01117052291646726,-0.009986751980459348,-0.0073362853495889625,-0.003382924639118187,0.0012628338595110954,0.005551227521266835,0.008581394090332066,0.010263989486298466,0.01132119837014532,0.012579422706493497,0.01435136493921055,0.016339216060839313,0.01802181145680571,0.01901946037672269,0.01928748710526297,0.01910880261956945,0.018892893730657744,0.01882588704852267,0.018729102681374607,0.018341951431070678,0.017679335921829055,0.016890153766522482,0.016153084856940596,0.015542587187327544,0.015185218215940502,0.015215000494857385,0.015386238262345713,0.015013980448452173,0.013778091672815686,0.011641338344410288,0.008603729651043755,0.004724816368838186,0.0008161263204004026,-0.002236375349986128,-0.003703064613383154,-0.003717954834060818,-0.0034573757425065063,-0.003956198824293828,-0.005043187690105621,-0.005869594248630381,-0.005527118713653723,-0.0034722655037937814,0.00016095514053394956,0.004620585283484929,0.008737738421410006,0.011417987331197274,0.011872136075828493,0.009847065144885434,0.006057494105526628,0.001977565830210126,-0.0012089478262753788,-0.002980887762040486,-0.003502045945149109,-0.0028617655372287863,-0.0014993078185754067,0.00013861976357841492,0.0022307000411208003,0.005298089635233049,0.00944502505207501,0.013584518344615668,0.01631688050012762,0.017053944815805615,0.01596695824694577,0.013487729383563714,0.010286325047010157,0.00693601850367996,0.0036452737618411974,0.00037686375381142513,-0.002675637549062794,-0.005177201054375763,-0.0068523497321369715,-0.007529858677788982,-0.007470298713859104,-0.006941696568887621,-0.006576885473199275,-0.0071948298610175175,-0.008869978538778727,-0.01147577404822573,-0.01518344496903908,-0.01954628927479275,-0.023038051306694392,-0.024214380118400998,-0.022539226846735903,-0.0184741915484394,-0.013180709598807712,-0.007931894176695516,-0.0036360583906384723,-0.00012940475988800076,0.00292309691049853,0.0059681518626798664,0.009593927258851649,0.014425813745646924,0.020285131431276058,0.02607000031046882,0.030254160130528972,0.031199691210817372,0.027849384667487175,0.020731842645509865,0.01195403619437395,0.004434457295318936,0.0009054676444663856,0.0024987244727091382,0.008499493971786608,0.016882707048317288,0.024804324662011563,0.03045518017693418,0.03387994012060464,0.03620282005900487,0.03749827339247512,0.036649526679334785,0.03310564680780456,0.026963413551128648,0.018721655963169413,0.008931311749610026,-0.002080027343785074,-0.014074122839467542,-0.026872288873572688,-0.04051920162081817,-0.055238202906609225,-0.0706645321682003,-0.08481770690580169,-0.095106857203704,-0.09960373784324726,-0.09798066565997962,-0.09137683694046729,-0.08172054284240916,-0.0706794164168029,-0.05872998331412643,-0.044770368123013396,-0.026842511188559695,-0.0039264183829385004,0.02231020695612301,0.04777255781739039,0.06841048728568325,0.08179684758601698,0.08738813394920195,0.08612246748855246,0.08007702778683239,0.07139597354551731,0.06160562933195793,0.051532346577832316,0.041466528917527445,0.03148260678186415,0.0218411647750814,0.012683658385750644,0.003980304416174217,-0.004119991711138519,-0.011423656208597158,-0.017878582721332848,-0.023157175828458037,-0.026306462325383022,-0.02624690236145314,-0.02213719134782937,-0.01470695606979228,-0.006375865426794062,-0.00016663035752119922,0.0021488035976984544,0.0009426934258557397,-0.0021246980058180656,-0.005556900992570607,-0.008423271918448811,-0.01049301856471914,-0.011833138425708883,-0.012689327263150526,-0.012942460555280422,-0.012428751846719328,-0.011319425123243899,-0.009956969701542463,-0.008728523050207281,-0.007939340894900709,-0.007559640956705865,-0.007380956471012343,-0.007328838631383769,-0.007343732067794155,-0.007410738749929226,-0.007380956471012343,-0.00713526530318375,-0.00643542539072394,-0.0051623076179653764,-0.0033159179569831163,-0.0010600451601083514,0.0013894009649664326,0.0037122799845858796,0.005938374177666873,0.008171911873220337,0.010546905057345245,0.013390945016415648,0.016800811523675723,0.020776509173029353,0.02499789799021158,0.028854475711705456,0.031713404513282355,0.03339600450315265,0.03402884232738128,0.03404373116988778,0.03385015784168776,0.0332843266995942,0.032003766802534334,0.02994146228056531,0.027000642548250724,0.02283880910109449,0.01749320931183423,0.011499882855838842,0.005327871914149933,-0.0009707038360423684,-0.0076043120781292455,-0.014907976116197494,-0.023038051306694392,-0.03119790877610817,-0.0378166217442231,-0.041367948333958515,-0.04124137709398967,-0.03812931500028288,-0.03355801311772658,-0.029076044290209272,-0.02570340218616738,-0.023484757927024306,-0.021735155848922834,-0.01947928259265768,-0.015853507196485896,-0.010522800843636024,-0.004060430828427864,0.002186029379087809,0.006459529604433162,0.00776242965610861,0.006489311883350046,0.004196212845695537,0.002349821806542111,0.0015680836130983985,0.002029681372886755,0.0032730177855092133,0.004747151929549876,0.005841585216614918,0.006109611945155201,0.005566116363773332,0.004665256404908309,0.003704835103942242,0.0028263097870081313,0.0021041329356654634,0.00141918140632176,0.0006374432128780478,-0.00014429498056566458,-0.0005686669589646671,-0.0006356731817093489,-0.00048677097493271055,9.394900966734564e-05,0.0017393218399771157,0.005089627464526534,0.010115087279521828,0.016004182650163956,0.021416793715463178,0.025228700315533675,0.027067644636481907,0.027231440279668933,0.02628590460547664,0.024588420367003743,0.022131522470429484,0.01877377380279799,0.014775740592732664,0.01071070070053227,0.007367836281503378,0.005402325314490197,0.004836494172396638,0.005141745304155107,0.0056629007309213965,0.006057494105526628,0.006221285154809763,0.006109611945155201,0.0056107874851967126,0.004598249722773238,0.0031762306620188147,0.0016053093944877524,0.00020562589444501883,-0.0007547954065210484,-0.0009260331740093769,-1.0282746395880084e-05,0.0020222364922431175,0.004985396379173276,0.008298478519285285,0.011172296163368681,0.01271343607076364,0.012408189532909057,0.010263989486298466,0.0068392341365318965,0.0032283466640858323,0.00043642477433919713,-0.000836691390553005,-0.0006728989630987029,0.00030985762294482124,0.001203272517410051,0.0014489618476770877,0.0007789005390110486,-0.0006654536230646764,-0.0023033811133404206,-0.0036435037306724984,-0.004685818718718577,-0.005445223189012156,-0.0060557254525290954,-0.006517320915365507,-0.006725783086072023,-0.006614109876417461,-0.006048278734323902,-0.005169754336170569,-0.004194442814526838,-0.003167015750206478,-0.002102362904496764,-0.0007696856271987122,0.0007789005390110486,0.002171138699019756,0.003094334677986858,0.003220901783442195,0.0030347733358858137,0.003094334677986858,0.0033474688888975317,0.003399584431574161,0.002692297800909157,0.0007789005390110486,-0.0019832411390754536,-0.0046113699122822035,-0.006316305462864185,-0.007031034217830493,-0.007388403189217537,-0.008006347577035779,-0.00936136087443591,-0.011445991769308845,-0.013627416219137626,-0.015041989480467635,-0.015034542762262442,-0.013411507330225919,-0.010448347443295758,-0.007142712021388943,-0.004737936558347151,-0.004090210810392803,-0.004775160961565338,-0.00563135439291087,-0.0055717898350771036,-0.004097656150426829,-0.001417411375153061,0.001724431619299452,0.004441902175962574,0.006124500787661698,0.006898794100461774,0.007181709671508552,0.007300829599368308,0.0077103118164800356,0.008588836214633367,0.009534367294921771,0.010040638473085454,0.009370576245638636,0.007271051914355314,0.003965414195496553,0.00013117465323958302,-0.003516936625217162,-0.006375865426794062,-0.008185032062729301,-0.00863918080736052,-0.007529858677788982,-0.005013405411188738,-0.001722661588130753,0.0017467667206207532,0.004851383014903135,0.0068764585397500825,0.007352947438996882,0.006444640761926665,0.004814158611684947,0.003332578208829479,0.0024540538106761463,0.0022232547010867737,0.0026774075802314928,0.003526151996419887,0.004598249722773238,0.005796914095191538,0.006459529604433162,0.005804360813396732,0.004017529738173182,0.002245590261798464,0.0014564071877111143,0.0019477849294644097,0.003094334677986858,0.00366016444190925,0.002759304023653838,0.0004140893973836625,-0.0022140397892744376,-0.003948753484259802,-0.004008314826360846,-0.0024001677774404297,0.00017584540715065227,0.0026327364588081127,0.00387607287143057,0.0032804626661528504,0.0010767054119547141,-0.00161098470335308,-0.003293582855661815,-0.0031744610902405047,-0.0016258749240307439,0.0003917539744890889,0.0017988827226877713,0.0020520169335984453,0.0011362667540557585,-0.00043465488098761487,-0.0018417838129424528,-0.002712863330452148,-0.003122345088173487,-0.003345698398338444,-0.0037626254960938096,-0.004626258754788701,-0.0059812720521888315,-0.007366067628505847,-0.008281816429877365,-0.0084456074791605,-0.007924452052394212,-0.00711292974247206,-0.006532214351775894,-0.006606663158212268,-0.0073362853495889625,-0.008430718636654004,-0.009569823045142426,-0.010217549711877553,-0.010224991836178858,-0.009435809680872285,-0.007790438688124071,-0.005378216506877085,-0.0024299486781861465,0.0004140893973836625,0.002387047587931465,0.0029752124531751585,0.002066907154276109,0.0005183209880663482,-0.0003155328858711098,0.00046620544538971933,0.0030422182165294512,0.0070179140283215275,0.01188702951223888,0.016852929363304296,0.021290222475494343,0.025102129075564836,0.02857900685886387,0.03206332676646421,0.035860344524028205,0.03994771997694029,0.04428823331588616,0.04853197606939563,0.05145043727147907,0.0512792224735102,0.04725137942110465,0.039798817770163655,0.030001026838399076,0.019123691462075945,0.008298478519285285,-0.00163332026406477,-0.009741060812630754,-0.015339793894020912,-0.018295507062745877,-0.01908468921805245,-0.01874221368307579,-0.01836251374488095,-0.018288064938444572,-0.017923249248852337,-0.016568240545356095,-0.013731647304490885,-0.009234789634467073,-0.003070229086106469,0.004255774187796582,0.011417987331197274,0.01609352489301072,0.01651045382832764,0.012854896153238975,0.006385080797996787,-0.001164277164242387,-0.008281816429877365,-0.013746536146997381,-0.016411891620374264,-0.015496142819002743,-0.010850382942202294,-0.0034722655037937814,0.004278109748508271,0.009958738354539996,0.012862338277540278,0.014120567207792345,0.015252224898075574,0.01716562261936407,0.01967463376166301,0.021558249204034624,0.021714593535112563,0.019533173679187676,0.014604498231340446,0.006638214090126684,-0.0037551801560597826,-0.014453822777662386,-0.022896595818122947,-0.0273189954939026,-0.027587022222442886,-0.0251748000411959,-0.02201062470176442,-0.01969519148156939,-0.018928340293070618,-0.01948672931086287,-0.02068539368328117,-0.021690484727499452,-0.021697926851800754,-0.02008978485617462,-0.01688093380141587,-0.012860569624542746,-0.009085892021594323,-0.006063167576830399,-0.003918973042904474,-0.0028468753165511226,-0.0027426437718074755,-0.0032042410722054435,-0.0038594121601938183,-0.004484802806826866,-0.004924063168341977,-0.004924063168341977,-0.00435823524198114,-0.0033903695197618246,-0.002385277556762766,-0.0015514238206424246,-0.0011344967228870595,-0.0012536184883083703,-0.001536533599964761,-0.0017896678108754347,-0.001990686019719091,-0.0018938993556190816,-0.001357850492442406,-0.00047188029486465774,0.0004289796180613263,0.0009948089685323687,0.0008682418630770316,-0.00021874626771013932,-0.002080027343785074,-0.0040232050470385096,-0.005512229871147227,-0.0063014120264537985,-0.006509874197160314,-0.006539656476077197,-0.006703452119264222,-0.006532214351775894,-0.005690914356840748,-0.004365680582015166,-0.002965997541362822,-0.001521642919896708,-0.00024108159872663503,0.0004140893973836625,0.00043642477433919713,-4.006324747195831e-05,-0.0007696856271987122,-0.0013280700510870783,-0.001469527377220079,-0.0012461736076647327,-0.000710124285097668,0.00018329051748948422,0.0013298396228653882,0.002349821806542111,0.0029901026738528226,0.0033176884475422047,0.0037495053065848445,0.004940725257749895,0.0071444852682903655,0.010040638473085454,0.012795331595405206,0.014165238329215724,0.013376056173909152,0.01071070070053227,0.00693601850367996,0.0032134564434081686,0.0003545283768558905,-0.0012387282676307064,-0.0017896678108754347,-0.001812002912196736,-0.0017152162480967266,-0.001648210484742434,-0.001536533599964761,-0.0009855940567200321,0.00015350998425607874,0.0015085227303877431,0.0024689440313538104,0.0025880657967751208,0.0023125964845431457,0.0024168280292867924,0.0036750546625869142,0.006288291836944833,0.010003409475963376,0.014597051513135253,0.019808642532029262,0.025124464636276527,0.030068028926630252,0.03434153558344105,0.03788542004887516,0.04091559121184427,0.04338737335702114,0.044928513264416096,0.04505508450438493,0.04380430229233806,0.041637762091111884,0.03935955327413504,0.037334477749288095,0.035651877759417805,0.03382782228097606,0.03123691561403556,0.027439902450375447,0.02226553583469963,0.01598929380765746,0.009370576245638636,0.003362359109575196,-0.001417411375153061,-0.004663487751910777,-0.006383307551095366,-0.006993809814612305,-0.007060816496747376,-0.007053369778542182,-0.007217165421729207,-0.007648978605648736,-0.008244592026659179,-0.008869978538778727,-0.008981656342337177,-0.008103131944183845,-0.006219516501812231,-0.0038594121601938183,-0.001722661588130753,-0.0002708620860210016,2.694287880074172e-05,-0.000911142953331713,-0.002675637549062794,-0.004507137908148167,-0.005676020920430362,-0.0058398165636173865,-0.005318656542947208,-0.004871949922617293,-0.005303767700440711,-0.0073362853495889625,-0.010909942906132172,-0.01544402497937417,-0.01980686928512784,-0.022918931378834634,-0.024214380118400998,-0.023395415684177544,-0.020610940282940908,-0.017007500447480815,-0.014089011681974038,-0.012890347309555739,-0.013478514012360988,-0.01516110940832739,-0.017000058323179513,-0.01834017818416926,-0.018839002644127745,-0.018072156049532863,-0.016069416085397605,-0.013411507330225919,-0.011006731867184125,-0.009956969701542463,-0.010641920771495778,-0.012585096177797267,-0.014974982798332563,-0.016813927119280796,-0.017707344953844517,-0.01740954054029124,-0.01603219168217942,-0.01387310279306233,-0.011423656208597158,-0.009093334145895627,-0.006956585411394119,-0.005013405411188738,-0.00323402197295116,-0.0016705455860637354,-0.00045699025794314953,0.00019818073816714802,0.00037686375381142513,0.0005853272108110299,0.0012851689608323967,0.002513614693386802,0.004077091080274227,0.005633123045908402,0.0068392341365318965,0.007412507402926759,0.007338054002586494,0.006720109614768251,0.005983045299090253,0.005528891960555145,0.005283200792726553,0.004910942978833013,0.004091981300951891,0.002759304023653838,0.0010543703106334129,-0.0010674905001423777,-0.003502045945149109,-0.00591426537005376,-0.008036125262048773,-0.009592158605854117,-0.01027710967580743,-0.00927201863158915,-0.005735585478264129,0.0006970040955887031,0.00928868072099707,0.018796104769605786,0.028191860202463833,0.03632938670506981,0.041801562328202806,0.04373729561020299,0.04192812438036386,0.03700689565072183,0.030023362399110763,0.021960284702941157,0.013889769476374138,0.006854122979038393,0.0013596205236111047,-0.002511844662218103,-0.005005963286887434,-0.006323747587165488,-0.006710894243565526,-0.006561992036788887,-0.006614109876417461,-0.007723432005989001,-0.010284556394012623,-0.014513387335496153,-0.020208904784034375,-0.026150113400401187,-0.030847981929022432,-0.0330517419395629,-0.03205409761354982,-0.02775081786562991,-0.020707729243992865,-0.011766131743573814,-0.0017301064687743905,0.00855161181141518,0.018237720345717422,0.02626356904476495,0.031787857913622625,0.034631893278789135,0.035354073345864524,0.03455744447235276,0.03276317127282791,0.03032861353086923,0.02738034248644557,0.024015142506704987,0.020359584831616324,0.016681691595815968,0.013204813812516933,0.010174647243451705,0.007620969573633275,0.005618234203401906,0.004352560392506201,0.0035931577597741794,0.0028114195663304677,0.0014415165076430614,-0.000710124285097668,-0.0035913877286054808,-0.006897020853560351,-0.009949522983337272,-0.012019269629607598,-0.012294738482449184,-0.010172878590454171,-0.005184643178677066,0.0028039746856868297,0.012936791677880541,0.022809031416081496,0.029159726843463924,0.02941286013559382,0.02309938911142958,0.011760462866173932,-0.0015737589219637258,-0.013277493965955775,-0.020692835807582476,-0.02345497564810742,-0.022554120283146288,-0.018883673765551126,-0.01315837403809602,-0.00584725868791869,0.0022679253631197652,0.009794947305256861,0.014872524959880729,0.01620520269656917,0.013606853905327359,0.007985780669321622,0.0007937907596887125,-0.006591774315705771,-0.012957353991690809,-0.017171296090667844,-0.018973016008397885,-0.018868780329140737,-0.01787113600312765,-0.016397002777867768,-0.01389543835377402,-0.009607047448360613,-0.003144680189494788,0.005432102999503191,0.01563192943017431,0.0263752468483234,0.035919904487958086,0.04209936214785219,0.043164017749904235,0.03871927332560511,0.02980000679199386,0.018580195880694077,0.007412507402926759,-0.0019460153576860994,-0.00861684524664883,-0.01262976729922065,-0.01459528286013772,-0.015213227247955964,-0.01511643828690401,-0.01496753608012737,-0.015362129454732601,-0.01659801823036909,-0.01849652710915109,-0.020499267073286347,-0.021869169213192974,-0.022129744629624172,-0.020960862536122758,-0.018809220365210863,-0.016218318292174246,-0.013709311743779193,-0.01173635405856082,-0.010627031928989282,-0.01047068300400745,-0.011297094156436097,-0.012964800709896002,-0.014870751712979307,-0.01599496727896123,-0.015458913821880667,-0.012830787345625861,-0.008363711954518934,-0.0025788508849627846,0.004077091080274227,0.010956387274456972,0.017135840340447184,0.021446571400476174,0.022876038098216565,0.02058293584482934,0.014209909450639104,0.005104516307033031,-0.0038296321782288804,-0.009889963019407394,-0.011922480668555646,-0.010023976383677535,-0.005177201054375763,0.0013149494021877245,0.008082569630373576,0.014165238329215724,0.019056684779940877,0.022868591380011374,0.025854086827653226,0.028199306920669027,0.030216931133406896,0.03216755785181747,0.03404373116988778,0.035659324477622996,0.036388946668999694,0.03552531111335285,0.03262915790855777,0.027276106807188425,0.01906413149814607,0.00824636067965671,-0.0037849610568054994,-0.015034542762262442,-0.023760226779865893,-0.029098379850920956,-0.0311309020939731,-0.030371497623679522,-0.02787737991779097,-0.024884442345847815,-0.022196751311759244,-0.01993343593119279,-0.017737122638857513,-0.015369571579033904,-0.012637214017425843,-0.009592158605854117,-0.006844907607835667,-0.004961292165464054,-0.004008314826360846,-0.0034201499611171524,-0.0024969544415404388,-0.0010600451601083514,0.0006076627715227201,0.0023200413651867833,0.003987749296817855,0.0056107874851967126,0.0071072562711682885,0.0082835850828749,0.008774967418532082,0.008447380726061923,0.00719659851401505,0.005030067500596657,0.0023200413651867833,-0.00044954510166527877,-0.0031744610902405047,-0.0058919298093420705,-0.008542396440212454,-0.010641920771495778,-0.011527891887854304,-0.010895054063625674,-0.008929543096612492,-0.006219516501812231,-0.003487155724471445,-0.001447191816508389,-0.000873917171942359,-0.0018194482522307625,-0.0032638024143064877,-0.003956198824293828,-0.00311489974813946,-0.0006282283010657114,0.002960322232497495,0.006764780736191631,0.009720498498820488,0.01138820505228039,0.012125273961862278,0.01260920498541038,0.01317503612750394,0.014031224964945584,0.01537879154414052,0.01749320931183423,0.020359584831616324,0.023635442568510145,0.027030420233263724,0.030209489009105587,0.03282273123675779,0.034706351273033294,0.03606880669473472,0.0370515667721452,0.03767695328426475,0.03798965113422841,0.03814600005921025,0.03822789558385182,0.03766951115996345,0.035651877759417805,0.03169851567077586,0.025749860336203852,0.01849830035605251,0.011090400638727115,0.004605696440978432,-0.00018896578041577275,-0.0033680344184405238,-0.005601572113993987,-0.007753214284905883,-0.010351563076147695,-0.013404060612020723,-0.016717142752132732,-0.02004511373475124,-0.02319440023167622,-0.02622456220683756,-0.029187722093767722,-0.031905195406773175,-0.03379625297344609,-0.034309970869814965,-0.033587790802739576,-0.032188110977819956,-0.030505510987949663,-0.0285251065845261,-0.026217120082536256,-0.023961242232367213,-0.02209252022640599,-0.020670500246870786,-0.019717527042281077,-0.019337827104086235,-0.019665409202652504,-0.02043970251545258,-0.021057646903270822,-0.020983198096834448,-0.02000044261332786,-0.018146604855969237,-0.01580883607506252,-0.01335194736629604,-0.011185416352877647,-0.009889963019407394,-0.009808067494765826,-0.010716369577932153,-0.011706571779643935,-0.011661900658220556,-0.009912298580119083,-0.006494985354653817,-0.002147033566529756,0.0020445720529548078,0.00538743187807981,0.007553962891498204,0.008722849578903508,0.009236562881368496,0.009415247367062016,0.009251451723874992,0.008700514018191819,0.00791877398718655,0.007129591831879979,0.006578654126196806,0.006340409676573407,0.006265956276233144,0.006422305201214975,0.007137038550085173,0.00841759844714504,0.01018954067986209,0.012244393889722033,0.014209909450639104,0.015438356101974289,0.015423462665563901,0.014492820427781994,0.01317503612750394,0.011715791744750553,0.010673471703410193,0.010234211801285472,0.010278882922708852,0.010353331729145225,0.009899178390610119,0.008752631857820393,0.007181709671508552,0.005625676327703209,0.004248329307152944,0.003183676002052841,0.002751858683619812,0.0030124377751741234,0.00366016444190925,0.004196212845695537,0.0043078901898636,0.003801621308651862,0.002885870669718786,0.0019403400488207721,0.001307504521544087,0.0014712969489983892,0.0028560906877538477,0.005379989753778507,0.007956002984308628,0.009311016281708759,0.008827080664256767,0.006824340700121508,0.004553579060740247,0.0032432368847634964,0.0032804626661528504,0.004315335070507236,0.0056629007309213965,0.0065712074079916135,0.006667996369043567,0.006117054069456504,0.005685236291633086,0.005983045299090253,0.007204045232220242,0.009355687403132138,0.012326289414363601,0.015579811590545733,0.018528082634969394,0.02059038256303453,0.021498689240104746,0.02132745147261642,0.020471258041270885,0.019242815983839593,0.017858020407522577,0.01642855370978218,0.01474595831381578,0.012728329507174023,0.0104054495687738,0.007620969573633275,0.004144097303018909,-4.750836240469411e-05,-0.004693265436923771,-0.009264571913383956,-0.013418949454527223,-0.01682137383748599,-0.01947928259265768,-0.021496911399299434,-0.023075275709912576,-0.024117595751252937,-0.023961242232367213,-0.021668149166787762,-0.016248100571091127,-0.007291614228165583,0.0043823408338615295,0.016063742614093834,0.024394842444899832,0.02676984022292863,0.022779249137164614,0.014150349486709228,0.003518706656385861,-0.006591774315705771,-0.014468711620168882,-0.019650520360146008,-0.022569009125652788,-0.024169713590881506,-0.025212024444414085,-0.025934204511489478,-0.026358575571107705,-0.026239455643247946,-0.024489853565146477,-0.020052555859052544,-0.012361745164584256,-0.001469527377220079,0.012326289414363601,0.027737706863928725,0.04203980218392231,0.052135388341432394,0.05594731791102234,0.053289422937562315,0.04619418431896947,0.037840748927451776,0.031050789004040732,0.027000642548250724,0.025600953535523323,0.025623289096235017,0.02508724023305834,0.022369766920052884,0.01677103383866273,0.008886640628186645,0.00010883927628404837,-0.007909558615983825,-0.014446380653361082,-0.019657967078351202,-0.023812344619494465,-0.02700630223784283,-0.029180275375562524,-0.030282155380832763,-0.030319379784050946,-0.02960465102908464,-0.02862189554557805,-0.027564686661731196,-0.026105442278977806,-0.023804897901289274,-0.02026846474796425,-0.015831171635774206,-0.011274754001820517,-0.00741818087423053,-0.004447577484827901,-0.002147033566529756,-0.000308087729593239,0.0010469249705993865,0.001702096058587762,0.00141918140632176,-7.728884969906066e-05,-0.002965997541362822,-0.007254389824947395,-0.012346851728173869,-0.017461653786015927,-0.021936175895328047,-0.025197135601907592,-0.026730833385001245,-0.02645536453215966,-0.024601526774801038,-0.02153413580251762,-0.01815405157417443,-0.01511643828690401,-0.012599989614207656,-0.010411123040077573,-0.00809568981988254,-0.005616460956500484,-0.0032786926349841513,-0.001089826060854068,0.0014564071877111143,0.00479926976917845,0.009214227320656803,0.014812964995950851,0.020873298134081307,0.026568820176523417,0.03084232683333422,0.03286740235818117,0.03268127115428245,0.030968893479399164,0.02859389570137037,0.02609233127727662,0.02371733809315171,0.021506131364406048,0.019451278154546107,0.01745598490861604,0.015066098288080747,0.01179768726939212,0.007658198570755351,0.0031687857813751767,-0.0007622402871646859,-0.003881747720905509,-0.006636445437129151,-0.009473034084090472,-0.012830787345625861,-0.01659801823036909,-0.01994087805549409,-0.021802162531057902,-0.02118421814323966,-0.017469100504221118,-0.01119285847717895,-0.003918973042904474,0.0028039746856868297,0.008253807397861905,0.01223695176542073,0.014917196081304108,0.016681691595815968,0.017880355968234268,0.018691873684252527,0.01893756485208112,0.018557860319982387,0.01777612488288101,0.01716562261936407,0.017284742547223824,0.01817816038178754,0.01939171819061623,0.02032980255269944,0.020344691395205936,0.018833333766727862,0.015416020541262598,0.01053201621483875,0.004992843097378469,-0.0005165514162880382,-0.005594125395788794,-0.010180320714755477,-0.014304920570885747,-0.01795303152776922,-0.020931080257205876,-0.02282214241778268,-0.02319440023167622,-0.022062742541392993,-0.01959096039621613,-0.01603219168217942,-0.011862920704625766,-0.007529858677788982,-0.0032638024143064877,0.0011139311933440683,0.005990487423391557,0.011566889537973914,0.01758255155468099,0.022987711307871125,0.026650715701164986,0.02761858234216508,0.02555628241409995,0.021029642465159253,0.015229889337363882,0.009541814013126964,0.00503751421880185,0.002245590261798464,0.0014787422890324155,0.0024689440313538104,0.004583359502095575,0.0071072562711682885,0.009251451723874992,0.010487345093415368,0.010673471703410193,0.009839618426680241,0.008119794033591763,0.005715018570549971,0.003131559999985823,0.0006672236542333754,-0.0017822224708414086,-0.004201888154560864,-0.0063014120264537985,-0.007552194238500671,-0.007269278667453891,-0.005437776470806963,-0.0028245402152298213,-0.0005016611956103744,0.0005257663281003747,-0.00012940475988800076,-0.0021768140078850832,-0.004767718837264035,-0.007023592093529189,-0.008467943039872191,-0.009175229670537195,-0.0093836964351476,-0.009435809680872285,-0.009458145241583976,-0.009309243034807336,-0.008929543096612492,-0.008460500915570887,-0.008162691908113723,-0.00828926314808256,-0.009003991903048868,-0.010336669639737308,-0.01215327839997385,-0.014096458400179231,-0.01548869610079755,-0.015801389356857324,-0.014937758395114378,-0.013515738415579175,-0.012123500714960857,-0.0108206052571893,-0.009093334145895627,-0.0066587809978408425,-0.0038668575002278453,-0.001432301595830725,0.00013117465323958302,0.000711894316266367,0.0006672236542333754,0.0008831320837546955,0.0019403400488207721,0.003943079094175252,0.006593542968703303,0.009363129527433444,0.01162644950190379,0.012765553910392212,0.012043373843316822,0.009459918488485397,0.005722465288755164,0.0017169862792654259,-0.0015141980392530706,-0.003129789968817124,-0.0028543206565851487,-0.001000484277397696,0.0018584436053984265,0.005074738622020037,0.007933667423596937,0.009891736266308815,0.01036077844735042,0.00913977851422043,0.00686901182154489,0.004538688840062584,0.0028263097870081313,0.0018584436053984265,0.0017467667206207532,0.0027071880215868206,0.00479926976917845,0.00809001175467488,0.01243052049971686,0.017619775957899177,0.02333763815495687,0.029487313535934086,0.035875233366534705,0.04166754896393266,0.04550923784292004,0.04667066403040848,0.04565813545579279,0.04361817108843934,0.04139207551718718,0.039091531139498654,0.03641872894791657,0.032740835712116216,0.02738034248644557,0.020143675942704616,0.01138820505228039,0.0017169862792654259,-0.007701096445277309,-0.015779058390049523,-0.02209252022640599,-0.026708497824289554,-0.030073693210126245,-0.032381679712116085,-0.033327215386308374,-0.03247102195496285,-0.0297088821144379,-0.025815084583629723,-0.02188405805569947,-0.01860075819450435,-0.016106640488615792,-0.014275142885872755,-0.012704220699560915,-0.011021620709690622,-0.009242236352672267,-0.007529858677788982,-0.006092949855747283,-0.005035740971900428,-0.0043805712620832195,-0.004313565039338538,-0.0050208521293939315,-0.0068002364864122875,-0.009755949655137252,-0.013575298379509054,-0.017483989346727614,-0.020610940282940908,-0.022375435797452766,-0.022516891286024212,-0.021176771425034466,-0.019136807057681022,-0.01726063373961071,-0.015957738281839155,-0.014714402787997476,-0.01276378066349079,-0.009748507530835948,-0.00591426537005376,-0.00206513712310741,0.000711894316266367,0.0017839925020101074,0.0014340716269994238,0.00047365032603335666,-0.00044954510166527877,-0.0008888073926200229,-0.0008143562892317038,-0.0005016611956103744,-0.00047188029486465774,-0.0009409233946870408,-0.001968350459007401,-0.003323363297017143,-0.004119991711138519,-0.0030851193067841323,0.0005778823301673925,0.006548871847279922,0.013383498298210455,0.019332153632782463,0.023471646925323122,0.025236142439834977,0.02475221141628688,0.022496338160021723,0.019041795937434377,0.015125658252010623,0.011604113941192101,0.009042989553168476,0.007620969573633275,0.0071072562711682885,0.007062585149744909,0.0068392341365318965,0.006102165226950008,0.004695038683825193,0.0026848524608751303,1.9497754680198135e-05,-0.003010668203395814,-0.005824923127207,-0.008058460822760464,-0.0093836964351476,-0.009755949655137252,-0.009070998585183938,-0.006681116558552532,-0.0017822224708414086,0.0061989495940980716,0.017031609255093928,0.02879491115387169,0.038324679950999876,0.04279920665421589,0.041198502188987164,0.03431920002272936,0.02403747806741668,0.012490085057550625,0.0016053093944877524,-0.007611754202430549,-0.014945200519415681,-0.020618387001146102,-0.024824882381917938,-0.028167742207042944,-0.031503159907866646,-0.035009810782274775,-0.03836011732560497,-0.04072766379152469,-0.040906348277218216,-0.03777939734100492,-0.031049001975427645,-0.020975751378629254,-0.007708543163482503,0.008238918555355407,0.025050011235936264,0.04023063554798707,0.05121963954006087,0.05642379762246136,0.05579098736165606,0.05066125052226861,0.04306723338275617,0.03532429566085153,0.028802362465980773,0.023814122460299778,0.019920320335587712,0.016674244877610774,0.013681302711763734,0.01094894055625178,0.008640954054261941,0.006533983004773426,0.004508908398707255,0.0028039746856868297,0.0013149494021877245,-1.0282746395880084e-05,-0.0007771305078423497,-0.0005761122989986936,0.001195827636766414,0.005439549717708384,0.01214760952257397,0.020143675942704616,0.027559022378235206,0.03211544460609279,0.031758075634705736,0.025809420300133733,0.01533412501662103,0.002930541791142167,-0.007924452052394212,-0.014304920570885747,-0.015019653919755946,-0.010619585210784087,-0.0032116868716298586,0.004479127957351928,0.0104054495687738,0.01413545605029884,0.016339216060839313,0.01771656491895113,0.018580195880694077,0.018550418195681085,0.017001831570080932,0.013361162737498765,0.007933667423596937,0.0015159680704217695,-0.004745383276552345,-0.009956969701542463,-0.013925220632690903,-0.01701494716568601,-0.01996321361620578,-0.02314228239204765,-0.026492588935377842,-0.02964932215050802,-0.03209876873497319,-0.03337188191382787,-0.03319320202203824,-0.03157760871430302,-0.028815468873778068,-0.025360931245094614,-0.02172770913071764,-0.01874221368307579,-0.016754367155350922,-0.01599496727896123,-0.016307660535021005,-0.017312751579239286,-0.01826572937773288,-0.018563533791286158,-0.01797536708848091,-0.01679159155856911,-0.01544402497937417,-0.014193247361231186,-0.013262605123449279,-0.012927571712773925,-0.013270051841654472,-0.014103905118384424,-0.015369571579033904,-0.016784149434267804,-0.01802003820990429,-0.01860075819450435,-0.018191275977392618,-0.016970276044262628,-0.015622709465067691,-0.01443893393515589,-0.013203045159519401,-0.012019269629607598,-0.011118409670742577,-0.010545131810443824,-0.010105871908319103,-0.009547487484430737,-0.008624291964854022,-0.007492634274570794,-0.006569438754994081,-0.006256740905030418,-0.006576885473199275,-0.007031034217830493,-0.007060816496747376,-0.006293969902152494,-0.00426144903727152,-0.0008292465099093675,0.003310243107508178,0.007092367428661791,0.010234211801285472,0.013041022763233798,0.015736160515527564,0.018267502624634304,0.02059782928123972,0.022898369065024366,0.0249532268687882,0.02639758240903509,0.026732611225806554,0.025623289096235017,0.023367415839969864,0.02082862701265793,0.01876632708459279,0.01771656491895113,0.01760488711539268,0.01788780268643946,0.01782079600430439,0.0168603714876056,0.014999091605945676,0.012512420618262316,0.009899178390610119,0.007620969573633275,0.006385080797996787,0.007114702989373483,0.010182093961656898,0.014887413802387225,0.01965229360704743,0.0230547179900062,0.024402284569201134,0.02385134686351796,0.021893282614709974,0.019280040387057776,0.01670402715652766,0.014500267145987187,0.012802778313610399,0.011507329574044035,0.010323554044132233,0.009020653992456785,0.007740094095396919,0.006675438493344871,0.005841585216614918,0.005141745304155107,0.00454613418009661,0.0037867310879741985,0.0025880657967751208,0.0009278032051780759,-0.0012387282676307064,-0.0033978148597958507,-0.005177201054375763,-0.006152509819677159,-0.005899376527547264,-0.003963644164327855,-0.00044954510166527877,0.0037941764280082246,0.007807100777531989,0.010911716153033593,0.012646433982532457,0.012869784995745471,0.012378407253992174,0.011961478318675254,0.011857247233321997,0.01214760952257397,0.01278044275289871,0.013495176101768907,0.013852540479252062,0.013606853905327359,0.012795331595405206,0.011559442819768721,0.01031610732592704,0.009459918488485397,0.008968540746732102,0.008305920643586588,0.00691368294296827,0.004315335070507236,0.00030985762294482124,-0.004678376594417274,-0.009785731934054135,-0.014498493899085765,-0.018548640354875773,-0.020700282525787667,-0.019419722628727803,-0.014424045092649393,-0.006934249850682429,0.0008980223044323592,0.006749891893685135,0.00909510739279705,0.007740094095396919,0.004010084857529545,-9.217911631576339e-05,-0.0025490704436074573,-0.00206513712310741,0.0013968458456100699,0.0064669763226383545,0.0106436940183972,0.01193170063366226,0.009861953987391932,0.005260865232014862,-0.0002783072422988724,-0.00495384544725886,-0.007507523117077292,-0.007715985287783807,-0.006271634341440804,-0.004529473468859858,-0.0035764975079278167,-0.003971089504361881,-0.005527118713653723,-0.007887223055272136,-0.010612138492578894,-0.013240269562737588,-0.015414247294361177,-0.017208520493886027,-0.01909213593625764,-0.02148201796288905,-0.024162266872676315,-0.02667871554537267,-0.028607002109167664,-0.029619539871591136,-0.029671657711219712,-0.028733573349136503,-0.02668616226357786,-0.023514540205941188,-0.019121918215174526,-0.012845676188132357,-0.003963644164327855,0.007204045232220242,0.018632313720322653,0.02737289576824038,0.03125925117474725,0.02984467791341724,0.024662869173440113,0.017939915932164145,0.011522218416550533,0.006496758601555238,0.0031911208826964784,0.0010245898692780853,-0.000911142953331713,-0.003189351310918169,-0.006003607612900521,-0.008981656342337177,-0.011371542962872473,-0.012652102859932339,-0.012585096177797267,-0.011445991769308845,-0.009875074176900896,-0.008698745365194287,-0.008348823112012438,-0.00866151636807221,-0.009026327463760558,-0.008832754135560538,-0.008036125262048773,-0.006889578729259048,-0.005534565431858917,-0.0041572170331374845,-0.0027426437718074755,-0.0012759540490200603,0.00033963815617822667,0.0021339133770207908,0.00385373731071888,0.005216194110591482,0.005975598580885059,0.0061989495940980716,0.006176614033386382,0.006347856394778601,0.006720109614768251,0.00695835406439165,0.007025360746526721,0.007122149707578675,0.007300829599368308,0.007390171842215068,0.007271051914355314,0.0071072562711682885,0.007137038550085173,0.007352947438996882,0.0075167384882800165,0.007501849645773519,0.007122149707578675,0.006437194043721472,0.005715018570549971,0.00503751421880185,0.004263219527830608,0.0034963715550645593,0.002960322232497495,0.002744413343585786,0.0030496640159538664,0.004091981300951891,0.005513998524144758,0.006645660808331877,0.006802005139409819,0.005990487423391557,0.004709927526331689,0.003451700433641179,0.0023423769258984735,0.0014936325097100792,0.0006374432128780478,-0.0004197646143709122,-0.0016928811467754256,-0.0031744610902405047,-0.005125083214747189,-0.007805327530630568,-0.011252423035012718,-0.015019653919755946,-0.01836251374488095,-0.020648164686159095,-0.021176771425034466,-0.019382498225509616,-0.014960093955826067,-0.007998900858830586,0.0009948089685323687,0.010904269434828398,0.020314913710192943,0.0275739112207417,0.03191442455968757,0.03392461124202802,0.035383855624781406,0.038280013423480384,0.04307467550705748,0.04807038060655923,0.051033540493489384,0.05068362283421143,0.04716951605379031,0.04165265552752227,0.03583800896331652,0.03132625785688232,0.028861922429910654,0.028273755727105398,0.029100162285630157,0.03084232683333422,0.03296418672532923,0.034676568994116405,0.03486269560411123,0.032018655645040826,0.025146800196988218,0.0142247982931456,-0.00015918524718236732,-0.01679159155856911,-0.03369946860629803,-0.04853758063214106,-0.05925111577137327,-0.06468607158519196,-0.06484244807359713,-0.06025621600339933,-0.05196233598190763,-0.04129349493361825,-0.029619539871591136,-0.018049820488821176,-0.00648009651214732,0.005811807531601924,0.019302375947769467,0.03339600450315265,0.04628353574962401,0.05591754941381712,0.06072709115209293,0.059863483159869425,0.05322984000411299,0.041481417760033945,0.026509260212593543,0.010591576178768627,-0.004678376594417274,-0.018563533791286158,-0.030051357649414558,-0.037451810648534756,-0.039432215051958326,-0.03631270624004634,-0.029902455442637917,-0.02284447797849437,-0.01718618493317434,-0.013999669439127276,-0.013471067294155795,-0.015012207201550751,-0.01780412932099258,-0.020968309254327952,-0.023633660133800943,-0.025249253441536168,-0.02586719782935441,-0.0258597557050531,-0.025509833451871255,-0.02478021126049456,-0.023566653451665875,-0.022062742541392993,-0.020543933600805836,-0.019270820421951163,-0.01841463158450952,-0.017819018163499078,-0.01712662037534057,-0.016143869485737868,-0.014893087273690996,-0.013887996229472717,-0.013515738415579175,-0.014014562875537664,-0.015496142819002743,-0.017662673832421136,-0.01985154040655122,-0.021258666949676035,-0.021318226913605912,-0.01968030263906289,-0.016329996095732695,-0.012019269629607598,-0.00781277424883576,-0.004589034810960902,-0.00244483889886381,-0.0008292465099093675,0.0010543703106334129,0.003980304416174217,0.007717758534685228,0.011403093894786887,0.014217351574940407,0.01552769375091716,0.015147993812722315,0.013390945016415648,0.010740478385545264,0.007740094095396919,0.00532042519594474,0.0044493475159966,0.00545443856021488,0.008008116230033313,0.011633891626205093,0.015818056040169132,0.02000966257843447,0.023382304682476356,0.025102129075564836,0.02482666022272325,0.022570786966458097,0.018922671415670736,0.014969309327028791,0.011961478318675254,0.010479898375210175,0.01018954067986209,0.010576687336262129,0.010740478385545264,0.010174647243451705,0.008946205186020411,0.0075167384882800165,0.006295738555150027,0.005409767438791501,0.004605696440978432,0.0038239568693635524,0.0031985662227305045,0.0027667489042974757,0.00244660847064212,0.0023125964845431457,0.002550840015385767,0.0032655724454751863,0.004404676853963609,0.005849031934820111,0.007531631924690403,0.009459918488485397,0.01169345618403886,0.014373700499922239,0.01740386706898747,0.02032235583449425,0.02254100468754121,0.023829011302806277,0.024357618041681645,0.02446929125133621,0.024439513566323217,0.024193822398494623,0.023434422522104932,0.021744375814029448,0.019079020340652567,0.01576593820054056,0.012244393889722033,0.008894087346391837,0.005960709738378563,0.003652719101875224,0.002282816043187818,0.0018435533847207628,0.001888224046753754,0.0017691022813324435,0.0009129129845004121,-0.0009260331740093769,-0.003509491285183135,-0.006092949855747283,-0.00776810312741238,-0.00828926314808256,-0.008185032062729301,-0.008274369711672173,-0.009286907474095647,-0.011378985087173776,-0.013910331790184405,-0.016270436131802818,-0.018064709331327672,-0.019419722628727803,-0.020603498158639606,-0.021913840334616356,-0.02319440023167622,-0.023871904583424343,-0.023782562340577584,-0.02338797355987624,-0.02352198233024249,-0.024445182443723092,-0.02539070893010761,-0.02491422003086081,-0.02150435811750463,-0.01420068948553249,-0.003129789968817124,0.0099438495120335,0.02204962694578792,0.030618971226217317,0.03458722675126965,0.03457233331485926,0.03202610236324602,0.02822908460568202,0.024111926873853055,0.02010645153948643,0.016301987063717233,0.012676211667545451,0.009608820695262036,0.007680529537563151,0.0073082763175735,0.008328256204298279,0.010390556132363414,0.012944238396085734,0.01551280490841066,0.017522991590751113,0.01860997815961096,0.0185206359167642,0.017009273694382238,0.014142902768504032,0.010680918421615386,0.007539074048991706,0.005201305268084985,0.003682499543230552,0.00244660847064212,0.0010171445292440587,-0.0006282283010657114,-0.002169369127241446,-0.0030925646468181593,-0.0034350401817948165,-0.003941308603616164,-0.005288874264030324,-0.0075149698352824845,-0.009845291897984013,-0.011297094156436097,-0.011550227448565993,-0.011140745231454266,-0.011066291831114003,-0.011639569691412756,-0.012510647371360895,-0.012957353991690809,-0.012376634007090753,-0.0108206052571893,-0.008959320781625486,-0.007440516434942221,-0.006554545318583694,-0.00645776095143563,-0.007127823178882446,-0.008319040833095554,-0.009651718569783994,-0.010761045293259422,-0.011364096244667278,-0.011378985087173776,-0.010761045293259422,-0.009770838497643748,-0.008587067561635835,-0.007522411959583788,-0.006599216440007075,-0.005594125395788794,-0.004313565039338538,-0.0029213264199394414,-0.0019609055783637633,-0.001975795799041427,-0.0029213264199394414,-0.004328455260016201,-0.005668578796129058,-0.006792789768207094,-0.00783510980954745,-0.008877425256983918,-0.009741060812630754,-0.01027710967580743,-0.010232438554384049,-0.009577269763347619,-0.00861684524664883,-0.007611754202430549,-0.0066438875614304544,-0.00563135439291087,-0.00435823524198114,-0.0027054179904181215,-0.0008218011698753413,0.0007937907596887125,0.0018956693867877804,0.0025285049140644656,0.003079443997918805,0.003980304416174217,0.005476774120926571,0.007248716353643624,0.008908976188898335,0.01018954067986209,0.011142513884451798,0.011760462866173932,0.012184833925792157,0.012929344959675347,0.014507713864192381,0.016986942727574436,0.01976397141060588,0.02194539586043466,0.02254100468754121,0.021290222475494343,0.018818440330317477,0.01598929380765746,0.013465393822852023,0.011216967284792063,0.008730296297108702,0.005581005206279829,0.0017095413986217883,-0.002511844662218103,-0.0060184964554070184,-0.008058460822760464
