-0.16329090057723417,-0.1241017995258059,-0.09746874739722382,-0.0825649210077571,-0.07611903489195643,-0.07240934875618231,-0.06214258092492656,-0.03297653023361389,0.034163484553215176,0.16556105225825282,0.3340559445564661,0.3692450974433678,0.3178069906846372,0.25486834339120895,0.19504856763537304,0.14028094694414533,0.0888482359508309,0.0444813915969088,0.014412498509536523,-0.0010030083342554325,-0.00043890996702820103,0.015654537250120597,0.05089801989896366,0.11572415070979955,0.23166933288221644,0.4309336527889044,0.6268634161560354,0.6375522708948613,0.57565398089986,0.5257775845818057,0.48921741465775465,0.4460669437742716,0.3787123107402012,0.2899997045047637,0.1790226730563293,0.059381214207514854,-0.03703175118893426,-0.08433689224879541,-0.0819790062803875,-0.04939562388090918,-0.012729035343553923,0.006943110622008976,0.00366287526091272,-0.015737984175631225,-0.0420556033145773,-0.06546968141228288,-0.0774459643991736,-0.07137053067839065,-0.04108751533730391,0.014085838012393898,0.08133160003084765,0.12731370922941515,0.14131249821814953,0.13318658945899323,0.11067471764000264,0.07822140183730093,0.041523194964805984,0.005859471921559251,-0.027793224045399367,-0.06125093705129646,-0.09834534212191821,-0.12111255988471888,-0.08729227052732569,-0.05130219453192631,-0.03421075988808284,-0.027347388641685542,-0.024497584560571974,-0.02381223758912334,-0.02518715665884426,-0.028070824145679994,-0.031108749718974787,-0.033789533998528236,-0.03705113555836696,-0.05208874707476239,-0.11658209547989036,-0.22138338258716317,-0.2849381887213137,-0.3099643607386406,-0.287542787724562,-0.20793574857364935,-0.08421764513189586,0.04026237945839565,0.13230399459645006,0.17797014835881655,0.18084362051862612,0.15266770611311256,0.10633516361304758,0.058580233200843185,0.02323337320007389,0.0076745624658390525,0.006714646765399419,0.013157667795248473,0.02602484453217276,0.04107840951050611,0.051122897902552304,0.054674439590992795,0.051786442432117,0.04800852575188707,0.03610330442466823,0.006961233509447254,-0.0350258618868689,-0.08059876578998224,-0.12113101796379609,-0.1364561574810746,-0.11909645418108047,-0.08703275073177207,-0.051333046040511095,-0.012945060228344112,0.03421728306917936,0.09877885607887654,0.11943216963412104,0.049300620976541115,-0.017103390678582815,-0.0769019803115583,-0.14115208647756905,-0.20952145258662577,-0.2559269617028818,-0.256323983883574,-0.2553674637149336,-0.2996963878599645,-0.368990099831194,-0.41257688938191567,-0.38711761821277246,-0.3114362558769726,-0.2364620987304393,-0.185117408364753,-0.15956698505745096,-0.14924613430680278,-0.1429368976263909,-0.1336875540474847,-0.125481740900029,-0.1241605398993929,-0.13520167612506923,-0.16420204850058143,-0.21560921802353175,-0.2680126499952434,-0.2715060072215993,-0.22125063876659096,-0.1397921133465938,-0.05058490863430105,0.012668624535467417,0.046036088648816954,0.06140325760552976,0.06597365757584182,0.06514855930479714,0.06171318049301777,0.05734076474035502,0.05393611208940507,0.061639530195460486,0.09713350198550523,0.17216418420783913,0.2831708364181886,0.3758661208114972,0.41592635157137237,0.4215854842399053,0.4198989265021187,0.41736437102130997,0.4094276803298972,0.3998805430415082,0.4110105351363155,0.44876204969257955,0.5000368869915147,0.5472314556115391,0.5703560129315024,0.5746529309908628,0.5814856322067301,0.6150175368342816,0.6824196473236726,0.7511618456081699,0.7980423882929272,0.8261362527194718,0.8405346187617007,0.8373712871920387,0.8068605372297398,0.751854141870003,0.688472793702206,0.6306675649788194,0.5789603145349111,0.5106549198553215,0.38886266287771826,0.21463618535013257,0.0632528062478076,-0.024149399743719244,-0.06527271955046426,-0.08717276450515449,-0.10239554919061927,-0.1150351624885724,-0.1291229772212078,-0.14951135646301048,-0.1798484828104375,-0.22063749637771832,-0.2696697690534865,-0.31144513952845376,-0.33034755073173594,-0.33062906817507354,-0.3309293920992593,-0.33086089191480517,-0.31701122409471677,-0.2931896051862643,-0.2661447659960878,-0.23964141943998557,-0.21618743770097265,-0.2024784352007813,-0.20673410789243893,-0.2317624717623262,-0.27953939072372913,-0.3386229395637958,-0.38138068892063953,-0.39969992872184895,-0.4130376116384615,-0.43850402587797865,-0.4857970767243012,-0.5249051389448123,-0.4640776021282149,-0.35764177546783493,-0.28242296083908514,-0.23376141259359115,-0.19259527537503696,-0.12061749898673164,0.06736489724713408,0.23671722732881215,0.2366812184890701,0.202014415254467,0.1538848061663727,0.10357035120990632,0.06070529193765622,0.03326627395315638,0.02180105537948104,0.018394515091002192,0.021591905890380902,0.024657351166904665,0.02888101488355315,0.05159933515475994,0.1055657203254902,0.18930070088596554,0.2892734095037358,0.3937013872351378,0.502797823096106,0.6138255659396608,0.7027426602458654,0.7512989057257617,0.7658801298507922,0.7611464610034901,0.7475961145113826,0.7259913170468663,0.6899526826759109,0.630349988752633,0.5347462363952677,0.39000533452527014,0.20802212949681326,0.03594402837525438,-0.08802883397715366,-0.1623925407891505,-0.2031444206152157,-0.22728358069649343,-0.2411113435265374,-0.24517192086437242,-0.22720510843449807,-0.15926867881662404,-0.056019514496392316,-0.012879874843185549,-0.00727476915513697,0.015091390561361696,0.05896011937872333,0.1100958134901035,0.14694341144769918,0.15168934027322878,0.11805975848006221,0.0537542974165529,-0.01447370620155841,-0.0627978226195762,-0.07380706562324418,-0.042564948448895884,-0.014097812722945687,-0.021503999600103667,-0.07729652730490283,-0.17269839760386466,-0.21146654958783634,-0.19743263415408452,-0.18191840425233924,-0.17500608412222343,-0.17477248047355498,-0.17894048033005847,-0.18203495070501607,-0.1690854418786659,-0.12839525830604728,-0.02487160889385359,0.11723313078915783,0.1631003058590609,0.1603174756765078,0.13687656776665758,0.0978604359222395,0.048501550559784425,-0.005114444140288105,-0.05647881723557112,-0.10197206881861934,-0.1403223497465225,-0.17232793025905696,-0.19709858025400817,-0.2078819024319585,-0.19718433397937157,-0.16292369760589948,-0.12198490646706742,-0.10575581416080428,-0.13494699421320183,-0.1860272029192085,-0.20418310184459443,-0.18129843946632526,-0.12832006431803286,-0.056440928583895454,0.01393874773466515,0.06585987061713197,0.08115353668962128,0.05982832519552027,0.0182754617515378,-0.02470055479020585,-0.04365296646141594,-0.021002858710240716,0.03438936162954759,0.11378596771873847,0.21516208186295674,0.33108282837034936,0.44535974525901745,0.5397834532001341,0.6031044709253194,0.6004119133554691,0.521940224244165,0.42772709455428815,0.3583962815317543,0.3120455197956886,0.2745907907498947,0.23507685297854072,0.18926235409249295,0.1418434475544972,0.105593240897177,0.08509200097358657,0.07825935021207941,0.06775151220350882,0.04001597303213944,-0.008164011193801276,-0.08050087850849304,-0.16392908956451024,-0.23144677478589845,-0.2573689766222169,-0.255936685850157,-0.246139943727367,-0.237057606885983,-0.22703314803107197,-0.21093695231419643,-0.1910322225822271,-0.17513720256363252,-0.16849520748015245,-0.17326306819810236,-0.19570505826697313,-0.23194585464580716,-0.18960903304715532,-0.08303387897872569,-0.012800377487406185,0.03785279279786385,0.0715893057737556,0.08425711486529816,0.0758985311830905,0.05535654021762795,0.03191884906337111,0.01581240834487,0.016715604499915004,0.041427872931739065,0.05747753040681768,0.046887216463926,0.03312291091542511,0.024264503983978968,0.019317737043665538,0.01530981025483027,0.008328122410267385,-0.004158015278146083,-0.02336242710983572,-0.045891407193176206,-0.04791553767130566,0.06960656092780437,0.4141321114508718,0.5975200513843478,0.6188055940776493,0.5865425022739376,0.5150074656057588,0.41684555383511773,0.3100039507932283,0.21120046930867467,0.12726212259396535,0.05660744218916477,-0.0019654964079259905,-0.06101976702018818,-0.13092409832454108,-0.14317647638207995,-0.09051455768727093,-0.046500915778851404,-0.016325026471601754,0.004526687674615438,0.01774727086955604,0.012798936410082359,-0.04214675786673553,-0.10062659493962957,-0.13152863277119256,-0.14989288503715587,-0.15576712063536888,-0.1446207266110734,-0.12553173769612241,-0.12082160870322249,-0.13877595579194493,-0.15880138708828265,-0.16487017927320796,-0.15848144417620474,-0.14676497708240446,-0.1340656739516966,-0.11648438989479973,-0.09130774122648254,-0.06219018111708278,-0.04022170168941382,-0.03220572616746714,-0.02801922254738362,-0.012782411398483172,0.019463900816957383,0.05631699301961282,0.08763479321797146,0.11148149906314293,0.12981332071126178,0.14599351071985012,0.1586117187371749,0.16323581940927304,0.15957492093315143,0.15040020432136336,0.1372392198331506,0.12165364922509007,0.1017606408958204,0.0731868832234752,0.01961074306770993,-0.08835087736976951,-0.2567848299864878,-0.40195991735105613,-0.4569462415993695,-0.449135025748612,-0.4165949062729324,-0.3784133714693108,-0.33924829958028296,-0.3025624744087581,-0.2663651893276941,-0.22924836087075898,-0.1877761519347481,-0.14410887316226,-0.10610050389917951,-0.08339991877155206,-0.07360577780705893,-0.06898330732856942,-0.06673364932140861,-0.06604185749293393,-0.06786093778814703,-0.0791192987094087,-0.11337781967703717,-0.1779146486079878,-0.24537190896874247,-0.3281458894021311,-0.43667953036512913,-0.5229963264196572,-0.5145653177053022,-0.38982043948953415,-0.18400382170886592,0.030719413034300962,0.20165287209989582,0.32347453106192864,0.41040894693634616,0.4674878263257235,0.49409444042668266,0.49341399724870216,0.4740744749596691,0.44951673571442685,0.4201037084721908,0.38796086931588053,0.36045607655802786,0.34130944297785953,0.3285030100518952,0.3113705202497952,0.28497179448207965,0.25275995343852836,0.22065614274167164,0.18963123896300535,0.16428171199600303,0.16836982201265505,0.2188439483122024,0.3072527032528794,0.40982549690129566,0.5117045499584598,0.6061682832397012,0.6890117282318003,0.7537864243595006,0.8028580868812787,0.8407046577196051,0.8661726271358865,0.8781608643903096,0.8856669968099476,0.8924208637147685,0.8939410935177576,0.8805221369879143,0.8330349340479424,0.7275149807041484,0.5499787190324598,0.3121434499615874,0.058562474461783,-0.1522299844067919,-0.2789252128360443,-0.3010231685026777,-0.21863153759820156,-0.06161359079269782,0.09431923575476045,0.16017842143468924,0.0318304723951255,-0.25941290041963855,-0.4201244785554014,-0.4996502099423236,-0.5502322575600432,-0.5990532457943162,-0.6639888660215603,-0.7340100864858737,-0.6888213907196675,-0.47300851515658315,-0.304759395707829,-0.23173112203941998,-0.2171559880910941,-0.2377079257931034,-0.28038999170623236,-0.3408433746307017,-0.40959016992039715,-0.09952659173956697,0.0969975251500171,0.15523133488735752,0.17649476658625146,0.17514431407414277,0.14738117798829645,0.06740018365195569,-0.06646328692321686,-0.1979871683822971,-0.30993607210073176,-0.4187259212750067,-0.5365866330239323,-0.655741109484082,-0.7341575854315099,-0.7458798503845421,-0.7123732080577575,-0.6387499223375637,-0.49913075258982936,-0.3015296308576124,-0.11580357061024854,0.01565360323667093,0.09671085734409618,0.14255118424153257,0.16470526345075753,0.17072858807400332,0.16004241187482304,0.12503441781159466,0.0730754833017005,0.0593589977435309,0.08996343540799946,0.1367853246395828,0.1742716123196098,0.1907010093484844,0.17789968247142632,0.13563790805665069,0.08566126398826875,0.05310313392472575,0.049163631221374425,0.07069039096329269,0.10292038351937328,0.13048420401507838,0.14923892361459176,0.1652807306560204,0.18645859318023783,0.2172846125397492,0.2408083518274233,0.19970972949572594,0.10443511338454059,0.022905310721959386,-0.034894781774521495,-0.07878100679417563,-0.1177711123650049,-0.1633855201544667,-0.22677062263913,-0.30420016747416856,-0.34339195299748626,-0.31034770612697066,-0.25135300174611674,-0.1892798623083704,-0.12444306810412172,-0.05368401178632768,0.016956473024324764,0.07877714608402314,0.12653695859561603,0.16160055612305538,0.18751996241885308,0.21278324548343133,0.23993808297122174,0.2674511690920517,0.28010834410143337,0.2593505584197172,0.2170095560501489,0.17756411622781318,0.1610800003889237,0.18911048155602578,0.26682011570285047,0.3416564596271656,0.3315111359458853,0.2487178452320601,0.1388931572264769,0.0146460484269819,-0.11032974800759801,-0.1819566862206016,-0.1916255705147794,-0.1776540130708851,-0.15832780693508455,-0.14324330240510408,-0.1357784439292392,-0.12697768490980885,-0.09606070974093892,0.012017065533223148,0.2650325862163401,0.5953976316294286,0.7925409030356492,0.864124652812206,0.8827151614273087,0.8709709882766115,0.8202599451695161,0.6641724119019627,0.20244773790997883,-0.3797070248222707,-0.6662225092669493,-0.7854794364652126,-0.829539933652273,-0.8244092679045886,-0.7810473519143997,-0.6997224400722942,-0.5793778132992786,-0.41487714401391734,-0.19501161730980007,0.04873726948168669,0.18497946549693314,0.21928983669248883,0.21292251267350149,0.1974856506264177,0.18500161550535318,0.19120608912013906,0.23390723120624274,0.31955201687698853,0.42841458407584143,0.5049564306284231,0.5138299524326103,0.47900889615799025,0.4537428971385345,0.46498801471143386,0.5088289258137639,0.5321420962655873,0.4688444069986689,0.36674968503979877,0.2834657167201107,0.2255896442893352,0.1843695196153315,0.1473814328842428,0.11025568852666626,0.07742166068086416,0.05203888224234325,0.03474078128887071,0.02536507266378552,0.02551576047142904,0.035327261382498386,0.05062746685744815,0.06690537690995446,0.07004309036492563,0.010888026548383018,-0.14350701900237042,-0.2782419603400522,-0.37863221282989545,-0.4603400052099052,-0.5104205588034672,-0.5254666456985432,-0.48294613670173125,-0.3793600346737188,-0.2755895652198911,-0.21096738659634454,-0.17731258186722434,-0.15944127164580496,-0.15492793287855328,-0.16330204019027558,-0.18556634577182118,-0.21459796535663755,-0.24553929174219605,-0.2666311936884638,-0.27055506276721164,-0.26093026931757435,-0.25523407754447325,-0.27147988116959804,-0.31155855539240196,-0.35385943639078715,-0.373650631632729,-0.36030375712289636,-0.335362811915524,-0.3103200180450538,-0.28927276880115027,-0.27132826704519764,-0.24565499472051483,-0.2050991234691147,-0.1457547514160118,-0.07288180248578656,-0.014888776327063778,-0.0024816685692011556,-0.039114368506058116,-0.10453051183804225,-0.16306543776330923,-0.19516314918542757,-0.19362484345962605,-0.17379235673292553,-0.16233727894392463,-0.15993206747000757,-0.14129176778009914,-0.0732917297646254,0.032128728876784654,0.13300043811909337,0.20894644881908078,0.24846758295711058,0.25307792919168537,0.22908139976608144,0.18566976960917106,0.13627626262867806,0.09191603489960307,0.058849102365259504,0.04192910014194911,0.04530179495001817,0.08134485174229217,0.2101796276802909,0.21238814424548738,0.09576774970826216,0.04991107544785725,0.02396746949930701,0.007877825739304201,-0.0014703167609220794,-0.004776228732149209,-0.0030457802817831655,0.004251868255031477,0.017947866467479923,0.034917202259989136,0.04091216477030762,0.017653203846768783,-0.017003972023391097,-0.043679431621820676,-0.06091308380048519,-0.06663827858842622,-0.0598755980827769,-0.03606800368234671,0.018447920791111395,0.15181041525325903,0.418236778117959,0.5258064975416179,0.5203801754764357,0.5391865944980122,0.5815381121349941,0.6272834189318298,0.646014403709126,0.6024468853620276,0.4820144656881901,0.3202433654445241,0.16837809506166773,0.06001508972462601,-0.008005083308141047,-0.05127871573548704,-0.08279728928498489,-0.1191074211501668,-0.19260525525764,-0.2582595371304734,-0.19697205803867524,-0.16749250007571753,-0.1759902293317937,-0.22549585059642852,-0.3268802048948264,-0.39947011913074987,-0.34660966302152324,-0.2919202266843913,-0.2623517672612708,-0.24693937828204657,-0.2308429328771336,-0.20024938945783172,-0.16592020399382645,-0.16051472272526168,-0.18238864838226015,-0.21332347776824065,-0.23630923454146072,-0.24503094266868922,-0.24008315046682208,-0.22759168750839173,-0.21613312567824186,-0.20381462729461491,-0.18651289642415667,-0.16497439114423368,-0.1447500173032254,-0.12679152253093132,-0.10677330630809585,-0.07723676356870125,-0.026334411273499142,0.03517523725844552,0.06247813386003043,0.04580469288550092,0.0103593986944404,-0.014271907346788761,-0.015143169549099979,0.004307230049017355,0.02779771832810577,0.0487937432681748,0.05646525350753197,0.04598997410137735,0.023304678216500382,0.007753079418592352,0.002474266327570545,-0.009267701624509015,-0.04027258145388418,-0.0824821685204791,-0.10317799491348827,-0.05349699613644634,0.11720917447191889,0.40510748121963486,0.6369253839430337,0.7254288887289732,0.7319846415420032,0.6932331276510463,0.6094679718348728,0.48040842433326225,0.35181901140603633,0.2763658085962054,0.260654076035294,0.28225763524896513,0.31268073506209093,0.32998915393585604,0.3196994587673701,0.27392886222193585,0.19051468383999803,0.08302683250072111,-0.013682415169597515,-0.05590627857441586,-0.034381493085177316,-0.0035776615855234294,0.000202224251755629,-0.017079545660537383,-0.04595565570896013,-0.09020845889903,-0.15277979009981868,-0.23013789267492882,-0.31373467643744474,-0.389351493152465,-0.43757761979538706,-0.4542562218490375,-0.4531847555189563,-0.45458784693305015,-0.44909582127533704,-0.38084729424144453,-0.2845294049190825,-0.21932113640511652,-0.17647309822690424,-0.1379348917915112,-0.09577904107927657,-0.04927906412397215,-0.00372236890487839,0.03501586732002423,0.055556247647842644,0.03161582184319876,-0.04410293706914273,-0.09084082567363197,-0.09912979462522273,-0.0841162557785158,-0.051986775036885875,-0.004299020657212972,0.05178358357727953,0.0977669872373804,0.1259580446752388,0.14219678346255052,0.1514666682723632,0.1544925883399042,0.150364048305279,0.13968355932549884,0.1284867340415002,0.12753088130489482,0.15465440551534362,0.2664560725623775,0.3073361401619774,0.11640610120721015,0.055192016484302754,0.03949339000685924,0.0428607677737784,0.05626853544642024,0.07658924388197921,0.1030424164650469,0.13643315564438596,0.17519401540323348,0.21185249851017737,0.22256971478208423,0.20404495956215338,0.14961343296735655,0.07337517149995629,0.017496235997909632,0.008634456363366554,0.03885447216615773,0.08912509514311702,0.14780316220473072,0.20358354136287415,0.24281149412056305,0.25455221142605455,0.2352694305711786,0.19132596169548896,0.1449801608991803,0.1208540142372131,0.13992982674052915,0.20877527977339824,0.31955786702424716,0.4464892916310992,0.5443606073788619,0.5973048381682172,0.6097310978881867,0.5938446600118659,0.5620306615021361,0.5218202210540419,0.46837848410395794,0.3752938434506847,0.2446249738659235,0.09425984492604812,-0.08289966594958274,-0.27623401639445194,-0.4264360497012569,-0.5214298548711368,-0.5849181486505128,-0.6228953805349384,-0.6355994095996125,-0.635638358423223,-0.6431781653682361,-0.662257359895676,-0.6727744935598488,-0.6401379441731767,-0.5537896110464237,-0.4414475446621913,-0.3501958769091542,-0.30241048706663154,-0.2815864040527188,-0.27665856136235356,-0.28937379432831173,-0.30990028460404745,-0.3244260177161771,-0.3264087180297904,-0.316540945484273,-0.29877617573232007,-0.2842388822331686,-0.28311784422575076,-0.2995439164509527,-0.33447991947423583,-0.3890975036397755,-0.4517521654486234,-0.5069909555167744,-0.5379710679175648,-0.47377714837129153,-0.28788689232093545,-0.12464842161630539,-0.014151591040140375,0.06971582474425424,0.14344547896276166,0.21522658754319696,0.2984542920096527,0.40425396887785797,0.528985854899482,0.6497338044118448,0.7449530854367733,0.8018135787639282,0.8106500902716853,0.758313913099726,0.6477949371898419,0.524930245040786,0.4237363405927262,0.3407003235575509,0.26142060491776575,0.1802371264495121,0.09796311272171823,0.023958372909757504,-0.034857101521019056,-0.07382287965585886,-0.09298797963084755,-0.09878925757860194,-0.09734266181688371,-0.09663918018752293,-0.10916017110488985,-0.14620748865643476,-0.161609895744695,-0.14096825660726897,-0.1355581942218606,-0.1455126769404173,-0.1575815080911634,-0.16460778737809809,-0.16595820023250243,-0.17367629153340147,-0.20110874695270656,-0.2541949942845014,-0.3221294530758288,-0.3810317994591499,-0.4279273352487602,-0.4904603922669436,-0.5760370326077476,-0.6586557680906636,-0.7103409927853627,-0.7302816843539164,-0.7287625746195541,-0.7157586086311152,-0.6997495134076736,-0.6842763883210957,-0.6636619229885766,-0.6152589630293456,-0.4782642213612795,-0.146142005383924,0.3621014211502972,0.688604308631827,0.8020846437316631,0.8186966104727652,0.7838236154794133,0.7092402268758256,0.60960297374643,0.5123982285349764,0.4551584729925251,0.45729602985260387,0.4758240220968469,0.40135642284974343,0.31032722427334186,0.25574806911618075,0.22056400732382345,0.19750309169727973,0.1796687553709754,0.15506662461901966,0.1120015227781354,0.06477008522660781,0.021059274541843958,-0.008420380304226562,-0.0081855169524458,0.02320513794969989,0.07077547884349272,0.12710234923607927,0.19116210577010762,0.25610490029792177,0.30776356944621097,0.3281148418213637,0.31345733091717126,0.2820903889589632,0.24786609468014403,0.2056262080825815,0.16298365731945125,0.12449471809204664,0.08433953063824004,0.04582128780849841,0.013159708988728118,-0.013796154198488404,-0.03635537100531697,-0.04981669315161185,-0.05368614931696554,-0.05591336557634588,-0.06505717326764267,-0.0853342671440633,-0.10457675263579623,-0.10671618730553495,-0.10604872549389358,-0.10919900185710936,-0.10451948603917863,-0.07275107957348756,-0.010185741704804716,0.06629864727709456,0.14570895254917585,0.24367933281687235,0.3330668355993328,0.21843935594985195,0.12425550752565688,0.08436046478677349,0.07158534489780591,0.07757442377097036,0.09257348096079487,0.0964254414686327,0.07963258486320966,0.04879375518368168,0.015187258201249198,-0.01237453976684422,-0.027828550502792183,-0.02958379145309981,-0.025491603252510566,-0.02559786126557076,-0.038420153183420624,-0.07035561973940688,-0.1273388847144663,-0.23346944694971364,-0.505693311746581,-0.18216471633139888,-0.049963757880751296,-0.01715411480193881,-0.011169285632939811,-0.016425430210939673,-0.02760276414388765,-0.04386776096104674,-0.06763967038336412,-0.10086018662437841,-0.14069883164152988,-0.17198291458241857,-0.18219913604560006,-0.17358610936534388,-0.1581939955394524,-0.1445672354851167,-0.12296516622518515,-0.07701791412561275,-0.011443937042035522,0.04433918608885238,0.06742703193155693,0.06156107361327401,0.04791791368928516,0.03767217866751797,0.04223951529740427,0.06262734090324514,0.08358779945730115,0.09572248346131118,0.09609963944590165,0.09202752602876077,0.10596709720644176,0.1545236665127726,0.2243024916758826,0.2874562321491764,0.3328478437553996,0.3599272495648813,0.3703801870774091,0.3681936125665571,0.3456090783960628,0.3025980646891057,0.24887763807171454,0.19380606356211488,0.13812130871651387,0.07586569316850585,0.009320906462289837,-0.04820559639116004,-0.09288187956936701,-0.1274666128909768,-0.1459981749055253,-0.13192096447198084,-0.08224805325783205,-0.030275614588956275,0.005188323660603557,0.02756666653726563,0.04265489508250433,0.044485408161417495,0.02080321153281392,-0.042379596751006034,-0.15485376144639468,-0.19652202102268812,-0.1337476279749727,-0.08345920109278968,-0.05850432938738126,-0.05438964618449593,-0.07235311589819757,-0.11420528112859081,-0.1648952677042953,-0.17734247633399267,-0.16138256700849035,-0.14567145851512275,-0.13388157101629067,-0.12047052431162854,-0.09999337891460858,-0.06906440242227917,-0.02418750350015316,0.03310294417198404,0.0968444014035121,0.16459073192712506,0.2305406409099083,0.2855601008514197,0.32946993681110087,0.35914650050403096,0.3938459088495218,0.451638697963604,0.5256511932124435,0.6067728833009091,0.6851183578922605,0.7356500923766686,0.756448901418662,0.8076943558804254,0.7499371593862773,0.3547605995169214,0.1174612955490349,-0.001273648268949768,-0.08143976369298526,-0.14986967198826007,-0.21130383604229105,-0.2530090388052204,-0.2598007873526934,-0.2383484814705772,-0.21105157065039945,-0.190294434697608,-0.18155445434394735,-0.190566622966818,-0.2106725658569639,-0.21740164889654706,-0.1869107091247556,-0.1266146653089839,-0.044865925879768266,0.05105856680725322,0.15454660968452416,0.23212339887008385,0.23126124559522765,0.1689527129519893,0.08862015172679936,0.03341730636963334,0.046269153342318535,0.14005300982209354,0.25391781739808994,0.3049478504482234,0.23710267233122206,0.058242108249369054,-0.12065592434164941,-0.2289578379704106,-0.2637701153417005,-0.22366957647402652,-0.11326424716897852,0.003456325325069655,0.04988827220566339,0.01486921911317297,-0.06267790903390304,-0.1645304132599931,-0.25845380482999925,-0.31127484923085924,-0.3164284477160979,-0.3155138257447235,-0.3255249017279356,-0.3383988496757969,-0.3366037983214168,-0.3109829255711908,-0.2432746323789729,-0.15789183683259903,-0.11399470522757284,-0.13367368606500732,-0.15652161366451173,-0.16725835152312504,-0.1588520040605017,-0.13831287642674556,-0.11526703111185546,-0.10615850170440623,-0.1450892372044647,-0.2825924376303162,-0.4916920549028963,-0.6642692543712917,-0.7371099318121177,-0.70102290887704,-0.6012595329553087,-0.5056059538871703,-0.4404939643028415,-0.39658561048561963,-0.35614707826707714,-0.3104511059396033,-0.26729633027098165,-0.23611790255456852,-0.2095307511515394,-0.1884037412000959,-0.18095615892870087,-0.19332777829580391,-0.21741090355757534,-0.2360731244895087,-0.23496330558147,-0.19905700817435548,-0.1261508876266405,-0.024532820863493128,0.09625314266485271,0.22476273028897203,0.333015780289806,0.40021134373953093,0.4283825062444375,0.43057925856960927,0.41190809999977324,0.37840793215247426,0.3448296594289946,0.32665555073407126,0.3348135059463395,0.3721703677891207,0.437712654389813,0.5199034850529475,0.5807242317609184,0.5853610061627662,0.5633303187002593,0.5472684973858486,0.5391165116767994,0.5398989150110489,0.5405089341606956,0.5356179932352199,0.524480726233987,0.5039140109662654,0.47400384999094936,0.4394693543865645,0.40198359557946384,0.3602829032957748,0.308643911541732,0.2402802731523872,0.1547163452362581,0.06460373899014389,0.0018025071788678657,-0.006537119924257367,0.025608915850913478,0.05907100769977125,0.08366762685206207,0.104684060375408,0.12458064192443201,0.1264281277521553,0.08499657661454876,-0.010579660401259395,-0.1383652892706878,-0.25808155759810847,-0.32107978413766136,-0.30833056980695256,-0.2259293276771868,-0.09399012444716527,0.028886009352624167,0.050071993712673436,-0.04666464657706862,-0.20221414941867571,-0.3555237503882858,-0.4790415202918727,-0.573660450182272,-0.6421078868106541,-0.6642528229395513,-0.6181791557114772,-0.5348127718033234,-0.42046383450070024,-0.29105890517981564,-0.21837486036887188,-0.20659371937956816,-0.24514245011073932,-0.36957917339019836,-0.6742776375658776,-0.5939200831527177,-0.4690277417489859,-0.3732947439900513,-0.2715972377163582,-0.19120860164356018,-0.11906995980883346,-0.037821180338334266,0.060204466215417377,0.16001310264817706,0.22800302519946744,0.25643784781836326,0.26076629535558227,0.25043471963431246,0.2099735760152102,0.07695596990597899,-0.01941318977275771,-0.04625326144707538,-0.046643930070607104,-0.036546206657025564,-0.02294412615538046,-0.010141337781254475,-0.001524825751941026,0.0019312776445507857,-0.00043969746113171594,-0.010023626621202666,-0.03148725343776543,-0.06369011357222372,-0.09906559472472896,-0.1335069873487439,-0.1674154169314916,-0.2037804714363224,-0.24223644134487166,0.04944610218341211,0.2214211817396851,0.28707131567955885,0.34208504943552503,0.39068922240554005,0.42928287527525877,0.4480922206602403,0.43749862288342306,0.3847155752378634,0.26784026565057056,0.07361686517866846,-0.14042986539938768,-0.30089000185015685,-0.39347353002925695,-0.4395838348333918,-0.4427530089024547,-0.4059286149828232,-0.3371606154206571,-0.2536787678425339,-0.1631955580934621,-0.07567087001629695,0.0040638235342159625,0.09194696012777433,0.21437940694847782,0.3822195495626264,0.5478123736638106,0.6647977320491423,0.7305034173642584,0.7609836372311015,0.7635644534621331,0.7367557420092101,0.6678305984773774,0.5274845642846612,0.290331026219079,0.033468806596405255,-0.1315893565357282,-0.19623318701393275,-0.20011037732286593,-0.1770304953468213,-0.1448682352496102,-0.10971272587598864,-0.07681312605847451,-0.05515668880124552,-0.050575828912280046,-0.0697960543168308,-0.12182848967210591,-0.22689567242306188,-0.43442251554972156,-0.745365484912927,-0.676026881663439,-0.4327801356469884,-0.2745876981713801,-0.17986133889464,-0.12306444065817508,-0.0873453006658778,-0.06558636172575522,-0.053273516672337574,-0.04884435826643419,-0.05304830909182711,-0.06467014550180424,-0.08015636044100784,-0.09518220180966272,-0.10180878832434796,-0.09249261158916411,-0.06322222202792895,-0.010926550206416485,0.10529936643990204,0.1385877412654625,0.06779313884640807,0.043405788147996775,0.03504025915237066,0.040942583562873454,0.0628964355461857,0.09851529572478006,0.13058826849721197,0.13854469041246958,0.11749683102093496,0.07769782616773903,0.03740642945013416,0.018145951462958883,0.029246636791136735,0.06751161555895872,0.12400087195603933,0.1793705175575373,0.2236472514332235,0.2609012939052019,0.29911453583905784,0.33125370458357,0.33042069706275956,0.2942962101809721,0.25459723320487415,0.23170150357456434,0.2281642425928369,0.2419802126411933,0.28053326596680606,0.34946429327779976,0.07840167992852609,-0.03111209021854743,-0.049999529351838705,-0.046229854084400474,-0.03381058944077838,-0.015596161342793152,0.009174053782819278,0.04299446170603951,0.09258283391444706,0.16860969928442454,0.25080550304534216,0.15442788614053451,-0.0586261383534621,-0.16651589218132934,-0.18627237256182785,-0.1597322734612657,-0.11021423947701144,-0.06692486060736932,-0.04193971176868527,-0.03959493726725604,-0.05318036352687187,-0.08098439191629256,-0.11512949995648997,-0.143441792571307,-0.15868498453277075,-0.16209097725593613,-0.15636375615780912,-0.14480921081617282,-0.14150254884294797,-0.1610364841669523,-0.20943554090725056,-0.2738088850751087,-0.32260459142674613,-0.3394390325994457,-0.32320097004049153,-0.28328446944238284,-0.23475723020392406,-0.19085792030621232,-0.1535804114724045,-0.11892893780533449,-0.07955082030865807,-0.03681475300730907,0.00174387559196873,0.02775773897621929,0.03278418989647789,0.023298769754277252,0.010003349840189671,0.001362424214313505,0.006641865763236935,0.02320003443502837,0.04813852997696001,0.07809872415253667,0.104939064658879,0.1115528936822415,0.09349294292641161,0.07388916689803246,0.06195040305929918,0.05611489813645516,0.05376155676448616,0.05359456440705406,0.05793452328586074,0.0786357753738811,0.14757341372919613,0.2933215769605158,0.41613123910373623,0.47113454588876696,0.46969640077325053,0.4208348281886267,0.3606553459990743,0.31773127477925983,0.3021845215364629,0.31286577202667093,0.3432083966735122,0.39183027645615176,0.4629077495924949,0.5579693112886648,0.658500386579987,0.724997747672248,0.7244416071167405,0.659443249104706,0.5618643719708974,0.466295588357655,0.3829560246489969,0.3116458070095301,0.253897986749643,0.21235141591658835,0.1787147339254786,0.13966093748066855,0.08730823698431292,0.023545468841353705,-0.04889119331936459,-0.11644991938936712,-0.16590293165686382,-0.1938878625579723,-0.20410079452015056,-0.19923321175338862,-0.1831754930550237,-0.16848426315861653,-0.16460662468513232,-0.17908706582384784,-0.2203264347352373,-0.27646676712608936,-0.31255614092465217,-0.3154245019375678,-0.2966229881665683,-0.2662193757778532,-0.23143735312803443,-0.19678699175653558,-0.1669955492919752,-0.14582555343040993,-0.1308753311078998,-0.12101240335733103,-0.1155715194288352,-0.11172840893348335,-0.10790886682762477,-0.10387843302457637,-0.09953950898442919,-0.09354260591821409,-0.08221268158751892,-0.06527752765565216,-0.044826147359371904,-0.028382220606949213,-0.024826290448992126,-0.03175235626069106,-0.03366244555778897,-0.028748307216725975,-0.026256485356952537,-0.036246434036968506,-0.05757898314628044,-0.08193707123215921,-0.09550908541995422,-0.07742540251689443,-0.0038621093257319664,0.13712579298974634,0.2985379322868152,0.409290763349127,0.4579668952788378,0.47144874116919333,0.47344392068114793,0.47473154602706225,0.47881242244561517,0.4759662059176827,0.42218406688910914,0.2697564663833222,0.04433575887255898,-0.1752590552527454,-0.3276290686902165,-0.3914529841212672,-0.3602140493139098,-0.23794699157280097,-0.06438162586003843,0.06818145325784575,0.12488500326041777,0.13257759560656732,0.12427365827970563,0.11407506644222425,0.10404409181731611,0.09756773690673531,0.10397907803112001,0.12258737036059021,0.14961233371841412,0.1654289665089755,0.1610288003601025,0.12132602153285345,0.042948465906489534,-0.06285543621381853,-0.1671787890131902,-0.2354587721203341,-0.24527613031409706,-0.21027327066477214,-0.16050089483906033,-0.1111328168915408,-0.06474967690803295,-0.005333203634453166,0.11653428975243034,0.32971522013700183,0.3943875663768082,0.36838934993055356,0.29458717886372227,0.15150469377079484,0.005906824356135196,-0.09740543024541326,-0.17144880433520376,-0.23126383618865967,-0.2650778427148786,-0.2575754533766818,-0.2295699982253909,-0.20096657397792958,-0.18668455928849098,-0.2025063878727863,-0.24807917482416597,-0.25940228245946084,-0.2540709183073078,-0.24845070863744548,-0.23519364233032228,-0.19770814025528222,-0.12670703935097435,-0.060197650227608944,-0.03362863401110947,-0.03525706573871321,-0.03620605790738806,-0.0031015889165546956,0.07925938128990291,0.1110367437000246,0.1171908635226539,0.11391486448317789,0.10259908593604859,0.08204744328621431,0.05506472592735421,0.03689542212429597,0.044120577563670264,0.07976889936928665,0.12445073129298044,0.1597374162885174,0.181026175871995,0.18831248896504527,0.19137712998783032,0.1997430445872494,0.21539603896005527,0.23559302556159695,0.26175475027949585,0.2926882842863289,0.3190539940317263,0.3150010611232678,0.25865799870452366,0.15781800101730303,0.0625376831850301,0.01128433687637129,0.011651260345600245,0.051603867456545216,0.10099522758684966,0.1378229564941111,0.15238812130358026,0.15131120468958328,0.14497652131398528,0.13951706756873886,0.13945755539991644,0.15231532835379202,0.1940310289493485,0.2958644879810188,0.44349295562832447,0.36171083111950214,0.2517182778639237,0.19095636258799575,0.1486426140201133,0.10732503454817187,0.057643273116833614,0.007127642811404615,-0.02032141022375548,-0.019235153637794912,-0.007830045535733066,0.0009401704693079786,-0.0005805059450102879,-0.0065684595385447735,-0.00519050631974635,0.00841058851984491,0.03390201375799255,0.06836735892881626,0.10063336478761332,0.11633740996437347,0.10778003680272015,0.07744203515079197,0.023757122472703462,-0.06304926488456311,-0.18126562775341212,-0.2503160361500111,-0.2527532091561397,-0.2539392560817489,-0.2646508507286686,-0.22847650840102127,-0.14125077340662548,-0.06938489551341695,-0.02458952219542892,-0.0023856571220738526,0.0008893807110023976,-0.013126178325306045,-0.04177717679274456,-0.08316998976814982,-0.1324307333337916,-0.1841702685195744,-0.23227890674479754,-0.2746863422984435,-0.30255756440823756,-0.27848282650140854,-0.20277033355586582,-0.14362499479104712,-0.11287993168510368,-0.09435542063874025,-0.07562124511257146,-0.05396113304495121,-0.03779813116962134,-0.04476438267838529,-0.08836318073189116,-0.14835316741492158,-0.18989929456365987,-0.1974245112420516,-0.18616489437680694,-0.18197133181408753,-0.1987379390462146,-0.22814572279109915,-0.2533650905756468,-0.26113643690354865,-0.24153723001871047,-0.19341635455465847,-0.1306110439854034,-0.0651386883569296,0.01206873733843976,0.1292176048468655,0.32331722425107584,0.4578837524685544,0.4352230502592941,0.400036499533229,0.38083302416858894,0.36918049490851773,0.3536949150061656,0.3134750704467041,0.20111221957679706,-0.001169200040579121,-0.17067359719532663,-0.23820673490430527,-0.24004680484682236,-0.19372164869002964,-0.09040192818444145,0.06428943707635013,0.23210881115605295,0.38238480843905964,0.49679746468914737,0.5468653248212026,0.5102827005919351,0.40956015139609325,0.29173967897591063,0.19656919806857134,0.1401269668908762,0.0989501468596638,0.048422394324812226,-0.01556907521059131,-0.08371441661818121,-0.13753520789284016,-0.1701514971457685,-0.1907230777485654,-0.21208323975619742,-0.23221587777746489,-0.24477900018657162,-0.2392707954601067,-0.21518486927621888,-0.17174479580696156,-0.10321971664079592,-0.012536141091155127,0.0785799084265794,0.1283163034689639,0.1040394251287203,0.019837979359488212,-0.07953269302053545,-0.16006841654401088,-0.20671693628772914,-0.20973241365134743,-0.18411671679328565,-0.14637388613175178,-0.10857817383564425,-0.08028025081738846,-0.06507609718489814,-0.06448926703530261,-0.08047219858994076,-0.11665790704928387,-0.19838164493966662,-0.5095856389297211,-0.21406076044008793,-0.08385009540201355,-0.03861562067192689,-0.011620413031642551,0.010881022041597901,0.033064273985834974,0.05746443164388743,0.09088417795891036,0.15013964606568236,0.2553594455944758,0.3489130879684063,0.3992033759416786,0.46644814522996936,0.5668301087318334,0.6425859506346034,0.43238857839835676,0.14382356797069923,-0.00632548412283096,-0.06484932481060472,-0.06906480610670164,-0.045860100453144266,-0.015731933181632244,0.00963311722003716,0.02466264487870402,0.027781190863615614,0.025560305456431835,0.026492137849017727,0.035663335279741894,0.06063068664519235,0.1151052818290105,0.11391051059688764,0.04369012742151652,0.015893334889426482,0.004844690346081652,0.00053965682141758,5.937052181883896e-05,0.004693433272552013,0.018799502149471094,0.050554766603805985,0.1101793939755099,0.16508898499614627,0.15444078298312464,0.09910085025930175,0.052330430583672274,0.02058668317503415,-0.0038853145547587207,-0.026450398805717795,-0.0468627571167604,-0.06349092881481065,-0.07240459030803842,-0.07380627818991058,-0.06875083438436279,-0.061029264686569995,-0.050057364972514305,-0.032173776563103794,-0.0021852901618436963,0.03527136532598295,0.06414204104825955,0.0621142254649335,0.015310301396888175,-0.0694809694420532,-0.1772511910288815,-0.29717444282235767,-0.41796807718487733,-0.5233423061783533,-0.6080291142508449,-0.6764433566541784,-0.7301076063380856,-0.7642803988222887,-0.775767311854794,-0.769407798766378,-0.744299775920662,-0.6745961392172622,-0.4702264986167033,0.018945529741656367,0.5164726468268793,0.7282104683884483,0.7974029903519352,0.8127942871264958,0.7978970737237469,0.7512284763262538,0.6666117158032755,0.5562136207036447,0.45551184904317593,0.4017162100095169,0.40342258057974456,0.43764381358970966,0.46532793127757166,0.4396782640684371,0.3127261478330145,0.08620452984595389,-0.14165089427615493,-0.28638702439689,-0.321237899866639,-0.23366487605683506,0.017928131106462252,0.27717582158548776,0.33080269017537123,0.29221889184737415,0.24065957837981172,0.19250498000444033,0.1582462244266699,0.1512196628459555,0.1799648269117938,0.22731860296043374,0.26854878366224066,0.28411002251472284,0.27166719512102266,0.2305289075725633,0.17186628614357516,0.11199900031788204,0.07469881122201942,0.04986817829284047,0.028423223243627217,0.002361204926516051,-0.031240859915884843,-0.06171326422633688,-0.08203527800489606,-0.0901178652848558,-0.08694171385156113,-0.07512056217384391,-0.04615407422431363,0.015306788307848629,0.13338942756468908,0.2570551683697388,0.28962135210397466,0.22186259375937673,0.07926710852595234,-0.0951017571670139,-0.2567702436510883,-0.3730079194262863,-0.43514562887975883,-0.44811818548284527,-0.42418017185943335,-0.37657149974171567,-0.32333539075634005,-0.2713170960338017,-0.2313411802375706,-0.22060672021813102,-0.26155076099870894,-0.3608282433644509,-0.4691919582404063,-0.5146287218450049,-0.48221161045363764,-0.4034913571138667,-0.2999255526597591,-0.1966360040884431,-0.11714550846810508,-0.06960086481283942,-0.04861673632153654,-0.0445827304841844,-0.053057320483468326,-0.0738192673727508,-0.1044515527992775,-0.1432994969796399,-0.18077240645569917,-0.20119481155927207,-0.20070953683644396,-0.1849082172112431,-0.15603201249566934,-0.11723774429718674,-0.07295183509163489,-0.029412796027405808,-0.012760844858740947,-0.07370655451648928,-0.1414211201203494,-0.18747969029734082,-0.20787239997416548,-0.19776965472729963,-0.14608601441460858,-0.05580948926573976,0.05531272389310744,0.14972877166252244,0.20142472074685247,0.22507618527491413,0.24484291137429914,0.26571001946806677,0.26383689247695225,0.22826761082265853,0.1955729792706503,0.1826640941116094,0.18417414001288335,0.1920783942706722,0.197286029069062,0.19694672383883063,0.19000787417794263,0.17781026453954712,0.16284912373818364,0.14419514326490826,0.11788947622901053,0.0827709323345083,0.03981552091606024,-0.008466484197790341,-0.05975364574931294,-0.10730580790717033,-0.10782741422832777,0.05991664549862901,0.13720312908712481,0.18850395260208255,0.24705542298048752,0.3177268821692601,0.3927687997403504,0.4512632918758229,0.47590731670723957,0.4611155013307627,0.40522795897721847,0.29971762895363646,0.15461067646922694,0.01570979541823057,-0.0739928964460837,-0.10734864315035174,-0.09344570254271613,-0.043337641954948915,0.00595508771421815,0.025504150453011354,0.015507861306087984,-0.035604905726424024,-0.16192046724213374,-0.38620359272270455,-0.5753987048308101,-0.5953850404732852,-0.555490768421365,-0.5084141319145898,-0.46797054189653237,-0.4374644632955487,-0.41617658266911706,-0.4035683284308951,-0.3889375845931177,-0.349258327084326,-0.2870318648198573,-0.23235085486656487,-0.19748178605684918,-0.18111862142621837,-0.18089618598025572,-0.19643043680781036,-0.22567629051829974,-0.2619063163770312,-0.2993242897889089,-0.3348295740007955,-0.37680546690402483,-0.45334834847229083,-0.599124241909944,-0.5840506965059677,-0.35048632580532924,-0.21301442876627,-0.13173780850015215,-0.07204100410278697,-0.023953438849084966,0.014160597543764964,0.0439551852253641,0.06724770111523465,0.08400357869243101,0.09446153219323376,0.09945887039975206,0.10406340786153713,0.121064895878954,0.1659559155338827,0.23735080944179016,0.27820127712892134,0.25564605242581545,0.21417436183080657,0.1728674124704177,0.14033801649104902,0.12467158125436763,0.1250338619112485,0.1349955271403757,0.15895003348301404,0.2119645448441138,0.31408465895762544,0.460722073073146,0.6035875338372967,0.6978824612324218,0.7379820587760483,0.7513398009075333,0.7557287392313842,0.7606077661635646,0.7667796916766886,0.76896536315214,0.7537653624274908,0.7025621650071745,0.6151852103910971,0.51441636280666,0.42923552107512164,0.36759306789818924,0.3062886268978412,0.1976915984907598,-0.029836902483811628,-0.3912720455864472,-0.646459986990949,-0.6986150190808167,-0.6614500298814933,-0.5948742910985834,-0.5187691239154153,-0.46517345404571736,-0.45093526325439354,-0.45197317896642436,-0.44275148620989896,-0.414011554635239,-0.36071959619906013,-0.2764040819394696,-0.19124589529884994,-0.15347121487135093,-0.17946098000839894,-0.2652976851655535,-0.4004493598385843,-0.5227014285008232,-0.5006617242270537,-0.36922692919133965,-0.23508311235441104,-0.13822606741207785,-0.08689936393624936,-0.07281775540052184,-0.08226056789287245,-0.09896437343132779,-0.11228959940728322,-0.11104697869926831,-0.04702836056327791,0.007913183154871542,0.015578262278361983,0.0014366387020612779,-0.034792521585506504,-0.10357808863538713,-0.20988909878746326,-0.35406548687922523,-0.5196909631832672,-0.6876223007391339,-0.8174375128584213,-0.8565884855632273,-0.7945737415591821,-0.627990588156532,-0.36460026474298407,-0.07576072526435694,0.1489345235486856,0.2926024115442402,0.37036383242051274,0.3853903633719381,0.3396909860336727,0.26505384435803325,0.2044969530662409,0.17178898617675822,0.14918279352194064,0.12553874622526123,0.10196935984140597,0.07439298007775963,0.04400346120252004,0.010806804211168405,-0.025820095555006112,-0.0846752139219211,-0.14001776078507971,-0.02578545983619331,0.012540768377551696,0.035787647800757744,0.055138109824413965,0.07395973078633947,0.09393593437462214,0.12003072184121144,0.16606967756317903,0.25217271949666514,0.285835960337782,0.23814666680925217,0.22273824331940648,0.22987334978474255,0.23515003382020486,0.21832493901632422,0.17134223580378505,0.10315498037147952,0.023721852038784286,-0.08175298888655669,-0.15035594305100786,-0.06681356336334611,0.024569005883992308,0.12449490673249744,0.24707253018785785,0.39119866954289895,0.5109979285495085,0.539314099720886,0.4875735097995576,0.3966439170172129,0.28635776132689383,0.16415463322036233,0.045678714308849684,-0.05658948331835205,-0.12969457635915496,-0.17500920180976104,-0.2009593822668914,-0.22366456967999232,-0.2519059754673584,-0.28578046743332036,-0.3190861064607871,-0.3517590530974078,-0.38478347668417795,-0.41499868148750296,-0.43463533399467563,-0.4404920275130444,-0.4375793467139568,-0.43150575660927964,-0.426640800158591,-0.421734316916122,-0.41406605573907757,-0.4065112602853965,-0.41123360575270046,-0.4369588479614511,-0.4752353660059865,-0.5129153214669867,-0.5229291782010705,-0.47544014323012,-0.3457125791309288,-0.1516407654129738,0.05945627313269809,0.22953041428590798,0.3328616432848091,0.38396330108068855,0.4025561436120049,0.40512791906466206,0.40231711336614456,0.3975772121011103,0.3951160559824876,0.39668715383330205,0.4011270192484861,0.4052422670369873,0.41020796161949247,0.41514282339299413,0.4318685517144723,0.45889124851773283,0.4795375015147112,0.4864896708564294,0.47231736486488335,0.4345110340825641,0.388402657590745,0.3582877086568337,0.3434054648244182,0.31895149303686904,0.25551195503271656,0.14783400067598754,0.02275712808661468,-0.07777173114797431,-0.15280346393339944,-0.19089566010296521,-0.1862476886896803,-0.13457065516522113,-0.06988048641959826,-0.03107452506231095,-0.017510448587024333,-0.018265263061995354,-0.024326781690116407,-0.031510837293658264,-0.036367882902756554,-0.035497511663056404,-0.013259956843359549,0.04596275546964589,0.07475078884323016,0.08702552258445088,0.09809927025001045,0.11139538125115905,0.1197349503543797,0.104092804838213,0.06903748181924883,0.03220560910813259,0.0035573753603863278,-0.01576015040569484,-0.02988267217748514,-0.04173883645987977,-0.057412791838458196,-0.08374247038990455,-0.1271512506373245,-0.18800240621766443,-0.24214578397488934,-0.24894228234370852,-0.22907486512746258,-0.2314277917698645,-0.2257985627476975,-0.12166684638216632,-0.08733171740887885,-0.09472247746109265,-0.12958199925378022,-0.1941923519730904,-0.28422702426105834,-0.36915703573914327,-0.4224771266521987,-0.4385224820399973,-0.41293206471587457,-0.3627874514452734,-0.2988079503386611,-0.23258870920068583,-0.16509175075864183,-0.1110751293024673,-0.08384778291811677,-0.09301581402928769,-0.11743616431742743,-0.15789568042748012,-0.18861756925938172,-0.1816051930430475,-0.1438370363882142,-0.08642634763947962,-0.002898999380252607,0.09920276327760694,0.20302264084327687,0.2866886898898478,0.3443722232436537,0.390027591829138,0.45538965685805566,0.6194540904254818,0.6726008913661653,0.19047848828094394,0.06098997934005898,0.028245745314418716,0.02598961172928191,0.03690245755099964,0.055149677885866145,0.07835211801841352,0.10717151904989264,0.1441895897819505,0.20405043737993597,0.3153752663419968,0.37776422128956977,0.26787386433337057,0.17381902690620094,0.1094621351539825,0.0622716615043225,0.028223027607116803,0.0049914848809959975,-0.007179711420773735,-0.005595323297656243,0.011519427372774912,0.042194702378505915,0.08158663007592731,0.12140596036621407,0.15031868372776347,0.15494463399625558,0.12958742338939308,0.09071711168094304,0.06964967625650258,0.07714910878116944,0.10120740466346732,0.12708163525751395,0.14546007972567812,0.15045919018417347,0.1344140996974927,0.08378894115464597,-0.03978856261326315,-0.24920976434206712,-0.3830782629897762,-0.4139779640688411,-0.4352070603421516,-0.480880180913433,-0.5522902780368287,-0.6290946733920437,-0.688205135638586,-0.7166847410242859,-0.7081291783879411,-0.6507128524038636,-0.5205760036743561,-0.2846526975269233,0.05234815964163583,0.37309513035831476,0.5666072452951495,0.656671196309868,0.6930572806814876,0.7052341813650878,0.7094028811684371,0.7177643713933622,0.7338148544676669,0.7512540069370254,0.7589125250871367,0.7446353621485956,0.6995795545993067,0.6063865786776833,0.44296326555505466,0.20678612846741834,-0.05059306397632439,-0.28044555072959737,-0.46012933342936546,-0.5488721416830236,-0.524440429429251,-0.44348183778335876,-0.3775867825790887,-0.35177461568532253,-0.3625281456760585,-0.38488408845939853,-0.39959433841038217,-0.38656060487102817,-0.3446357727860391,-0.2778216717701891,-0.2055934470581671,-0.1534515497696326,-0.12681248697912825,-0.13313813737622318,-0.17002640660109825,-0.2174552595067486,-0.257531994079899,-0.29461857785392437,-0.33521213676057793,-0.3792136698880228,-0.4109402570047873,-0.4279101934321196,-0.4344247394026003,-0.43882308101196094,-0.4567890778936011,-0.49545034964784485,-0.5462123893965465,-0.5849980825626047,-0.5881784564284851,-0.55885226257434,-0.5225888298751119,-0.49093679084931474,-0.4717159090843441,-0.4547215417015318,-0.41841555486539767,-0.32815447745538634,-0.20919636008135453,-0.15922194553860344,-0.16655152348689398,-0.2017364913033711,-0.2500421653263738,-0.29921793033709987,-0.3357871266489186,-0.3533182683457285,-0.32900933965112283,-0.2609677536404449,-0.18060745779208148,-0.11624481318568625,-0.09894543158193592,-0.16061351712176958,-0.24619674435562505,-0.26323841336069687,-0.175985083592653,-0.03189186209904566,0.14819733874777416,0.3376679666511571,0.4897844927257449,0.5789524709850256,0.6200701702190271,0.6293898411400153,0.6197070544857504,0.6043620347103521,0.5789349629429718,0.5409334707539477,0.4792483683131841,0.3996066485061506,0.3073966692533363,0.21478774654667837,0.1411108276284673,0.10491079176470273,0.09787620196180638,0.1070210684458529,0.12022016845108878,0.1318527392134919,0.1409592246081412,0.1509658625685398,0.16793995652220997,0.19694842885397654,0.24128084685343518,0.291002213027372,0.34581559464949935,0.40107123422449215,0.4466556134679436,0.4815319112297344,0.512402954505923,0.542419701753901,0.5623086819707316,0.5701389037338457,0.5774075310439137,0.5938884680184385,0.6145551928060689,0.6285024333196984,0.6381848870366662,0.639689105007261,0.6413595194665834,0.6404200871433127,0.638713737929463,0.6379524729576309,0.633576840231288,0.6350124055300582,0.6468441879653998,0.6633487221765723,0.6834422492547597,0.699248602940316,0.6930851967360406,0.6457813602120434,0.5556348746193172,0.44203314882645095,0.3251406553233243,0.23520982776747718,0.1878957339614725,0.1775113207315371,0.1823809734921037,0.1690233933384404,0.12322981626565087,0.03904893572242515,-0.08118425075793981,-0.1898593497731804,-0.2606485859132155,-0.3033765289111208,-0.3146556144210702,-0.29977206884042185,-0.2871336803198547,-0.2820970410351174,-0.2120622096432642,-0.14099587843230652,-0.1284657194336662,-0.14464937507598405,-0.1925127475767133,-0.2619979553151083,-0.18293445484161475,-0.14131929478677568,-0.13913614792332152,-0.14868883859089718,-0.15822979428477785,-0.16684621009733094,-0.18294843158669669,-0.23534461366978582,-0.2803947599795697,-0.31207264685442815,-0.36394156179352627,-0.4238557603190858,-0.47748109269150313,-0.5185041827801968,-0.5479068068911979,-0.5675344512263749,-0.5732410412648834,-0.5649913462314301,-0.5545751829045888,-0.5536835645846088,-0.5662705803132785,-0.5893632635027415,-0.6122015774448972,-0.613678092837194,-0.5709930800237094,-0.482617251867273,-0.3524561535728669,-0.19322363094985048,-0.05411843906918472,-0.0032689043242012214,-0.023411334874485674,-0.06103583446889926,-0.06353021190256691,-0.02483713293116497,0.023240712933512386,0.06047106502079417,0.07871118757654759,0.08140190701918264,0.0784495046379771,0.07844871489821861,0.0827601786912622,0.09076668482867999,0.105858410698547,0.13689965064321383,0.19979121505416,0.3186785739119749,0.3445202131872482,0.2287084268235127,0.1646519455978388,0.13290666391464737,0.11395401511490592,0.10011002048450984,0.08875337355321525,0.07984197747779401,0.0758340175204658,0.08185316086183934,0.10234999943254676,0.13997820297198377,0.18755784330224293,0.22068337682172057,0.23558057864343218,0.24431047113139484,0.2505544720039345,0.2509395051372922,0.23902947186143114,0.20928719585914685,0.177396526580902,0.1587859451650508,0.15360626960748475,0.15751069301904913,0.163474718813154,0.16380210027199912,0.15319747389332003,0.13258880158062855,0.10629004687700931,0.07955535127828012,0.05559623529260731,0.030296673722946626,-0.0019115314830406547,-0.047896577700080205,-0.11310684107908127,-0.19617526564713753,-0.27642510789315927,-0.334414727360469,-0.36107451161170456,-0.35906559306574887,-0.33064086418329497,-0.28760292071266463,-0.24768544686110003,-0.22445081945317202,-0.21581761109319006,-0.2086353221428094,-0.19910441947834662,-0.1911928275420385,-0.18678275609013084,-0.18530999196608747,-0.1841640223945786,-0.1710274209296695,-0.13181584469193108,-0.061251492556925156,0.029406704973789,0.12033963528120346,0.19872267452198636,0.2746432095692947,0.38257234079025276,0.5548296660093596,0.7402858338260091,0.8443678284187186,0.8683734073920085,0.8465972844612899,0.7893041862584489,0.6924572399008702,0.5595215865092655,0.40813781384380277,0.2611603539216205,0.1271333942441519,-0.00031836079812805546,-0.11830104982060417,-0.20835437587479705,-0.2485488078045609,-0.24284068099482145,-0.21056941037964946,-0.17670881545788242,-0.1594449855202997,-0.16417254624726932,-0.19901534508364827,-0.2792277844167428,-0.4155439424594767,-0.5169003167086809,-0.4773308741404973,-0.4238288670913072,-0.4042128377665379,-0.411370519725108,-0.43063856810788126,-0.4489980311544647,-0.45986930408511517,-0.46793589360965165,-0.4791189848413843,-0.49827459977664,-0.521403626891733,-0.5423300814961648,-0.5595504144634161,-0.5668192253015303,-0.5498923874443266,-0.49790073981934163,-0.4137955184344764,-0.31193815638350064,-0.20785042183170957,-0.12555015825287097,-0.12027645972561231,-0.23494420917018227,-0.4081091081584122,-0.5441113529301091,-0.6230617828032403,-0.6623907274801936,-0.6671766055196893,-0.6258983795024952,-0.5410486026976635,-0.45433129589686505,-0.40684556668758326,-0.4095342111037028,-0.4583022377488988,-0.5525937581502484,-0.6727794081441396,-0.7257279373363034,-0.6402244616178344,-0.4975992857899143,-0.3676412094526225,-0.2517508945372803,-0.14256093791857216,-0.051897495007854996,-0.0020410108228606,0.017993872496765685,0.030921727521697678,0.0590367766179171,0.11271795285549988,0.18489906533139136,0.2578215785039482,0.317371702588987,0.35958733616167493,0.38245040491858245,0.39918182323072615,0.4165034139223469,0.4319572720950524,0.43972411024705116,0.4406293421890885,0.4407397195315694,0.4377745080687291,0.4286772596552484,0.41986019777143957,0.4242439887666483,0.45095908965128806,0.5017665541270385,0.5691345895135985,0.6328580910260023,0.6904302155633273,0.7460068341580547,0.7878507054452719,0.782341777657995,0.7224515778036139,0.6495344511687023,0.5820690815045154,0.5278247172628414,0.4821354994140533,0.44014397682247375,0.40903814264934696,0.39827232961123404,0.41283336766395157,0.4451844385073296,0.48565412294666166,0.52672867292868,0.5538213212404592,0.5611087647841536,0.5456868014505558,0.5063460003472797,0.4554619286057231,0.4227370859490063,0.4279099931913551,0.47060923490304957,0.5439856193796286,0.6462166373688076,0.7680341074932481,0.8538708917617093,0.8265119123229406,0.6945046911419781,0.5442707410791884,0.41569672377947015,0.30400316345588724,0.20401941898345974,0.11944987681259793,0.058366443702869364,0.02542357641269745,0.014178879820425221,0.01662289074088143,0.0091903016490462,-0.03303481936207993,-0.1335795121893073,-0.24655971968528137,-0.30125726584715157,-0.3198445924508709,-0.32717101053460135,-0.3246075830333296,-0.3132140684386125,-0.2898724731755922,-0.24723244683900344,-0.18218149495113553,-0.09738391293401721,-0.011052408711017477,0.0491302781947166,0.060212807470292035,0.025475177977825326,-0.020815892146048908,-0.05914793558117351,-0.08859751539643601,-0.11582292676345396,-0.13892873688535376,-0.050772378316736234,0.005033308847892588,0.014602318794418145,0.009835197261027315,0.0011590918090058299,-0.0092909711687275,-0.018768214668652854,-0.025463917134858863,-0.025159786139743647,-0.017283647721923236,-0.005403076138402051,0.006903980427481637,0.019681147527116832,0.03476898970608948,0.05539726474278953,0.07668518338795245,0.08377943470227318,0.06835505460824837,0.0370516182133706,0.0009003793889684349,-0.030616440593686133,-0.05272484351547665,-0.06464446668117584,-0.06602065128759275,-0.059866482410599164,-0.05368671006769643,-0.04786287584138925,-0.038513731099323455,-0.018281106891073075,0.013946155902633142,0.05021111871313521,0.06264053438561697,0.05041350719540777,0.02272522500978767,-0.017288513700051113,-0.06794624222590367,-0.12414485024699673,-0.17862998648932582,-0.2311095301023405,-0.27757802371246576,-0.2988489286662231,-0.27548520166323537,-0.2134032394716651,-0.15393221613765376,-0.12540607518967994,-0.12904378532032196,-0.15014426961347985,-0.17346051976497068,-0.18564492261225857,-0.1658537139555329,-0.07415501486244454,0.181924396214881,0.5328156541698169,0.7105588365221469,0.782166111929796,0.8209936318387139,0.8412382535346571,0.848076463198909,0.8525193241662097,0.8636744032999859,0.8795908239938954,0.8939860735393843,0.901472002423638,0.8950761905732207,0.864772619346181,0.8042870007215336,0.7109544514264792,0.5691702478295467,0.3407998762164159,0.03211117536345528,-0.22140842955218815,-0.35407587977265736,-0.4023999664838578,-0.39637065419492706,-0.36117895622973073,-0.3287618885081025,-0.31556943435612045,-0.32239076452093623,-0.34439879184407807,-0.37678425592008497,-0.4179856220759519,-0.46627313523878816,-0.5190014904346179,-0.5727478603109274,-0.6201179014749071,-0.6554526666969235,-0.6817788621585273,-0.7022455577332466,-0.715416411975892,-0.7144345618909915,-0.6809820387150479,-0.5797754200434151,-0.41595339875337645,-0.2788552447622442,-0.2047051543689052,-0.1728022179507979,-0.1536137712828664,-0.13169232867578537,-0.11348008353659506,-0.1191349509768274,-0.1535020897466759,-0.19405643881237286,-0.21696208220135746,-0.2132392912179463,-0.17670738504322886,-0.10589366460410053,-0.017509441500297145,0.039290038226025004,0.028533684767998793,-0.01942773467786359,-0.07800213105206469,-0.13535173656250835,-0.18795744380695273,-0.22581756258178462,-0.22400737666039175,-0.1371169658903569,0.07424130351119981,0.3304376746521275,0.5412214236223121,0.6995220714379085,0.8073010472136691,0.8714159573691892,0.8808649613406495,0.8119325593554084,0.6669241579979075,0.4594268335003499,0.16176879180924064,-0.2313617185219511,-0.5156631112095451,-0.601728656477166,-0.6124540591199545,-0.6189898189187248,-0.6414356399478198,-0.6723364341183887,-0.6813180669087218,-0.6407025893135179,-0.5548500391543026,-0.4457689293381459,-0.31444251200207124,-0.1074306608861608,0.18799139626262493,0.22682786150015202,0.2005369085323129,0.178503065082909,0.17456255310181837,0.20703293706867848,0.30158436189654136,0.4310883671800095,0.5187148787289727,0.5655741880599514,0.6008132789586589,0.6208256544586426,0.6153558568391521,0.5860300058579058,0.5547325452910506,0.5474523548275402,0.5530435825698861,0.5149275095121304,0.3572702902842018,0.14402142204148485,0.01658131796149019,-0.007615346299766349,0.03784054753834265,0.12409810633106252,0.2244433304132202,0.31207829537037085,0.3523675509666723,0.2830807810338918,0.04856908614290023,-0.17920417690380325,-0.25894168214665175,-0.23991653809109992,-0.164034585892369,-0.06321649683721034,0.009342022444675841,0.03593162375449827,0.043107785338706746,0.04309512594255388,0.032955805948202466,0.012030322447994193,-0.02118217343981364,-0.05384158397501536,-0.07043798371113182,-0.07162479890373867,-0.06376891243477019,-0.04965656685345594,-0.03003731691978783,-0.005402912927916576,0.02425018854005731,0.06218969765715101,0.11130039092285197,0.17707935489323837,0.2851739005225771,0.22530400250682264,0.10665335399275662,0.07596577534857112,0.06965340425894151,0.06848230943714499,0.06690663447667013,0.06341305057132188,0.05878334313001103,0.0568427572321246,0.0636664236020225,0.0879862349640536,0.14389283280913506,0.25369568121098146,0.41365630615108445,0.5065908423206609,0.3572516855582725,0.15684460135768097,0.07453333074418914,0.05186178431450362,0.062000851474536524,0.11109109577311312,0.24642012991753892,0.26600880886380446,0.11827696847975894,0.04474635688884581,0.010419930158516413,0.0021783013202141916,0.013508283257477225,0.03588350621774977,0.05842718976002693,0.07340690335828463,0.07182781516205197,0.041970004266350294,-0.016271064956140623,-0.09667551065524306,-0.1827553664083018,-0.25297226228076314,-0.29770721251477267,-0.31336849397204275,-0.31316060221489733,-0.3118131484797913,-0.31558085501399386,-0.32200103268214597,-0.32241028063598615,-0.3100493482895451,-0.2846371895846691,-0.24976533100714254,-0.20953544939547053,-0.17401492213142178,-0.154450788273016,-0.1596520516819918,-0.18939044230585098,-0.23990089895423752,-0.30155903688571434,-0.3648879873953828,-0.42125022145157137,-0.4613333360881547,-0.45717796336674643,-0.40172701486012097,-0.3316119269131864,-0.2735509659800876,-0.2294015927265773,-0.19628597061458922,-0.16622645580598128,-0.12291733289005699,-0.052620362431615206,0.04735076593695923,0.14972753517597254,0.21044239105093537,0.2070687518446002,0.14775566229514925,0.058598594669960154,-0.03350435664019708,-0.10896575982146328,-0.15450433133754632,-0.1659574207904043,-0.14932823630439168,-0.0823149712869078,0.019868215903168326,0.07376727360837694,0.11830331636904554,0.17856295476501216,0.253519299236905,0.3277349901806598,0.38101281630901707,0.4125799942971208,0.4493807895119376,0.5119373998019209,0.5609375909608668,0.48840284350890756,0.3805681142513054,0.32070177725233645,0.30335171042061,0.3017953788597436,0.2537771522882801,0.16682721443131718,0.09571494044606482,0.033728567087180375,-0.029179535945375777,-0.08526114863260553,-0.11684606034432304,-0.12377712610537456,-0.11179021523448926,-0.08342290612771867,-0.044791557580396046,-0.003080232322923188,0.0350255788830807,0.06416079003975622,0.09255211021910796,0.1329536452148164,0.17609273818244575,0.18713872485450841,0.14227970489106406,0.03699001105946752,-0.05279750890062849,-0.07556842311466326,-0.03109473420650916,0.05608445386175649,0.1489368735766366,0.20511470247518848,0.21309269891720978,0.18831269776634818,0.1392525373857823,0.08132077128484157,0.027668995120561715,-0.018498888406257224,-0.059448107150633596,-0.0977376080486556,-0.13152891817623968,-0.15537601675051352,-0.16891898374927447,-0.17150645052392996,-0.16283819400431873,-0.14380255007526568,-0.11588703891486947,-0.07884374612624669,-0.03382250468227838,0.017381806723427,0.059946627587436824,0.08301543783705728,0.0940102100679441,0.10108008070287063,0.10607844768880056,0.1085675489972393,0.10816962059355567,0.10615979282488633,0.10653190193820196,0.1106256869924819,0.1180959236503606,0.1264353400937908,0.13462411938985558,0.14063652882266023,0.1420947431710282,0.13905985647459404,0.13468074628677718,0.1308576212388791,0.13349187239176752,0.1528841940941391,0.1970463900629859,0.2569970111740886,0.27152736639870806,0.22658710293661377,0.17273547663656885,0.13348477641827758,0.1176099685891126,0.12844857195804243,0.16839819267289663,0.22841880445009694,0.29464656776195525,0.353241349153061,0.37796540910107007,0.36319964479414385,0.3290485099099089,0.29045457543357783,0.2511686983265246,0.20861577851144006,0.1561202901784272,0.08059949291588434,-0.0252005549294288,-0.13780597064548103,-0.2053651791957651,-0.21759507627395203,-0.20362718731956214,-0.19262992232503845,-0.19819728209779264,-0.21456462282885588,-0.23241753794918474,-0.24276496229161257,-0.24525979645424278,-0.2555084954936672,-0.29113083259235406,-0.3595003979738479,-0.44595004163987284,-0.5246396528445021,-0.5840368932594694,-0.6311161124982194,-0.6671008803021209,-0.6893330827404964,-0.6885643465098672,-0.6580813899566734,-0.5974925705917428,-0.5045605701398497,-0.37816772144008703,-0.25186416424221436,-0.17541197608940287,-0.1630911786856363,-0.1827779707461011,-0.19135934873093294,-0.1608698970679484,-0.07393359561282734,0.051710985649785275,0.18099361493983795,0.2555136287579826,0.23732099173391125,0.14434041189460567,0.020932504430340854,-0.1131636664752721,-0.26371383044212016,-0.4169147204221867,-0.4981045811010039,-0.4859893519246055,-0.41543689306617326,-0.31145155622217047,-0.19336615968629883,-0.08187872361692196,0.012767016108039798,0.09770492439983887,0.1850488361598002,0.2804635925129329,0.3570426265661895,0.3991631481467441,0.44464364545811275,0.527865091949558,0.6595177058305434,0.7724379773723064,0.7965086423843571,0.755347746368723,0.6661210185417461,0.5469247137565671,0.42281351905749326,0.3056377388033517,0.195782603693019,0.08477998121551938,0.008670812432793792,-0.0027824541788199443,0.00999438366855609,0.030810662981872582,0.0592642936231915,0.10142065766504352,0.11951965947728967,0.014962526430965828,-0.0946042868202413,-0.18004179353136646,-0.2468175087331159,-0.2951992419236717,-0.32750816202913974,-0.34546635404994736,-0.34100171994528816,-0.30277166632048963,-0.23973665035458253,-0.16765331950358933,-0.0819566576398279,0.027324515849122433,0.15593739624617337,0.278664358798476,0.36439225292764,0.39114261658255745,0.33300999714915736,0.18882427374818023,0.03644365233620408,-0.06433719400997247,-0.11971301938820006,-0.1540411065104294,-0.1835171496557617,-0.21323530150473297,-0.24506432068239503,-0.2789388495035435,-0.3175345476253911,-0.3660308392473879,-0.43124630845339446,-0.5102341132024859,-0.5643681904507353,-0.5237109280715335,-0.4139431768574143,-0.30749249078289576,-0.21001161586998754,-0.11702820595304161,-0.034274237034677066,0.029605374024047636,0.07486543161962704,0.10977935041564381,0.14259174733024055,0.17558787877767879,0.20709507626951862,0.23469415736566335,0.26540572975580456,0.3105812815401262,0.3874731617440136,0.5099598466432472,0.6652154313143943,0.745169466585418,0.6353230706428562,0.4573136898727584,0.31388244443193025,0.2100204481384314,0.12727174953303264,0.049729438095465935,-0.025032661381422593,-0.08946093436501798,-0.13601901470889394,-0.16392084120590206,-0.1818803347417479,-0.20714395706039573,-0.2851839986120354,-0.7134312523754289,-0.2664834954257782,-0.12300101278204466,-0.08778239993041072,-0.07820720316690466,-0.07981445355246002,-0.09005940732496875,-0.10894455668613368,-0.13306813844961873,-0.14761638000826813,-0.10598349156309755,0.06927564105220105,0.29428969660462884,0.4393087641207776,0.5130813645056008,0.5338693001027383,0.5026173943582974,0.41520857686404133,0.2896088755214438,0.16333892562529254,0.062495840647097574,-0.0008040007202947884,-0.02006395521109818,-0.028979355509850913,-0.042107699062649134,-0.06340755053876919,-0.09018030427171793,-0.11577258449687187,-0.12977391866850632,-0.12861273546174465,-0.11779252093090588,-0.10272951323904098,-0.09040353033048953,-0.0854045526424189,-0.08995128814165052,-0.10480530273236617,-0.12633514607675259,-0.14699809282909762,-0.15969279287847798,-0.15982284691261042,-0.14448019567308634,-0.12571660081585462,-0.11582251578132964,-0.12007308285262941,-0.13440844778368724,-0.14948955992253818,-0.16234454284646965,-0.17547988201395512,-0.18417290909951578,-0.17515893461114304,-0.1432886093182967,-0.09446741382772761,-0.034777864763776076,0.025883602797514938,0.08156446564343932,0.1290879728293077,0.16999413483771453,0.2056671446789017,0.23465357633299722,0.26240607512734193,0.29179147602097427,0.3302153578951297,0.3739530228453179,0.42566614607487036,0.4768792938023375,0.511960930326686,0.5075046284987486,0.46559335290582055,0.40801627967103343,0.35524627843777695,0.31187395542811547,0.28080872207698654,0.2539007273348606,0.2238694039077111,0.18589767868687623,0.1402281753270909,0.0845561324229067,0.04050025229613961,0.03689314166039418,0.04356708818315075,0.040319435068432774,0.027216050503714017,0.012675457865608319,0.008645779392028952,0.02228903563106463,0.05650986199399961,0.10407913018300027,0.14165836605116752,0.15770745097309619,0.16187916106809633,0.17339383422586738,0.20065255880702873,0.24103039211019622,0.28973993172988016,0.34059564139086823,0.3869376354137147,0.43172967137047175,0.4585315480308697,0.39289969738697544,0.2418722726691304,0.12202434284293195,0.04737042120920356,-0.002857333926419599,-0.05427611027250051,-0.12090289148034508,-0.18562782535319786,-0.2285888614726115,-0.238204663921582,-0.2138433051207083,-0.15215905203298563,-0.06360784459352695,0.02276815369778976,0.07405594903808736,0.08073091250731768,0.05108009822344559,-0.011933612825598761,-0.11751496024654509,-0.2586338199219899,-0.3069562419110005,-0.24745592244654224,-0.17745330823501884,-0.11911544139854825,-0.07522501570641386,-0.04773740938715116,-0.03618690568012057,-0.03778423900047778,-0.04092698087467629,-0.028340527995716593,0.010396854219524127,0.06503223483564845,0.10787447399481882,0.1126390040893108,0.07867162296180791,0.006796905226735283,-0.10606194448273018,-0.23303134593548194,-0.3157260786395247,-0.35261775234826065,-0.37028929788555937,-0.3760749760542976,-0.37813184553651147,-0.3803014010392858,-0.3726286142514216,-0.330629549835523,-0.25214214948685787,-0.16822045817181397,-0.10687212034899048,-0.08791760731834088,-0.12089886126410833,-0.20493998137044334,-0.27936812941316386,-0.21496181940959236,-0.13490466278251007,-0.08016918292741386,-0.03360467084035048,0.021920533650026268,0.10569274944634278,0.2215313466656948,0.3335890632032643,0.410512985530926,0.44574585793913934,0.4402325672533989,0.39814804993840897,0.33722357550317905,0.2781077211417915,0.2387484027757852,0.22263707449749953,0.22214936703554883,0.23034106911013538,0.24233329599547193,0.26220371866849734,0.2970812245929371,0.35983195202182844,0.3983464335906873,0.21888177263152203,0.12001076073331135,0.10323001801423815,0.11585382956493216,0.13485344230170923,0.15033350685207153,0.15646668538335565,0.15112327055782981,0.13329696178584774,0.10159409741658736,0.057385472034005305,0.005003354336691291,-0.04939887159900808,-0.10448433994480165,-0.16010543608246333,-0.21411732110610615,-0.2687258569836657,-0.3307212447919869,-0.39815494244898936,-0.44154961046031105,-0.4441290695025974,-0.4219581388654937,-0.3863715878964146,-0.346714170456809,-0.29460122910469394,-0.2287123681284974,-0.16395199941492822,-0.1171008284068407,-0.08768252582281463,-0.0705123448697233,-0.056947041916723486,-0.037048577874852225,0.014012015715290028,0.14165871621235884,0.3304505739382267,0.37488302589803796,0.33638873845788386,0.284324853941188,0.22728855224480965,0.163608419686303,0.10638942273471944,0.06478468570757157,0.03584248051600926,0.018768673107919003,0.015011786222640704,0.030963506663603667,0.06790502026783186,0.10266617591007197,0.09539066709156269,0.02192520208977461,-0.0739689625158734,-0.15276804765170843,-0.19334083829674567,-0.19881229700307476,-0.1789847007672528,-0.14405136171295876,-0.10277817326119033,-0.07577177319854755,-0.06723007555522158,-0.0719645845151647,-0.07892274949688119,-0.0787378895850486,-0.059648527496348566,-0.013799264437172255,0.04523074389803637,0.08563852921459096,0.09299445358570825,0.08249298631735563,0.08461452373762142,0.1270632185886993,0.2508275030992048,0.4765590210696036,0.7276532910441532,0.8401106147900325,0.8269088155922529,0.7899267379639823,0.7708319381391674,0.7626180082912895,0.7417556904997047,0.6788221895355695,0.4534184896213457,-0.2685717046966523,-0.5432403336937622,-0.48789272306172066,-0.3932091086318747,-0.3143941325523556,-0.25965092279880964,-0.2164808189507959,-0.17576287613942349,-0.13737120142917114,-0.09563487584178679,-0.045956319109867326,0.023744906117105505,0.14638399243132627,0.3431885271509115,0.4092396707058062,0.35905696210113025,0.29101731294311656,0.21023841779521626,0.12246459222381886,0.04078692887174266,-0.018263248766889215,-0.04743606092544622,-0.04591731866430139,-0.014589611114505694,0.044357693894923625,0.11980419121090938,0.17677417801152895,0.1799535320744406,0.1339631649361287,0.07477430501501917,0.020668584607596907,-0.029168401809212513,-0.054712831017382745,-0.04693223573765677,-0.0338799417317432,-0.027023225417579125,-0.022410648383491216,-0.010175832594452693,0.005846969740728957,0.021337083976443016,0.042243568872715485,0.06337029423544481,0.07709278488053563,0.08460388845796973,0.06864391538421909,0.034239811629286916,0.001295166193441469,-0.022108532624566392,-0.031686431937052215,-0.02744935091456403,-0.005290349420441225,0.028239234369611992,0.058427925500376655,0.0731227497401712,0.07314988502082766,0.03513106009676659,-0.12187837290877174,-0.4375901766112491,-0.5307118104557469,-0.5142580044462399,-0.4964079384616884,-0.4838478506213477,-0.4631881994768825,-0.4200919693625353,-0.34070825863678794,-0.21665760823666194,-0.046374418465614596,0.16826289844362924,0.41477459732576755,0.6333476789606605,0.7765809672669985,0.8534804345110882,0.8798001911997178,0.8619365857195336,0.8046253247877405,0.7127374273539088,0.593779441576459,0.4609262686294321,0.32439678214662776,0.18445613625865043,0.04277892319575399,-0.08653556657704954,-0.1866219141384143,-0.252012242256903,-0.28066979213592536,-0.28702334159473125,-0.28860823488193565,-0.3004414674339995,-0.3241807454509019,-0.3581123924545763,-0.4043578258867018,-0.46987890761007534,-0.5732839553723015,-0.5895634194121351,-0.31518654263198076,-0.16125816733294768,-0.10405166704755268,-0.08101695491526227,-0.06870109084309112,-0.06363844393554377,-0.07040118058853119,-0.09617751566091871,-0.1449264613165426,-0.19871141499675382,-0.20973198820840264,-0.1573924417503025,-0.05836964178760714,0.05781334549498699,0.15150200962562446,0.20569937379101222,0.2303534497759017,0.2535692361118466,0.29447365706040013,0.3388947792166348,0.35153932294137497,0.32091336557313377,0.27875826438663054,0.2420542191172954,0.21392319181951566,0.19531355676658568,0.1865040645070003,0.19177542479595866,0.2201355479849832,0.3061749038896708,0.4978906392857644,0.2542912721857719,0.12499014887812956,0.07791842650580351,0.05587005783961082,0.044649031954911544,0.04008286315341147,0.0425395194675529,0.059615917062124886,0.09302643544652359,0.1016894395252164,0.04402476720507107,-0.020851590204390272,-0.07592024581508254,-0.14146820271643834,-0.24456540336826818,-0.39484663797597697,-0.5203272587869566,-0.5692552372407513,-0.5825739356255755,-0.5862365398304213,-0.5843517789377449,-0.5816329865945512,-0.5801739576955254,-0.5733151097804282,-0.5459798377748588,-0.4823371668502513,-0.36238269435023834,-0.1646947939969036,0.11964247884812158,0.43768895148871734,0.671107967911409,0.7791414324889371,0.7954827639285504,0.7507506698756005,0.6622612549121006,0.5419659124780498,0.4060580943102245,0.2783006129338867,0.17814816026397137,0.11232848341494411,0.07627339667268639,0.060878297020169,0.05239955047701691,0.03536334519420708,-0.008364321968318265,-0.09675425588562166,-0.23821293316335948,-0.4026341115871798,-0.5324394602049353,-0.5954971088288731,-0.602867513469291,-0.5798265211258478,-0.5495434330177492,-0.5260124308587764,-0.5161847376028266,-0.5377949635390374,-0.6527294293305513,-0.6265757412029705,-0.25448426345107295,-0.13446169708988764,-0.09501204612401065,-0.07987822527064371,-0.06987812002946014,-0.053606859975629244,-0.02623828846619286,0.010950525687178619,0.05589191181513687,0.10809905361125072,0.16592115309109606,0.21338245682194476,0.16862330069794665,0.06620242231683394,0.009991107502837139,-0.015515936057554101,-0.022356560814910154,-0.015085786940784775,0.004300182135029761,0.03410796612329607,0.06803639423645155,0.09303333988646334,0.0992734751604048,0.0809703809337693,0.0512695493536465,0.03887825133346043,0.05215826146492601,0.07631718198073963,0.08893692397916518,0.08786937207479875,0.0895400362203259,0.10471445195275862,0.13596905332321405,0.18580632308286799,0.2501440965277489,0.29656651470253104,0.29466909449641737,0.2596976014087447,0.22205844439166655,0.20109350663752398,0.1996007886497514,0.2122631885385452,0.21739938335220668,0.1639116317405867,0.07462680142480217,0.0033528372202172026,-0.049826774525015154,-0.0978269068709025,-0.142508186148424,-0.1788326583545486,-0.20426510363196823,-0.2201039059609257,-0.22944446691253018,-0.2343769671423502,-0.23920674523638058,-0.25098772900525224,-0.2743542159588845,-0.29613018913271855,-0.2299958613908269,-0.04509274045867986,0.0978013876001973,0.18672077032743414,0.2585025086358817,0.333753752843006,0.41815336203265124,0.49991255234441573,0.5571448188875004,0.5782639545661505,0.5671845513251129,0.5422394778593342,0.5204537355753028,0.5067941985913038,0.4964237969859373,0.4772324410552018,0.43607112562278527,0.3723307070448718,0.3048615732905048,0.2526318102998145,0.2123347868386024,0.1759626565159957,0.14531102860624523,0.12837290725873043,0.13844572291202176,0.18124916966372134,0.2462073073935259,0.290446838313874,0.2703041452945599,0.1686834946875659,-0.0002173564475773653,-0.19188456286657865,-0.36599534334050615,-0.49475665492650206,-0.5734888239171037,-0.6190640162861911,-0.6510037313267004,-0.683578681593526,-0.7168383470473535,-0.7476461718838038,-0.7691738636930904,-0.7784131087582935,-0.7810165199656847,-0.7777995576615996,-0.7744773046631633,-0.7697709864115646,-0.7554288415716944,-0.7176684960265166,-0.611384550503992,-0.20690841001078977,0.4593223777208059,0.6112345061499965,0.6077128505872368,0.5593196227857641,0.4777697748528269,0.3498209961219841,0.15174085034425816,-0.08097417581355423,-0.20761284248141396,-0.17754536085633493,-0.08458205813618073,-0.05235294687834266,-0.1442998223895713,-0.3380711180142968,-0.5128131910969693,-0.5861209882458486,-0.5701951585075317,-0.49468618223940125,-0.40596505105665626,-0.3447271341331158,-0.34141440747938495,-0.4045356874613049,-0.49547703755119016,-0.5633633920026744,-0.5804444691149538,-0.5284849027403968,-0.4097130660413749,-0.2501646483368835,-0.07075461466764375,0.13764171065707895,0.3866806854053713,0.5151393689644991,0.5218208128219627,0.4783890474906312,0.39167908642497784,0.28350034623777076,0.19706010732962548,0.13511719357531368,0.0829708233445486,0.011484438014305784,-0.1353483321771526,-0.34069773998362335,-0.313216123985494,-0.24203507511661806,-0.19151600165287352,-0.14432417941543937,-0.09603031390664121,-0.05544387517497115,-0.03144375958669674,-0.018253967843041882,-0.003995385948080931,0.03098324288301224,0.10327558266981061,0.2068722856377127,0.30284192943325144,0.35389244395002706,0.3537531993222067,0.30829481450092894,0.2239531022659777,0.11123723234483505,-0.003761953605639303,-0.08004874050540085,-0.07563560397678258,0.0012387773478765693,0.1079176760764553,0.2060224571531334,0.2686104002257225,0.269411718544719,0.22067830705797017,0.18796965631176019,0.1978881879412633,0.23832519588086054,0.2862480849729846,0.3061459986005023,0.28386310749932586,0.24909651110506495,0.23129561912769084,0.24778997937808808,0.3018104281270477,0.3816354356654663,0.4460840984917003,0.4379934977943458,0.36407853162684783,0.2821555298623094,0.2180566241477455,0.1729215027131802,0.13761215535443158,0.10504525939378752,0.06577320664530209,0.012276480693019563,-0.061083628134058474,-0.15094341749528897,-0.212891881268803,-0.19731709969862285,-0.14177634380550866,-0.06871251151028698,0.05597705531786369,0.2833818073622449,0.430142858675114,0.4770842589846933,0.5021515934264874,0.4744863497107388,0.37723318669742917,0.2619361741532173,0.16745766840308385,0.09411267681664177,0.02608093874796081,-0.057664602994426155,-0.16210187780406973,-0.24957814962192207,-0.2910177218704123,-0.2958274313726772,-0.28672696247446866,-0.27848502778827333,-0.2718911057771539,-0.2656307786223914,-0.2566216944643245,-0.24865953994672033,-0.2424915234620908,-0.23112087404926673,-0.2115206012768985,-0.19644387322376894,-0.20142694392504013,-0.2405777092836914,-0.3256433531624296,-0.3938270073828393,-0.3547736166457555,-0.3033516728832112,-0.2704995130178373,-0.24935254153743733,-0.23166593252988754,-0.2142912039782884,-0.19362988247991197,-0.17232335906113844,-0.15352018918030028,-0.13806069970372925,-0.12962888433623826,-0.13751864265598746,-0.20923529940390606,-0.12081376246389632,-0.014554759940411142,0.010058145294348782,0.019409437979713756,0.022942589782297535,0.02297801784382013,0.019660867240070528,0.01200446262752957,-0.0037214237186264897,-0.040221537044716656,-0.09051358440092196,-0.09524150565865838,-0.08059921077853921,-0.05954265975732521,-0.03383590895701163,-0.0032954644371860904,0.03233799805542584,0.07348378976301194,0.12229462364323032,0.1826283300967847,0.26085978313776986,0.35820780674954056,0.4493725302825361,0.4625696335487023
