-0.17028126838821644,-0.24971425565662017,-0.41688043190744667,-0.5659686964624897,-0.28913055676771526,-0.10599680296407522,-0.009309670316070216,0.042851412500973934,0.061754786434602936,0.04430873455712677,-0.016811634689209747,-0.1200461753821067,-0.22998377795957348,-0.2833127774606989,-0.2667965707417292,-0.21048918226210778,-0.1393757305256255,-0.07385089527976653,-0.028981033228212938,-0.011380095464072919,-0.013188475991585022,-0.01953023214776315,-0.0175400517433946,0.0025979111463018327,0.04643638498089554,0.07120111589888499,0.07456811415175262,0.08556238026942982,0.1133517635892496,0.1648118028085042,0.2451711350521909,0.3538512031712822,0.46816155300846146,0.5141736291118796,0.41993103509121493,0.2523150101076289,0.11678122930334435,0.05160014230166456,0.04709735930720782,0.07379460218511838,0.10419047186880089,0.11318212903319143,0.0771731931815363,-0.03482160871220803,-0.2556388878919841,-0.5105398611275885,-0.4912332788156162,-0.21081158506816153,0.03258793433110119,0.17844633630407203,0.2663507263800762,0.32763085240484646,0.36230838493970385,0.3454493134222902,0.2825741815408123,0.2142756734602542,0.14859903815390263,0.060947412447653726,-0.10081802745199683,-0.2986709300357401,-0.4561685956728515,-0.6008569319159259,-0.735378092596462,-0.8356939671488102,-0.8880303884610079,-0.9043676487564655,-0.8997035154719022,-0.8630838042307962,-0.7339324000672965,-0.47702649762756555,-0.2422942937142682,-0.10234764012540931,-0.021774319353086626,0.03599282014323356,0.09712054264701074,0.18541009090602764,0.34093420908559774,0.6259654421199912,0.8792473875536455,0.7934849482103413,0.6406102473545056,0.49769125368469797,0.3291030106342785,0.12276308523712372,-0.0537638157368093,-0.14572054377201527,-0.18515687877940823,-0.2327721976557069,-0.3421131278915465,-0.4986089028588231,-0.6122865198962016,-0.6659167176462515,-0.6859577213584991,-0.6829031880445153,-0.6565761449093802,-0.596784811174894,-0.4967924065064629,-0.3801398318103581,-0.30228825777962076,-0.30000905043183923,-0.35204254349987457,-0.40070475904976666,-0.4129117177758964,-0.37328553165462064,-0.24857039457139685,-0.04958447456519552,0.08328793214938969,0.10768155895116933,0.07228629311495191,0.01286707398407124,-0.04905983008205208,-0.09950026891654688,-0.11152346826297468,-0.06476774103422488,0.017864555194064363,0.10594403814234873,0.19517952559971186,0.2943552682883181,0.40955283311984214,0.5402999046403202,0.6639535347352525,0.7540551032779291,0.8158932813621976,0.8512730553780474,0.8607047678064451,0.8388625316542928,0.7343760754689553,0.3911464762036479,-0.05070724031538222,-0.268860374207192,-0.32466765300948414,-0.29823379933834787,-0.2188108056566818,-0.09267814689447287,0.0865171505880547,0.3178162693965673,0.5526148988260222,0.7257985831247535,0.8182097618608211,0.8407020629929608,0.7923031080666296,0.6579185649943713,0.4461113593970425,0.20559000737531605,-0.027658290543207953,-0.2370247908366613,-0.4015724601401567,-0.48847617246928166,-0.4962085466257062,-0.4681260664433543,-0.43350647029082273,-0.4009765713185305,-0.37297798295893764,-0.3225083508443403,-0.16790365406868873,0.14502519467919334,0.43617515400852297,0.5928834155429952,0.6684178410771883,0.6774168500755146,0.607121979960038,0.5032577971257324,0.40643900011866274,0.32018027426525,0.2451913038013677,0.1853692996307121,0.14568020038792423,0.13319016618193247,0.14952546200346517,0.18789763227081335,0.24480629068695492,0.30042958433646877,0.3089297740074836,0.24574018457214783,0.13663288966781054,0.028555375345312203,-0.0577618197090167,-0.1261906493826578,-0.1925583719374871,-0.2879357239824698,-0.4853044343076424,-0.7399732629188601,-0.6126997951773394,-0.48929004338513726,-0.4369740512881288,-0.4079360563815511,-0.3839322020894631,-0.35733293590492693,-0.3299859012441692,-0.3065289925988753,-0.28885134181390354,-0.27545637229754316,-0.2622166046908801,-0.2482464444969962,-0.23326753050331828,-0.21927885582530288,-0.20709733752667894,-0.20328406835578533,-0.21376466354491755,-0.23741916740693322,-0.2485160551668149,-0.2101640270043074,-0.1346577588648825,-0.06742568310862242,-0.029103088572960182,-0.022941197229525867,-0.04068082631278252,-0.06257116983851387,-0.06698934093910403,-0.044076412774367475,0.013265250835674694,0.12422696372095496,0.3132517187100932,0.3830758171525278,0.32106278327243665,0.2605672610558125,0.2124109293591621,0.1690446548047049,0.11618346524131848,0.053999604527680975,0.019358735782955883,0.022694300353474472,0.06068334890578023,0.1343397137305736,0.20254955055528517,0.25153420038243124,0.3333573738869243,0.495254474915581,0.5242357676695987,0.3761257236622542,0.3136697676723016,0.3143373939164869,0.35629562282511423,0.41736014059404425,0.47510359980996797,0.520160829099638,0.553718677478335,0.5755001252178406,0.5762242566551901,0.5480540766345133,0.49408804203999923,0.4234903578571058,0.33950365016029094,0.2451368284929952,0.15299074195832818,0.06939562597215301,-0.006637160518494443,-0.08099590657200711,-0.15615528196622872,-0.21996215221375456,-0.29728137506174335,-0.3811872591068693,-0.3497724028650973,-0.3153343212270111,-0.3432138208954685,-0.4494708119701856,-0.6667811029797097,-0.8022438098088018,-0.5982241159247732,-0.4605510154987475,-0.40505132564441687,-0.387560762950269,-0.384699386674638,-0.3809722506045069,-0.3615668884489213,-0.3182565999250988,-0.2672730483414559,-0.23885025309972333,-0.2476923339631989,-0.2930275245852107,-0.29696350449032405,-0.211166713391731,-0.15375703250884756,-0.1345156232852504,-0.1413331265488605,-0.1696853206022263,-0.20639599220688248,-0.20639508630851958,-0.13820913924957134,-0.028922509057641647,0.07686361095392599,0.14349647273599103,0.1612555777363411,0.14708227537561874,0.12425182683988659,0.10576585061568425,0.09879154966598017,0.11416190298012246,0.17606670861066276,0.14356480116395925,0.05880990082297529,0.026866725557533378,0.013896069865219284,0.011186294240691725,0.01824347461466585,0.038678803671890645,0.0780736816711826,0.1358924902852762,0.2001508133399653,0.2548560887824753,0.3062267275669917,0.34727218541163657,0.05010736887301934,-0.0800366006403495,-0.11482543779031137,-0.1211177033197913,-0.12309844344095791,-0.14931953742690868,-0.19931690034437205,-0.21983708529154586,-0.18045286783912254,-0.07613046119106587,0.08703414421444505,0.2762707665957046,0.4347268990761286,0.513024118982001,0.46671673348696957,0.2627423464963783,-0.023494820870200234,-0.21073780963676347,-0.18470366973974103,-0.051522514052310876,0.0739674437466166,0.17299880273930274,0.26258512379138366,0.36320685707840145,0.4886377202912337,0.6286730190461635,0.710201670220998,0.6798226508159819,0.5972295107340981,0.5135785853175026,0.43490909336400446,0.3449577705642057,0.213707155221264,-0.01670928480955259,-0.4034834137817716,-0.7808328650769517,-0.899416396815057,-0.8758970245088737,-0.7993033404686791,-0.6715580546143988,-0.49748443590144675,-0.32420725380233706,-0.2005367468334433,-0.12612943247733555,-0.07897723348731286,-0.0391609740411932,0.0015951613699028036,0.034574323244771527,0.042312923806927055,0.007234512996229888,-0.06913961637749551,-0.1630801926335366,-0.24316048815577773,-0.30125504171423934,-0.34791000456544363,-0.397852058645257,-0.45876486196224453,-0.5265756516191651,-0.5866974863343092,-0.6216609097422198,-0.6173038177461314,-0.5781561358076839,-0.5250385437076178,-0.48510919638180566,-0.4777867617506319,-0.4372023629572509,-0.3692039816389991,-0.37148038542858836,-0.4292062206520829,-0.513121828876614,-0.5714159797840654,-0.5389305978436976,-0.4762747443186597,-0.4815849018076228,-0.535374912182642,-0.3181089827223281,-0.16037207074288237,-0.08851709583420098,-0.040131702822518316,0.024737659057474968,0.16211260548516562,0.3737846622112615,0.49417391497372615,0.5309278271423161,0.5460070524488954,0.5585264829664841,0.5795317590453839,0.6114362199463679,0.6529442434850673,0.6947373570138463,0.7296668763203288,0.759041326922131,0.7808891336721734,0.7896098287165619,0.7844034201801923,0.7799506876011001,0.7846080232177367,0.786434196007259,0.7581899465586166,0.6711897495444412,0.5345785062380953,0.3929841361463947,0.26739510105350667,0.1556141372846485,0.046692536689167397,-0.12023479760599269,-0.2987876399827543,-0.168130080804969,-0.09414006446345005,-0.04627958517687673,-0.010921785030421328,0.0173432366094007,0.04092188096324682,0.062022745489232076,0.08296224270924862,0.10896000487915787,0.14237175565907975,0.16136095508567574,0.15658019169157653,0.16132502653689973,0.17533993586479774,0.1616880740193624,0.08156087647455583,-0.029959550544468923,-0.12900235848347902,-0.20114971361862855,-0.25503112017512675,-0.2985306383014144,-0.341384250152371,-0.3987284989564091,-0.46750517042295053,-0.4879166671845724,-0.44108884430829104,-0.39486816538386416,-0.3915086287950857,-0.4630826640178898,-0.28874603609020605,-0.08781323691445062,-0.028319155945303872,-0.023847488700008072,-0.08200334073074014,-0.2913668306485944,-0.5595759068212377,-0.56308534678615,-0.5353778072192735,-0.3504306766793345,-0.020251189832289674,0.1971979379832349,0.32896799588493925,0.4211425653121725,0.48962589626395764,0.532973885098592,0.54559875449649,0.5153831421717795,0.43236699856763516,0.2950862135873815,0.1352619956974087,0.0011670428342827543,-0.0831451599913803,-0.10782956855250814,-0.06841757098793776,0.040556030784891575,0.21680242069845806,0.3480315821384383,0.35234956320933875,0.2618687889275607,0.09175738358325852,-0.12290205938271692,-0.28566363477650275,-0.3211236297722995,-0.29227207080862816,-0.25881123905864395,-0.23224824970414856,-0.2039675752188949,-0.1581793832506463,-0.05770310984905417,0.12142963180492576,0.2388231429277288,0.28023994967284577,0.2928407056593195,0.2871402382844031,0.2649178731696729,0.24227837840674216,0.25757440066488646,0.3896068141391919,0.6951857794197134,0.5964527488836615,0.5107788083878944,0.4842306748071551,0.46313392828903943,0.4216806200189472,0.35280273036609194,0.2624901292622494,0.1657138950597331,0.07686021162206587,0.0058846631045813055,-0.035908237287432136,-0.032564416877661394,0.03765052877229356,0.16695491386990993,0.2715773828849931,0.27964320534657927,0.172053675482765,-0.03945189995957766,-0.22232207236360846,-0.2698012556514611,-0.23194629315521045,-0.16818164906862365,-0.10806239459010183,-0.06817832083232822,-0.05706875998467485,-0.07254732306015133,-0.1025946512909172,-0.135052999789958,-0.16313776571143124,-0.18887671403587875,-0.2217959607715171,-0.29397330561510127,-0.4986878541382254,-0.46438807445792557,-0.25307170198449663,-0.18038804020357782,-0.15398703408210745,-0.14751726411309155,-0.15436822586102986,-0.17327276909030687,-0.20801200714527485,-0.2691461785716458,-0.3529298920780892,-0.42334737309176457,-0.4609897875370092,-0.4738698302495758,-0.4703440030011953,-0.44701145385134017,-0.39512141592282735,-0.3098232661141586,-0.21536788936095802,-0.14864836012712895,-0.13131896102682145,-0.1709975484030412,-0.034034630267903834,-0.012292622923468334,0.007990574977772478,0.052120142876672826,0.14925347199661088,0.33846301368425946,0.5878445057514535,0.7011648605756026,0.6599501243241088,0.5644313642926888,0.4544223447448484,0.3480205670119567,0.252615603703931,0.15002069044197436,0.07365981194574032,0.05986921798664518,0.08437674534453504,0.1315668173742596,0.1786436200714335,0.18758500042329468,0.13500132750217742,0.031023664886065883,-0.08518035549533284,-0.20821039202279926,-0.3397886205319066,-0.4671174683454167,-0.562481343078067,-0.6234236149243504,-0.6778166320011931,-0.7438927532261258,-0.8065325018852643,-0.8193713293153265,-0.676228469982792,-0.26026532703500244,0.12733886228846597,0.29742033649817073,0.33220576353137,0.2314507031978146,0.002794540936857091,-0.14562054179527162,-0.17425801265465465,-0.14723041893978023,-0.10774013873543331,-0.07408296685632416,-0.05120481059725032,-0.03945089654279422,-0.03679321539786277,-0.040703628140835696,-0.03695732254682594,0.10242263039478502,0.12329546052958122,0.14174849715622437,0.16210407348300895,0.1798533834231559,0.1891457946662475,0.18678081746193603,0.17289350607885132,0.1527323910678779,0.12936946473873792,0.10517055157282872,0.08136165638513536,0.056460059266748894,0.026041849349330754,-0.011694147523928724,-0.05413860691591771,-0.09366616571919924,-0.1018530710537689,-0.07245863313117537,-0.04865095060601089,-0.04235651842919448,-0.05221063865777715,-0.07722619264411136,-0.11294415988738943,-0.15469884534666747,-0.19391123134107396,-0.17235877146594147,-0.10419833107842173,-0.056992673128279214,-0.023871727435999558,0.006235764642654126,0.041551936567841154,0.09254483525245787,0.18116656423530497,0.3546371244145014,0.6438737164434699,0.8412648682068177,0.8578278837856327,0.8455226327398355,0.8398395965369472,0.8378919222625446,0.8357700956350537,0.8313021959263229,0.8213286171799513,0.799410090445982,0.7579648617187833,0.6946368258282062,0.6150616649304788,0.5222604272248339,0.40657244051744984,0.24236916642743334,-0.010314603412369665,-0.3501324880771608,-0.6478281946488331,-0.8079225816765448,-0.873943160540304,-0.8977382585202314,-0.8996654794044925,-0.8867642722627067,-0.857270869955035,-0.7989144194116038,-0.7031465541657992,-0.6006322382372826,-0.5300042497984836,-0.49652492792083913,-0.48718392444995395,-0.4882643362700096,-0.488734770922901,-0.4814619015450404,-0.46750054967530635,-0.4495479677049365,-0.4305905343535746,-0.39731195493558774,-0.3267066765130305,-0.20830789513016654,-0.07008342850957146,0.03443729269721969,0.07014406720086636,0.047988965480674224,0.017767988615652423,0.033582798815137864,0.11319168044587834,0.2763484483842107,0.5122796644326979,0.6746465151977051,0.6274124409260545,0.48354853115331414,0.331488507581479,0.19754199828739552,0.0897820184255523,0.0005638710455941343,-0.10104907199448007,-0.23385848865917797,-0.3619931259498721,-0.45744071488540955,-0.5387190193645189,-0.6104005750455711,-0.668021437929044,-0.6995933068331366,-0.6848552482614328,-0.5994978954280085,-0.4346029418391301,-0.3014662519897471,-0.23087747075967754,-0.19384452743164202,-0.16629455609046886,-0.12280906645990931,-0.024482462057889644,0.044205892397959495,0.04965341772239252,0.028651942780889287,-0.0017866106399868924,-0.024730577361885716,-0.03390301373546701,-0.0338680953884161,-0.026584907876007147,-0.008932955210267502,0.017036970754217475,0.04699707314973333,0.07724895292523758,0.10664254993331401,0.13300904748800046,0.15337995557581616,0.174528472174816,0.2242308976080061,0.4109119319332819,0.2902255314856802,0.14095534629864356,0.0960002839202546,0.07575423078821904,0.06509913331599974,0.06137775308584556,0.06968541984246655,0.09715451272210072,0.15379259299787407,0.2512425179286945,0.39753230320638067,0.5291875360872017,0.3927707057559524,0.13315052044135142,-0.031550903385813525,-0.11362538755874518,-0.13245086846090348,-0.12175023535839588,-0.10509814435846328,-0.08883518214577162,-0.07999735347606804,-0.08909101451037035,-0.1192068688741831,-0.14772475238517183,-0.1546242647219501,-0.15818467298878458,-0.17811097574391085,-0.23018884400880638,-0.33110319807925387,-0.4659786157727263,-0.5437623677329375,-0.5280626213661918,-0.4623744311741815,-0.38440952419260216,-0.3204156120217432,-0.26705743424127204,-0.2105913938567499,-0.15202389518323162,-0.11064236612474948,-0.11218115435639459,-0.15145180421025675,-0.19949503804616314,-0.23115632965358204,-0.24187084637402723,-0.23997193907769618,-0.23663426970372947,-0.24008585401674387,-0.25787011236947494,-0.30405276531048175,-0.40478823209952874,-0.5460164086916048,-0.6466358634750914,-0.6856295009367381,-0.6863543226157609,-0.6616440407308324,-0.6099761755308938,-0.5148909182513269,-0.3129036945347915,0.11943753867920522,0.4778718429043096,0.48290309261999737,0.4238146798654501,0.43193369806521875,0.572558078660935,0.7781718494818158,0.8953825272280607,0.9288079778796999,0.9317951238525812,0.9215375309167,0.8934533090912053,0.8281081052139871,0.6942279593053449,0.49357782674517736,0.3175194215738697,0.26223810793226804,0.34904640109922686,0.5310294506548408,0.6442622749553774,0.6239963721234852,0.5577138563000589,0.497945498954766,0.45688331730338994,0.43849301336812285,0.4449515745718584,0.47832654107715233,0.5414833851510465,0.6236625664650671,0.6235277571827129,0.47480006265808494,0.3616774798026782,0.3215332014652968,0.33060930020441137,0.3985145384558756,0.6850579475373068,0.38607051074786275,0.080726292402347,-0.006332576587204711,-0.05293879347258516,-0.0938189770102475,-0.14508611854492623,-0.18005558944165995,-0.18371972586373053,-0.2418586313649181,-0.3774612133958213,-0.5284149028467418,-0.6063802890004631,-0.6044735756992843,-0.47256377009935424,-0.31399711070282005,-0.22117980412006774,-0.18381856291595852,-0.17739768235201744,-0.1780298387324269,-0.17586583342768589,-0.1782333317672062,-0.18980770493908358,-0.21086692836325122,-0.24333529301222592,-0.29042236380741815,-0.3542962863130439,-0.4099007805291471,-0.38205392057840026,-0.2733789985288833,-0.15794901484711713,-0.05792733198517054,0.024358167572062623,0.0780697162083092,0.09799958276030175,0.09550100721692835,0.08804880955998859,0.09146753012364243,0.12502303351078484,0.21195284211532817,0.3452897541578357,0.42249278060569284,0.35430520472256033,0.16685321318125465,-0.05963806078740726,-0.24094481183691308,-0.3770741959164532,-0.5070314636263892,-0.5824549872744853,-0.4209749554649039,-0.2769049023321735,-0.23281922580400302,-0.23791113718894769,-0.25587131177376676,-0.267999831038294,-0.26441583840972355,-0.23994851387868327,-0.19485646170835091,-0.1171573350519413,-0.014145149447972101,0.018626550737463277,0.005178713154641109,-0.012487861456396647,-0.033180368730579654,-0.06655690642239198,-0.11454437123810672,-0.17499392802340907,-0.23505838936251053,-0.2796862847191222,-0.29758954283458583,-0.2918377502728973,-0.26285609082216926,-0.20649287663167215,-0.12341616736255076,-0.03481825636395241,-0.0007144476100463119,-0.07750074488949796,-0.2856750856113182,-0.572344932027666,-0.14803671388283615,0.06445959726368662,0.15791187606983195,0.1956194296265861,0.18835628281022776,0.13711512744668813,0.0403986620060892,-0.08786414981074091,-0.19157502100984075,-0.2162872548491811,-0.18354399393233956,-0.1333203849841774,-0.08213765755065808,-0.02118204207542029,0.0745180861719676,0.09363460228516773,0.011220671976818008,-0.08254177625674025,-0.17804381401943528,-0.24127922179011732,-0.20236353709938554,-0.02013104323419467,0.18240921402913,0.2717071763327046,0.2734513171985123,0.2471968093847166,0.22434965883559382,0.21396189421997486,0.20902536966463678,0.19880351847147715,0.18064804829919004,0.15818115058283114,0.0970720706771171,0.020844017733050293,0.004713019514683601,0.006298499450569051,0.011203188494300324,0.01585883088859293,0.018527273652652866,0.015514539443741236,0.0007830939782544255,-0.02915261834985482,-0.04766426990089964,-0.0332712302941428,0.004180062878586551,0.052524393094122976,0.09687833189183179,0.12298431661931382,0.12267330459768795,0.0982145794268044,0.06102655412876543,0.024414071403475044,-0.006510613479127342,-0.030841424622152162,-0.05090937711588067,-0.06923578058381946,-0.08651306457746458,-0.09983156841527073,-0.10242913216544035,-0.08489806914028483,-0.03603004718995115,0.03970355241013316,0.09715248365725036,0.13990256218234567,0.1974835775429462,0.3035016508353862,0.4721963434242181,0.6551929934481698,0.7545408653728806,0.7466594139649763,0.6735388027419017,0.5755590563230807,0.47353160977028025,0.38023929686716734,0.3002355092464549,0.23192035212351647,0.17105525624732115,0.11423226201166031,0.06456922421419738,0.02404235506477219,-0.012481212675363135,-0.04318138775150187,-0.04602203789596287,-0.0365677548512998,-0.02850084064223562,-0.023411930599482562,-0.01627621529866475,0.026345930372143708,0.2704299644448315,0.32919772669164915,0.4243139664616818,0.6226928483531883,0.8538141286765463,0.951154524114604,0.9370375169858399,0.8934341023810115,0.8279026525792368,0.7044434659973402,0.46657924317526894,0.1460889128991401,-0.09755006304219847,-0.22076753531705695,-0.2778691655938663,-0.3207766133556857,-0.38286576174757597,-0.49073109466701564,-0.6411915950967544,-0.656100071921796,-0.5016446012928301,-0.40032860349477156,-0.37368445428684827,-0.3875424783664464,-0.4005362572397029,-0.41047934886766346,-0.436667145828715,-0.4806294996398561,-0.5301250029731989,-0.5637859562052381,-0.5650328313248362,-0.5397678171419731,-0.5004088329662814,-0.4413024660712773,-0.3156941526343092,-0.017157485320913667,0.36813788535257463,0.6057951732931759,0.7044887795640205,0.7133652019120621,0.6605592983473811,0.5479269478706065,0.3713897830893546,0.185554846020064,0.08634871142826703,0.0951431630079558,0.18326495913573396,0.31344348840112685,0.43461096740426985,0.49687936437760166,0.48093520001607326,0.38500870892451156,0.19867152852267525,-0.0768772850129241,-0.3707150285742931,-0.5431119693365298,-0.5721373617484388,-0.509452864664808,-0.4115223392641459,-0.3133867304877423,-0.22468166571261666,-0.15440040119249063,-0.11588643429157443,-0.11267356066308984,-0.13359400438714022,-0.17456162215265156,-0.23925961972436005,-0.34057212679494425,-0.4929402148545011,-0.6379478580386317,-0.5768978868438722,-0.4475881599215001,-0.36699069463670214,-0.3188733872381819,-0.28290638350980074,-0.18178907074672512,0.032992415829818884,0.10440668376580889,0.13426148550349667,0.16231052195218248,0.20721497026209443,0.30221533804489636,0.5255110438362907,0.8202617295376755,0.75143808554815,0.6919453886434946,0.7115985640370405,0.7691222597394222,0.8445525008395093,0.9210799662266093,0.9473781175464563,0.8279813448150077,0.4935102675915976,0.09838493316517542,-0.12265804970687441,-0.18539958635456852,-0.17453022280692765,-0.13771256505967508,-0.10019245500347967,-0.08317617611044865,-0.09557159861904516,-0.1292195970033075,-0.1740298465343449,-0.2323660547892713,-0.31267396876421827,-0.4070035384371297,-0.49066451832595126,-0.539229814852068,-0.542717622140179,-0.5164731141128225,-0.4820074884769785,-0.449752059668411,-0.4046193919158205,-0.33478586530673204,-0.26286615207152375,-0.20359035788935662,-0.1528436758634323,-0.10357180872466779,-0.04621476604757031,0.03969542622951192,0.19667736459483248,0.42813931466455796,0.5046373672735683,0.47703586864487857,0.45971759018449315,0.47295733419930397,0.5082012267009155,0.5011052648332864,0.4368644112061725,0.39014033097087886,0.3789465863719558,0.39412320048379357,0.43632862229552866,0.5094373603129131,0.6096912333759367,0.7100989008895371,0.7661211189028998,0.786926007274243,0.8071629105555338,0.8266129209006079,0.8219571504405518,0.7812606138859471,0.7116601789094499,0.60918959997119,0.464122509650982,0.2962629719528635,0.1662298756317042,0.11959763238287739,0.14914736213143145,0.2108334822293566,0.2689393205477038,0.32469262590387715,0.3803032333116731,0.35430825271696864,0.2221651528369557,0.1386618256161115,0.12045827212801394,0.1478769975015737,0.1875798986452136,0.19059484723117465,0.12741696859612733,-0.031145232881743087,-0.3618429853603941,-0.7563831886354766,-0.797705123248442,-0.6750365988897952,-0.5258067927655113,-0.36572018408273194,-0.2260335380354195,-0.136210557225087,-0.10158424013993503,-0.11167988101062046,-0.15478934734833533,-0.22180981443211895,-0.3003068804920681,-0.3683852326796586,-0.40175804473237514,-0.40013528547942306,-0.3864403484868444,-0.3801682763906371,-0.38203354401231976,-0.37843564340781405,-0.35385918987290554,-0.31119803838877474,-0.2617054022977176,-0.21525828470865863,-0.17809297027854376,-0.1767244786853306,-0.21937574933812734,-0.2806868663066281,-0.3399211833888905,-0.390275006927619,-0.43784450925395924,-0.49461947901503917,-0.5747027439860736,-0.6776003022834353,-0.7513867118346075,-0.7264830895101195,-0.6036219062825497,-0.3794422851378104,-0.07683343089437895,0.22929582724460415,0.5285939329816931,0.7461070625613343,0.7802638870671303,0.7404744147189561,0.7220017672588447,0.7448486310024292,0.7913283034365288,0.8043151297036537,0.7580065821715601,0.7040775528948109,0.6804581958628209,0.6659280213338991,0.6077172982671577,0.49251229999547486,0.33860252035336713,0.14912955385003293,-0.0653531080190895,-0.25689659914153984,-0.37761652658707867,-0.42269078983956526,-0.4122817694077044,-0.3733188316677474,-0.33508192958420535,-0.32124907382834306,-0.35080280819536164,-0.4425291720164938,-0.6308843187369285,-0.8725545420353066,-0.7151692629887944,-0.44849621881117196,-0.30329818586692925,-0.22742033077865131,-0.18591870857787382,-0.16489289836012908,-0.15983759512206228,-0.1673886253444375,-0.1764066727798341,-0.13712423851835398,0.15065804421227563,0.44863593431073456,0.6321172137678092,0.7852448979626199,0.8774175269320766,0.9041377762555609,0.8901686152192205,0.8486044393824146,0.7826015651145335,0.7154048293521924,0.6896735233580804,0.7194242581351737,0.7227287596032888,0.6235771434919614,0.4911672133602938,0.3875957900647771,0.3195902502386716,0.2723799893751916,0.2114393034353389,0.060648754001793675,-0.2584738476074053,-0.5512533332973112,-0.6424376574705073,-0.5843618160577317,-0.4496162353544122,-0.308886404331462,-0.20449197554784254,-0.1375259061910542,-0.09867083556501996,-0.08521185011001198,-0.09428769931223177,-0.12518347671067473,-0.1662618251148258,-0.1709721932756108,-0.12992153079742022,-0.07692672503328835,-0.027246354417572723,-0.0028710144198416305,-0.007327458605722548,-0.021075587474802683,-0.03151870144195404,-0.03503230462122422,-0.03263121524147978,-0.027095497207428734,-0.022520702837658342,-0.021134850786133967,-0.025072771443043915,-0.03450902098844764,-0.04932350067608539,-0.06400349554272454,-0.0713429857778515,-0.06678239111112186,-0.04559488023062237,0.012540076149528515,0.1898837725072839,0.7529425834034414,0.8234000042346135,0.6926049233972456,0.679807317623028,0.7317005380808547,0.8083927754540813,0.8531730830869202,0.8271094928095658,0.7529111799767214,0.6661041521115294,0.5860183222450712,0.5159027465040106,0.4590985960938545,0.4180894649726025,0.39298917378971926,0.37992734819547735,0.37319626768930314,0.366657608103937,0.3471482161836096,0.30066866162593103,0.21360478801970684,0.14422513703443487,0.1912998931428725,0.32066441653194017,0.4552965205807078,0.5223921517905605,0.42808298552346563,0.22948371677524504,0.0643002318816148,-0.054741427249215546,-0.15207379861062104,-0.23769494694302157,-0.29392475154344877,-0.2909805581502888,-0.25152669416842727,-0.20970156043619034,-0.17302283335987748,-0.14392601148076842,-0.13235674136234518,-0.10964555379859349,-0.059799453564298125,-0.04411512117585488,-0.04465376555043094,-0.056589658696750866,-0.08319406227674843,-0.12248786524873051,-0.15656680798883243,-0.17462911969992678,-0.18613340044607052,-0.20317696922891404,-0.23744342097615684,-0.28922699757275905,-0.3328464277402913,-0.3642681066289117,-0.39641742680343284,-0.4180084985372016,-0.41691490847452806,-0.3918857996249835,-0.34871019611697024,-0.29317912663310314,-0.22569995764769318,-0.14324421784274485,-0.06526452384033057,-0.045822127221043306,-0.06423882856711058,-0.08800991770000045,-0.11013052524267315,-0.13235482086523534,-0.15331657189173314,-0.17000843819178804,-0.18082934490490749,-0.18607899003895356,-0.18429823496091371,-0.16864277412793496,-0.11809125212845589,0.0028362233013565427,0.2032503120596532,0.3629010438721296,0.36191284822870556,0.2788155726206177,0.2084550511654219,0.16528415646957575,0.13721775804853503,0.10819613779117414,0.07100229338460423,0.024963725378852542,-0.023856895733725646,-0.05859904049424065,-0.06229412510336024,-0.028365406504776335,0.02706104837216629,0.07464247285182281,0.0974954189040006,0.10045064077988702,0.1217051731838041,0.1415857968905445,0.16761950679457607,0.21479320972998325,0.274390225460869,0.3494934862004127,0.44441085439400546,0.5547726408454746,0.6638270152041307,0.7399153518780124,0.7586863347884857,0.7300668812971403,0.6791441237959122,0.5979245418860177,0.4808949743966565,0.38049631848653503,0.3145076936724643,0.27036011389889153,0.22724557243685142,0.1581703592369404,0.03387657657688871,-0.1425163353966362,-0.30831950326583857,-0.41742424443865106,-0.4925435822032694,-0.5713843728042206,-0.6655768486227579,-0.7600817154604305,-0.8260276508421471,-0.85038507665811,-0.8371833824276453,-0.7842403659728664,-0.6723447595861792,-0.44744220825563963,-0.021535509593953766,0.48415152828426994,0.7598527312365935,0.8598397310138601,0.8957574887362024,0.908650263484782,0.9065475989424788,0.8886131877881154,0.8487078111792948,0.7800794859027159,0.6820378431929298,0.5618969810234548,0.4411539164957872,0.3390454059805776,0.25109307606726283,0.0785147348427997,-0.33636182684036764,-0.593294703295568,-0.5981660270199071,-0.5795350243018212,-0.5768812840756705,-0.5911099345542525,-0.6163010283218532,-0.6392371420003544,-0.6410465744601458,-0.5893707316963543,-0.479323132162983,-0.3865002818728238,-0.369485369801258,-0.44016108959020106,-0.5630020669055963,-0.6495379786529851,-0.6754362169080679,-0.6785127307219317,-0.676157328765193,-0.6710105085831773,-0.6618168673723972,-0.6345983175751738,-0.5322274632797606,-0.3250363494888661,-0.1474529840111534,-0.04862623360895505,0.025471596777184167,0.17459472898173353,0.20982018575980593,0.18742122108336962,0.21139741116613567,0.30379144624701804,0.6134739104504034,0.45681620523238337,0.24187229291633996,0.16203441233839802,0.10987968754450293,0.05268142539926003,-0.024797249928306408,-0.047990522068605254,0.06229557372888581,0.21811933076741563,0.37711218803475405,0.4906633981527785,0.543111502208994,0.5461348097309109,0.5132585250629561,0.45417391247007866,0.344116576413113,0.16591409043361335,0.02432218128086704,-0.05253234865530938,-0.08715838951554061,-0.04785791040806394,0.08188683697493047,0.15663060878013804,0.20235126593277875,0.24560806291006054,0.3008635230034989,0.3653854961849648,0.345872433584203,0.1393718516352266,-0.06846590771960631,-0.28847251602546314,-0.4814443117340474,-0.6146534364781435,-0.6321656523961839,-0.5573176700827015,-0.4918075769348311,-0.4544486367508967,-0.4362160075149272,-0.395388621047121,-0.2528072716012459,-0.08307485770312283,0.03189471065925441,0.11238442935938274,0.16526892831209403,0.16187262099856586,0.1296382697038052,0.10610695790137505,0.08925550158160245,0.06430630746240598,0.02660736618977597,-0.022567093721994055,-0.08232072507721008,-0.15190926544757744,-0.23664475657708497,-0.3473448652767369,-0.38246039498505224,-0.15980179299985484,-0.04732785059803627,-0.043578651169555706,-0.09745631422678248,-0.1752630883798479,-0.23556151236666267,-0.26460926548993763,-0.2657798515804298,-0.24750555378709943,-0.22595882328509106,-0.20686117057963585,-0.1912510178134162,-0.1728624907744463,-0.1392817766500812,-0.07953812076276551,-0.0028270163831646457,0.06554844075909695,0.12160991316093764,0.17764082524275301,0.24999507425526352,0.35515384684184975,0.5024129940406062,0.6386386167958193,0.6675468719829739,0.6177997281686963,0.5593879736023757,0.5082451534197115,0.459746238899648,0.41816711911815324,0.3853346259406421,0.360228771703189,0.3413305917019731,0.33014871411887725,0.32927418540814374,0.32399105631275993,0.22077933901304936,0.08906793500524005,0.024945117136131883,-0.008348977791358748,-0.03487711796702123,-0.06731888163871856,-0.12260353828809675,-0.23259164013659936,-0.395405788124778,-0.45303335777433146,-0.4663473760150601,-0.5896038852584906,-0.8895241534816175,-0.5821888186573287,-0.34627637559530045,-0.2464952221435654,-0.1851111348892972,-0.1096049772456523,-0.00045976685014594476,0.0641519794633549,0.06592141244603174,0.030612393611582224,-0.028444248251775536,-0.11344064695932643,-0.24682195961474737,-0.3748105053112657,-0.3421753084141986,-0.2868405007408683,-0.25751989650388696,-0.24677010108267886,-0.24450865120023,-0.23824855078851256,-0.22197069409669243,-0.19613980362791358,-0.1666486546717764,-0.14684956041799585,-0.13846189842242557,-0.13122020266674927,-0.10766047658611366,-0.040967937758649535,0.07998173070400845,0.22024075897044956,0.316444352299373,0.34352340530905406,0.32305023535245525,0.28419839313093875,0.23603469129710805,0.1978018904437431,0.18776266545390907,0.20013026414338725,0.23192864054244686,0.29191001237638853,0.4040110736343817,0.4983167801505652,0.30283422501274765,0.1615620442397543,0.09763518093573681,0.06958300949537227,0.061360091207418754,0.06255991593051083,0.059709617556126623,0.045568938369761475,0.020308467144206865,-0.0207379452426238,-0.09380102701464625,-0.21839454021266236,-0.2650405897793146,-0.2064814612728328,-0.14209103217744057,-0.08270536203972888,-0.022360237478347502,0.042890186102564364,0.11875336537546123,0.20663151744321567,0.2991791499635773,0.38474279498572117,0.46471864955691844,0.546565510009202,0.6181662730274134,0.5924209208306671,0.43440880717644786,0.2492058452468282,0.07489468766075057,-0.07869423655598111,-0.18600244643812566,-0.25305972421718737,-0.31900083536738566,-0.40837541480179723,-0.5044970341575118,-0.5481064603905134,-0.5127393153311605,-0.4607039104203646,-0.4303405188801106,-0.434650919496608,-0.4775924422422706,-0.5657098859794519,-0.690061381491582,-0.7584787261089188,-0.7167207455307507,-0.6719679495232804,-0.6593748978795219,-0.6561348143865634,-0.6451029424406363,-0.6235487003152631,-0.582883076202014,-0.47892746340213216,-0.2784776255985672,-0.07510974952954229,0.07842003465419818,0.21530098600620085,0.37497534770873825,0.5641461407440588,0.718851963354411,0.7796042571466599,0.7705400765739872,0.7148165434776471,0.61842759851961,0.4947410448030027,0.3710976239621885,0.27092318854748404,0.18362173889958605,-0.05942831414450852,-0.08558894667670068,-0.07505001711334022,-0.06979692690404404,-0.07875163983095688,-0.10428210794425954,-0.13988872978786232,-0.17544389947911201,-0.2027920050329497,-0.21769091673867025,-0.21563410530680527,-0.19825980254746908,-0.17716944026148992,-0.1625951548634786,-0.15650251847468696,-0.1543329928921491,-0.14191897446472324,-0.09861894724811489,-0.011146699998674233,0.14258402105424617,0.41182417137874067,0.56857294653064,0.4440147687782258,0.3283875956761065,0.25918542085750235,0.21932965781777378,0.19563488413244678,0.1806332897282209,0.16747988187101814,0.1632130782941422,0.17626706293211492,0.20412486723007264,0.22778807967722633,0.21369757496180006,0.15558379746245957,0.08829587158777491,0.0309804445981556,-0.011838258498431859,-0.04024629281706663,-0.057141264161423594,-0.06036305331559703,-0.050384159929496346,-0.04372018937869475,-0.05405855279742811,-0.09580439954726361,-0.18182818855657912,-0.3085457806185238,-0.4495170062530987,-0.5605611702817943,-0.6205852715064546,-0.628059148259543,-0.5793209626021428,-0.47903938941112034,-0.36413415702703883,-0.27682995700994395,-0.23035448794576505,-0.21154267290826953,-0.1936455464714556,-0.14990907741829648,-0.07542976928273523,0.02452254144764803,0.10876138511724484,0.10751009429582017,0.00403289433536638,-0.18488766454443198,-0.4034924931924611,-0.5456094170462334,-0.5980635814020975,-0.6047368882146437,-0.5936501089616834,-0.5774058835422484,-0.5348773279787888,-0.41398221478985625,-0.226730913963561,-0.05915271062058405,0.057241764216090674,0.13000977191329657,0.17236658226336035,0.1994682452177524,0.22659650631437653,0.26855560201504625,0.33894681555508477,0.42455618701386055,0.43846117118051453,0.40322939910829503,0.3807369292464167,0.366853776276238,0.34787133418739624,0.3174066508891172,0.27222632818173464,0.2141678628800613,0.15488583438256567,0.10777259359409581,0.07797960224880025,0.06394445932785198,0.061839058477951785,0.07042537740828844,0.09185656015757782,0.13453981757558334,0.21931201009493545,0.4012625197555093,0.7242565618245128,0.5764453661884817,0.32883432853866706,0.16049019983314444,-0.008484723065398833,-0.20010495750469057,-0.36521604850112344,-0.4564973958401348,-0.4854805938850333,-0.45365583970716417,-0.3484384976381673,-0.18581932200082682,-0.04163582680188309,0.03329288232840171,0.029240713834812096,-0.05166078410777007,-0.18950127296924282,-0.33493423901658204,-0.4483203184227107,-0.5104399590607795,-0.4980255694563871,-0.39598294123218797,-0.24104521001877413,-0.08353411003006274,0.06899424267459967,0.2316385750137944,0.4041460876767581,0.5668055479377473,0.6996509187747816,0.7978576131921753,0.8670309064095085,0.9115543009755608,0.9266808322829773,0.8655295633111332,0.6651279324825431,0.4201613024100045,0.2748218356249187,0.2424465069760916,0.2755229058050988,0.32869798667600386,0.37875739102631795,0.40926720354939916,0.4033839787788476,0.3415182026925843,0.24249726164020716,0.14828693848188879,0.07465716884610868,0.018973039806312826,-0.028766426468226,-0.07252105904860486,-0.11442765241914668,-0.15334271086229734,-0.18095569151589536,-0.1943018139837454,-0.1932943571437116,-0.17974882826120234,-0.16006906701565285,-0.14607761923938276,0.02387145846249341,0.04299835640796734,0.04071220847189864,0.040999693685407984,0.044890064007375975,0.05254973349090864,0.06151749003842811,0.06388153112805411,0.03745252124078241,-0.07500007160308214,-0.46426836223855095,-0.6346074125686733,-0.4780807925144275,-0.4919834248169001,-0.6888746539248926,-0.8006506658287713,-0.5011354753761627,-0.3763052883908289,-0.349868892538996,-0.38448782222554295,-0.49510016221205666,-0.7244769703628537,-0.8537356430500116,-0.6191115545729031,-0.3958376208081644,-0.16946665827677332,0.1604792518238413,0.5461880100261415,0.7554185059810605,0.7688210919694192,0.6510985388804262,0.4063785960947446,0.07716611881147997,-0.21947882035743338,-0.382900702523215,-0.41138477449837235,-0.37880765744996914,-0.32610481695786925,-0.23062287025663836,-0.04639505750513865,0.19747457770967008,0.3882262725383733,0.4981568813872797,0.5490704908261109,0.5695287050763477,0.5861538587006166,0.6185853548234379,0.6762878034135514,0.7611567474493065,0.8133186569113303,0.744470985285758,0.6335722509943809,0.554588059135623,0.5043506172073425,0.4607771501929448,0.40962113689286367,0.3414167774192056,0.2347078916767079,0.021248078993564134,-0.3811105448473695,-0.49360430128205984,-0.45366903044282414,-0.4343911292763098,-0.45149746732412177,-0.504204883012444,-0.5698988742811426,-0.6119454168091107,-0.6044670860523166,-0.5397439762838232,-0.43521791514839847,-0.32958254122716774,-0.24663395635899635,-0.19354742454581378,-0.16347287310630404,-0.1538716178643347,-0.16657157550529506,-0.21020175370401947,-0.26734406532886185,-0.22205297493026463,-0.15801166415036505,-0.11432437891666912,-0.07614981264982144,-0.03716482634336698,0.002648557277542661,0.042411415729550254,0.07366209455432275,0.05272442325157939,0.01647580386704546,-0.004159540153491132,-0.01245839196763022,-0.009695617420235107,0.005459924285639842,0.030248531143546455,0.05815985896303067,0.0818141958020549,0.09717536416863219,0.10362780762000014,0.10187759110572225,0.09334111321248166,0.08017121224844487,0.058425296808523396,0.010215939921753375,-0.08818032404307818,-0.14149971965236932,-0.12701332980998944,-0.09035381992778212,-0.04918764005767192,-0.022016500167551575,-0.01987672360860427,-0.047126133607603385,-0.10290815435073028,-0.17192606379859485,-0.22867968523040863,-0.24998937561196605,-0.22273574366504192,-0.16482584521544405,-0.10601561910934358,-0.07114450370606619,-0.07121878087675282,-0.10852637815693196,-0.17507421977436516,-0.247710911762819,-0.28979788476600005,-0.272860592976751,-0.20588025860367573,-0.09942193045824689,0.047199149950069234,0.21221078037705887,0.356640501062696,0.47168088395947727,0.5621755709854144,0.6278682489041163,0.6583532244918224,0.6599937054279903,0.6557462754595194,0.6595443322810328,0.6783172117268742,0.7175297296915863,0.7638992352144368,0.7855607218368866,0.7719063411280006,0.7466195288038089,0.7300249706047467,0.7312528171092101,0.7299257832690919,0.6273693712349308,0.43000235828982586,0.2972203067562429,0.25370106446976304,0.2711060317595977,0.2987383535882865,0.2675396023730195,0.17610181612452228,0.0926233942494054,0.04208961054127045,0.014342829483858172,0.0005046386421051531,-0.004816137733033812,-0.009552020639240197,-0.03568036251037384,-0.10910967977462155,-0.2702210821343033,-0.5471922350550833,-0.39209675834233115,-0.12592277048062683,0.022003712083847115,0.11484198321050228,0.17758770314873681,0.219594615476351,0.2297741330136961,0.1688303778088016,-0.016556214139126606,-0.23361293766845612,-0.3649016889786113,-0.442722335264036,-0.49261245383630464,-0.5160823197567452,-0.5156389950497798,-0.5052464597355214,-0.5100966789733862,-0.5651044180225191,-0.6959951928605914,-0.5509702310137077,-0.22088105396886054,-0.07543455928148766,-0.011516354961319128,0.014039591941853896,0.016699265653773412,0.004103988132507092,-0.018659732940739363,-0.04643526968599511,-0.07175800566057292,-0.09028458863131765,-0.10296404950321678,-0.1120336542870876,-0.10579230864359547,-0.07487199088257875,-0.0789261713607715,-0.12595692782465406,-0.194389114627278,-0.2609896424921399,-0.3063135828682124,-0.3167357893289963,-0.2859913808054704,-0.23117221634605342,-0.1856812007261728,-0.16991274756496957,-0.18738157118469953,-0.2440410874089438,-0.3566887764374967,-0.5554965201408572,-0.7350911478111765,-0.6889423486104035,-0.6032855177577253,-0.5579277526653682,-0.5181962822761017,-0.47798175464631965,-0.46528302407092076,-0.483160522277338,-0.5058665655157178,-0.5049929092364082,-0.46111600653475976,-0.3725124808305977,-0.25925886339357684,-0.14706934837905372,-0.04548252506401884,0.05528511320038085,0.17457715836626828,0.3584525937804313,0.6981506253206022,0.5362859432417827,0.29201864260623894,0.2190183726529488,0.20423244596120005,0.21577932174944112,0.2523890909314078,0.323679102264006,0.4269787602954671,0.49709909674497127,0.4821272297882609,0.3934826272836338,0.2848181291061478,0.2084536323199434,0.1699796258452066,0.154303566471801,0.1450261928907475,0.13017728907970616,0.09394827341683375,0.018467514656756813,-0.1082827363505878,-0.2682391381085948,-0.4269660326920428,-0.5458863740025882,-0.4807632670294342,0.014165631398956763,0.34636198692219244,0.47903628708553153,0.5226810467031988,0.5153624758306601,0.47910821222573785,0.43103285282231063,0.37240970688029235,0.28912384397871194,0.16127252350898494,-0.021768596958751607,-0.251044136039377,-0.5185387591822962,-0.6789954716290991,-0.5343670793566424,-0.383374823302639,-0.29977265102022405,-0.2545486235401761,-0.2226963744454432,-0.17489846887860216,-0.06702588759296402,0.1444539804396465,0.42720524939406784,0.6572737317130516,0.7955847294129825,0.8794137101867007,0.9306187559019324,0.9309522288877368,0.8447817564327896,0.6883581427874813,0.5190619589309956,0.3628181294388506,0.21731427542354737,0.08121094909634795,-0.038977596308447104,-0.14155348988144303,-0.22964990399948326,-0.3050808277343543,-0.3622319792880632,-0.3970344463841871,-0.4098230471788071,-0.38530603562439975,-0.29145184410915537,-0.14676805843076865,-0.04873436083501707,-0.025152494646911695,-0.04908481450247625,-0.09009118818106757,-0.12877141516902374,-0.1590857071535229,-0.18471805434186,-0.2212645852395634,-0.2988960770798387,-0.17794282459665214,-0.05019598221878227,-0.007396175812915938,0.010673333719487643,0.01921381804671911,0.023803213774268982,0.02809026165216139,0.03697730041759847,0.06078802072633964,0.11323189827494734,0.1702214220889022,0.1910331345925451,0.1789477163775589,0.12818682883015814,0.028852981495998735,-0.10023031023714139,-0.20485450633742572,-0.25786395773481835,-0.27869737555581814,-0.29540615786965413,-0.3179777040500132,-0.3379066322933189,-0.34072143696575913,-0.32125913617214985,-0.28756991414412486,-0.2504534970750083,-0.21627888173691745,-0.18357797687687502,-0.15385719357819785,-0.136533410972186,-0.1353551260444931,-0.14127084356207262,-0.13691058969366646,-0.10765669595378735,-0.041020943086428424,0.05887355756849292,0.17029393171572385,0.26884748712977574,0.32824827232201664,0.3498517834177845,0.34185140797406643,0.3131755022637406,0.2652757002154695,0.19646402923741155,0.12337063179167337,0.0875621736258081,0.11047799389432708,0.1864909778527104,0.2924785244309532,0.4094597038202846,0.5180837873480101,0.5919616992020506,0.6092550501547108,0.5613874924035989,0.4667073775928085,0.36752262790434076,0.3063916819690606,0.33355036455675136,0.44153026440123067,0.4531192948267868,0.41336314179356326,0.39019138703459627,0.3777166577595171,0.3684499991213549,0.3599445606501941,0.34573854716666547,0.3185123224304366,0.2721100403479285,0.20702881190950562,0.133561438176242,0.0561752315089104,-0.0435536249617272,-0.23420413390669675,-0.19261547600657694,-0.1283114859777293,-0.1030938937028501,-0.09515406387977896,-0.1095615737143235,-0.21741934957934356,-0.46191177597788136,-0.20636391523157846,-0.17672931770958536,-0.19167201877738216,-0.23848337471875455,-0.3291622288675068,-0.4696587587620395,-0.5791706446994384,-0.5862130622463886,-0.570841142357942,-0.5775230022098794,-0.6119577478188392,-0.6588462242234434,-0.6762679921153645,-0.6368937238432756,-0.574956110840461,-0.5307578171807952,-0.520171834968096,-0.5118937711856699,-0.3578451368944711,-0.13633604516812212,-0.029262433693595682,-0.006749217410823262,-0.013954112572995305,0.0006044896076690582,0.04664269163884757,0.11269151287951767,0.18974897469921168,0.2730445316680976,0.35862421972402175,0.4473696302420296,0.5393616523015403,0.6293103655911458,0.7067464003673672,0.7594582646880677,0.777353173277964,0.7451229611049586,0.6681095272343799,0.5769519258323357,0.48904976584574983,0.40022178889919696,0.2944668792383299,0.18335692709127732,0.09585985969173731,0.03481002236205212,-0.013338559731780523,-0.06582707953488287,-0.14111595387595996,-0.27226817888879273,-0.43204521700966647,-0.3627928896261222,-0.24936943752290186,-0.18372182200352252,-0.15881750495978172,-0.1771203630776808,-0.26015833411142775,-0.47294520529686523,-0.6435133038577687,-0.4174520221349859,-0.2790620281250429,-0.20696855951497425,-0.16345555565361872,-0.13759821383518975,-0.12371432212273803,-0.1154971490339056,-0.10244915699789636,-0.0737001543431095,-0.030075725229545516,0.00917530008940662,0.03535407469286704,0.0561332194967489,0.09061846333949959,0.15849148110269953,0.27346572949036896,0.4274238082294438,0.37019617349527567,0.15624257620816767,0.03650947512731408,-0.017929347383142346,-0.029469340248999578,-0.019341094485667478,-0.010096769008730595,-0.013951693521692472,-0.04511042014273688,-0.1300193386094505,-0.14708342745938024,-0.12931207671387515,-0.11873643875264013,-0.10592073163198827,-0.0691578988533869,0.01583545473723832,0.15151712584331645,0.3441666087163263,0.5787635954937617,0.7593144258682397,0.8514873482919891,0.9082429690970167,0.9375711230619082,0.862857738527416,0.6685358644134166,0.47478976166604325,0.3459931144358427,0.27820284806037116,0.2586802136938444,0.2788628604297096,0.32963702727913585,0.38600397602107334,0.42687386708844755,0.41732424881105534,0.3366123593537988,0.23380828133458656,0.15032218546408063,0.08829371306263595,0.04454587542827352,0.016880003351848735,0.0022978280858716835,-0.0036516436730936676,-0.00492597597400973,-0.008192160852565513,-0.020888694151419668,-0.04922273867369462,-0.09655740833341404,-0.1506615976528599,-0.16021087926772573,-0.1514047507928226,-0.16980456588976997,-0.20465544240216343,-0.2384168416735008,-0.2645758868114563,-0.2834722365028468,-0.30131095647597406,-0.31371721357914295,-0.3070022137134889,-0.24850668620946226,-0.09158422067885488,0.037657539133442275,-0.09317661212662035,-0.5341613625090763,-0.7889887492907794,-0.7489089495090524,-0.6231539149143446,-0.4655035289054489,-0.31403709201975055,-0.1982891208277983,-0.12166949598215615,-0.07434346614178308,-0.047899269925234,-0.03722964298511502,-0.03705798110392325,-0.04411696123061658,-0.05684092414805866,-0.07508410188643888,-0.08486351853250688,-0.0717391491990968,-0.06160581717801071,-0.10426099966861936,-0.22246548624607967,-0.42523016058076085,-0.5575086598054965,-0.4670363988817064,-0.36661179504065305,-0.30211399525707405,-0.23555228506483739,-0.13707586219114629,-0.01741409547388163,0.1196762602685477,0.28121054288843783,0.40039639178063513,0.4286575934745428,0.42712883412447317,0.4392650615835579,0.4876317200592374,0.5954701631298605,0.7009991721893891,0.5105525073342623,0.30890005384394775,0.21627425026811922,0.18533613372688518,0.18991195452403672,0.21481710290872244,0.24600297433593882,0.27054114163863724,0.2767392326123119,0.2662269779881716,0.2562989402719432,0.2730724302492862,0.35402647625551414,0.5297177124654125,0.7516457750801311,0.8865643032684342,0.9097982131831464,0.8752461385564877,0.7995887481747427,0.6626811601473215,0.4635505025547261,0.2486854881340944,0.05401152546221701,-0.11594371934426229,-0.25901354628302986,-0.37880449772617886,-0.48511339790774605,-0.5883916103516619,-0.68730563801844,-0.7690454218091656,-0.8219230973131948,-0.8537001557903776,-0.8789058912256412,-0.905371678730329,-0.9326932767906787,-0.951821068962285,-0.9567308832966688,-0.9397349289913244,-0.8976774493336976,-0.84133411091408,-0.7799705647432974,-0.7173004423791063,-0.6367040075273818,-0.5344115669192409,-0.4539428516478657,-0.41922485091692197,-0.42315650460884735,-0.4658329963476416,-0.49822480262125396,-0.4153850713205142,-0.31811017979135364,-0.2702364131307349,-0.2541551158034296,-0.2540734348125582,-0.26070469018249454,-0.2711971057162585,-0.29719954415853406,-0.4490623452070543,-0.011629789169553118,0.05967769766219514,0.07193129429317603,0.07766045922951487,0.08533332057386082,0.0982761986171965,0.1214375355147429,0.16415764193702911,0.2511264868442052,0.42845284990866206,0.5497571601578299,0.46110659794363634,0.3924345532004865,0.34276002926134896,0.29087336630754757,0.24057557354657677,0.20162416956879925,0.18100360734220022,0.17987373500428142,0.20132261661372255,0.2470172308849377,0.30590740545512046,0.3177690845654003,0.1968036172790302,0.09521128459462669,0.047230976236040945,0.01778475848981164,-0.006906790612520833,-0.026655542555976016,-0.040967301651017765,-0.052975772950045394,-0.06917499453503055,-0.07950134959074572,-0.06282400230160358,-0.05852173112779466,-0.06269630560549551,-0.06332579724998799,-0.055404791836902625,-0.03982043418104617,-0.02890956244073966,-0.030312216904065947,-0.028004853889140556,-0.022622438986043544,-0.011998522549334898,0.01033506700865183,0.05844476271606587,0.16427152498447767,0.34612019218143614,0.5206200934053048,0.6446937105786115,0.7544767349154221,0.8435956993455792,0.8706537489679501,0.8404561416059663,0.8093591970453701,0.8080791875178188,0.814321178125551,0.7424628667816789,0.5577358266612757,0.36511486536450927,0.22136298857951453,0.13003434184465626,0.09586896367728398,0.11479604847969427,0.14965316071796067,0.17995875281026966,0.17460511373080922,0.03261260735601631,-0.1782670178364759,-0.3380270827539941,-0.49304575712539056,-0.6518738395442921,-0.7894578305940969,-0.9035224292571632,-0.9785271308808469,-0.9275648742613097,-0.7224462640168029,-0.47141506901494473,-0.2521262129105268,-0.07819452562022094,0.059495912032510555,0.16902635688461493,0.262990282417375,0.3673234217429317,0.5543585085059066,0.843676851511945,0.45746019702974056,0.24332171431018626,0.16146429166723075,0.12729907249258998,0.11698121437922576,0.11833616514092953,0.11929275325358889,0.11093234063673978,0.08792136878187709,0.05169212845725938,0.012164283019930016,-0.020131025347111215,-0.03371154840316388,-0.0067446871140835,0.1334195248191113,0.4687042508439425,0.5087713030229649,0.46875167675504104,0.44247667767316323,0.43077261432448755,0.44104922228469057,0.47647866848532555,0.5309961346870812,0.5908320981544876,0.6387142757592911,0.6675866910060276,0.6767105777830248,0.6662820671982473,0.6312693397571693,0.5470387859823345,0.35873169885904665,0.05963726848469661,-0.1842502288147448,-0.27579771960347343,-0.2682389336948644,-0.2323136007370088,-0.20465329207887725,-0.19503439240172277,-0.19907696626879362,-0.20340069753013587,-0.19960235119755243,-0.18638652186392218,-0.16102024814583554,-0.11751086766904818,-0.01642204780380986,0.04583403521758602,0.02236479063985001,-0.006136000631281096,-0.03351132151086678,-0.06515540612543137,-0.1074250527483908,-0.16342259887897737,-0.21769951421368242,-0.2480174534508702,-0.2585052446889693,-0.2605007307860305,-0.2499561461272525,-0.22167039993867432,-0.19217032259618874,-0.188548507146212,-0.21878089125469583,-0.2760948057490885,-0.34348912479138244,-0.3895047006463463,-0.4188794703602247,-0.4758188725751406,-0.5954914403420023,-0.7210904194385115,-0.7489408783233041,-0.7753290933853025,-0.777363956779629,-0.6831196339153818,-0.56705593634536,-0.4909390144862956,-0.4548192035625809,-0.4369925436936015,-0.40549411080322295,-0.3123166383160192,-0.1146807715546984,0.16377227666757727,0.39125935595061784,0.46872865290529053,0.4143733958248421,0.27967067639060456,0.12525266072208202,0.008979265485686578,-0.04733562829577001,-0.04721219050892048,-0.0031904413875964697,0.06936103601863701,0.15704988841242382,0.2512298936223769,0.34317019984039004,0.4236709884919134,0.48449212426426375,0.5261183178393026,0.5430103992380142,0.5160881375409763,0.4574030338815484,0.41615723669041077,0.4316039530011342,0.4455511154438774,0.33175758088833185,0.25413980353861165,0.2399769549218726,0.2818509312427347,0.1695535133556655,0.03617743000418766,-0.018684141858862375,-0.05630324946295947,-0.0889653522843726,-0.11620773682458335,-0.13315065995280598,-0.1355535523229973,-0.10638916568521224,-0.05247518200327532,-0.005308248420604015,0.037910846374957306,0.08256978615611393,0.13428091195334738,0.19617675661410078,0.27643835287576835,0.3691993030239789,0.44455380808594813,0.4668652346760291,0.4119822312570736,0.2573423150439376,0.007317565518987546,-0.2522696194732229,-0.4226677467235865,-0.49240378531136225,-0.5036815151264884,-0.5289261193067327,-0.5130985714211828,-0.4416166485659307,-0.3981452988509239,-0.38338418059056933,-0.3933441901991013,-0.4509473820702247,-0.5891545476513708,-0.6045204860312372,-0.3610006822724319,-0.21091496316216596,-0.12469380034339171,-0.06922917818327524,-0.03496704715068608,-0.01566008162121181,-0.002861033225133707,0.014720818590419812,0.04582024026592577,0.0886085820878289,0.11523969261256427,0.10761612184563359,0.07935726965098384,0.04965759580488814,0.027712200925032418,0.025229139469152312,0.051938219214605,0.0789600801146014,0.09544759013630336,0.10736171140701803,0.11470263431199727,0.126736649635125,0.15696122509470486,0.1990968314898548,0.18882583464214536,0.17131209838293512,0.17192496069600374,0.18391429373353055,0.20300275512978067,0.23515588272063784,0.2938077971112476,0.39508386104389476,0.4789875198070575,0.3444806099737466,0.19984497046089247,0.11175445557866073,0.04959511390114855,-0.0006816645709072477,-0.04214824597743465,-0.07319196815478585,-0.09636972902615579,-0.11653252668426838,-0.14140769493901126,-0.16912177500260853,-0.19106262944900423,-0.13008293502720195,0.11134737876747876,0.19635931025089606,0.22251490325206494,0.22262168562466597,0.2033468577646212,0.17133187427034946,0.13140926161644684,0.08377755579729368,0.03765624356050387,0.004989659155541407,-0.006372295742313456,0.0032457908490184286,0.02306345026429356,0.04629667136552739,0.07476447649914549,0.11650295660619477,0.1738736124704086,0.22641127993187754,0.2492832127176394,0.2544923059211759,0.2570609490941556,0.25588115643081144,0.24322617764872065,0.2106853097159612,0.15544848284769508,0.07415327682628377,-0.038087407628623615,-0.21690371769823394,-0.4484511515894426,-0.13835016457851132,0.010133904828347274,0.07905814493660704,0.10817795405289124,0.10945762748757118,0.09076967383478718,0.05974003386231833,0.022167225290476978,-0.017115226783187647,-0.055967162265966805,-0.09205062857631988,-0.11757044094082106,-0.10917559449911393,0.010834924900791488,0.32835262992477104,0.4454940544364297,0.4047095155922679,0.3072599536605204,0.17802882969913905,0.045494226190692086,-0.06115454824998672,-0.12612972750758825,-0.1551959618427608,-0.16508294980598542,-0.1750859547023457,-0.20796141270139556,-0.26631549421737316,-0.23608945451716962,-0.1922372030818025,-0.18254744487554328,-0.19591575698552524,-0.22891334590518883,-0.28182456677013473,-0.3300828513724704,-0.3383810432286408,-0.33765857827622103,-0.3443693230495871,-0.3514569305513852,-0.35474199976529874,-0.358138609192109,-0.3724260346746581,-0.43408145210904236,-0.5694292322453939,-0.23615625917287966,-0.07759883361659164,-0.023425808498151828,0.004837361039502872,0.02993108952016585,0.06639380583566912,0.13450344174214582,0.26951872289783974,0.5191078625729442,0.8049327777533681,0.8806325860493295,0.8003588493287944,0.6772701212218252,0.5536309227669151,0.44809402581551255,0.36985563998610155,0.31539019420762665,0.271730356004527,0.22466939928550342,0.1578803810821402,0.07256605442773527,-0.005490217684709056,-0.06421173391932998,-0.09817101655160439,-0.0945929258708291,-0.054162713827306794,0.0038898218498174225,0.05601915218327119,0.0773481389606286,0.052350139329596666,-0.016906022646953494,-0.10158256632481938,-0.1724015662604626,-0.21231198940603116,-0.1964086055992141,-0.05639835631307693,0.24171190894710332,0.5380106605566644,0.7226152181178467,0.7583083265315498,0.6558251843190028,0.456969681774621,0.18746405304629488,-0.13238107049057946,-0.38239639945081594,-0.4646624183339851,-0.4664608360311294,-0.47686026766635775,-0.5397191497585946,-0.16344326636298995,-0.001981734044889527,-0.015076499707157246,-0.10689503681669162,-0.3007097736524166,-0.6216687096461694,-0.8432494270486732,-0.8413568082683773,-0.77137552547775,-0.6797815437634114,-0.5843554315433355,-0.4898512967023634,-0.3626520921601352,-0.10162524852433429,0.35835676171133723,0.681262527346094,0.7648735257361735,0.7811398501442076,0.8094616374787419,0.8674607330628582,0.9341241751746608,0.928082680673677,0.7970771926201728,0.6487783929406844,0.5111790559501049,0.19613292693798207,-0.007948110577535151,-0.07765560952746058,-0.11577137581896906,-0.15710222149968872,-0.23074311809208448,-0.45840848908638016,-0.3098023081233795,-0.10871537181983287,-0.053439531542990235,-0.027673370974942102,-0.01079179880578325,0.0011961580137888346,0.004073453659442559,-0.010835601891448053,-0.04393153904984695,-0.07464437607036309,-0.08896978468808593,-0.08705111285816464,-0.07821199786759382,-0.06989425757821997,-0.06727770389577331,-0.07353045042023568,-0.08891550186046238,-0.11239748540046417,-0.14451793515898895,-0.1910749397857015,-0.27522304108034396,-0.4154997770970138,-0.5014876542599956,-0.3815952684486242,-0.23653796552380535,-0.1420722022797982,-0.08831260691021439,-0.06280055620309367,-0.05558969496068704,-0.06312577119366451,-0.0796456816609706,-0.09509504633222328,-0.10541163021456468,-0.1095776971080609,-0.1135968983864068,-0.1227852151455001,-0.14242308648173568,-0.16691059737149916,-0.19183176048591694,-0.21895669988492475,-0.24187510865663495,-0.21207373849466973,-0.15351422217249006,-0.12460173724165126,-0.14305091743078846,-0.26101877529608153,-0.43781653995822273,-0.3654281375636755,-0.32956864163238125,-0.32990139448789374,-0.3417167839563503,-0.3347434932731686,-0.1984682463139235,0.09808361805934777,0.332319652625018,0.4853625988243133,0.58247589640551,0.6381436002275248,0.6629744647177593,0.6645199284772546,0.645745953926698,0.6197106049470064,0.601102893202705,0.5962753097890278,0.5383031214164334,0.3976345927956527,0.3186294057186303,0.3590777330249661,0.607156005164219,0.4585137122122,0.3095592636917514,0.2853757117766,0.31713996691197266,0.3893652063973509,0.49113911792949916,0.5698617389632751,0.5640694094724058,0.491958310103621,0.390712423225364,0.2590132388936437,0.09861664413047078,-0.06026879552762177,-0.18291548765514906,-0.25598537471669136,-0.2795054152514672,-0.26777909284006307,-0.23088069956474644,-0.18827942783670462,-0.17204438891563095,-0.1899102221714402,-0.2210340099513008,-0.25937681303895677,-0.3112321840975762,-0.3916158610168755,-0.4749075976716286,-0.2950808209535067,-0.11670344559163748,-0.012416083120722819,0.06787900889622821,0.14984840688222412,0.21925776370104944,0.18753665259661179,0.10926989240875346,0.04160079877694911,-0.02030992827287731,-0.07227996205722922,-0.07151375793059449,-0.038885138643871865,-0.009582583570591694,0.01367911150518576,0.031757135858637854,0.04480146596865455,0.0484419504470497,0.030283315449163496,-0.10164890497881184,-0.17217756151624425,-0.15692203510316238,-0.14717678650788557,-0.12443751484262813,-0.057344837329702886,0.1077554943807516,0.35919855171778853,0.533111955258692,0.6079693261787658,0.6450954042659095,0.6725052678467828,0.7004901873381083,0.7339083177232272,0.7680091730308211,0.7789131734391692,0.7474405072453881,0.6841519047117152,0.573647373339227,0.4049610967696888,0.24254752455280165,0.12362668850357397,0.030725601879117655,-0.055656068844145576,-0.1453174866644477,-0.24180031324147142,-0.32975772848727947,-0.38622647540114907,-0.3327819909669039,-0.20462690218564117,-0.12572556845953656,-0.08225073669935423,-0.04964740005994997,-0.016118287810446892,0.021369387624979298,0.046599642523678445,0.028149390752743416,-0.001993547531852942,-0.02258357103624404,-0.03297915587921155,-0.03597245799279134,-0.028854588396569736,-0.007941907574101684,0.022699810533868447,0.043118725427731,0.034115468861973544,-0.0026893344175159648,-0.05132725040139405,-0.09648183831506611,-0.13017613074050946,-0.14558943039539288,-0.13074765157576299,-0.08553120598892149,-0.02458041401654028,0.07650002490387055,0.22541574032415448,0.3151218873870668,0.303218255336609,0.24225716781095807,0.16935761448700526,0.10176730495812718,0.04348786033073656,-0.006097704083271529,-0.049767758936281846,-0.09048564563712824,-0.1400315301308044,-0.21523554809928147,-0.33935734958795133,-0.5364867248186921,-0.608859164209743,-0.21518659684286648,-0.01792358114475367,0.04432323653661422,0.07292351073217714,0.11418648742117724,0.188286242353815,0.2928452225071984,0.4051622895757446,0.5011129962249448,0.5757523792400672,0.6367113178882567,0.6946681454775963,0.7624900254586695,0.8451437149144464,0.8194985634556053,0.4716588658929244,0.2076283143457069,0.09289537310387905,0.03149358832840197,-0.01922588758406211,-0.06769149363251395,-0.10895941707096579,-0.14033083376201544,-0.16489101412355223,-0.18870057303300475,-0.21511829127816273,-0.2425581710364985,-0.2782965109648526,-0.3448687090032985,-0.4599972341268248,-0.4965831621394041,-0.32982607498009964,-0.20635535215684916,-0.1447107477709134,-0.11318038158196517,-0.09741759217554147,-0.09283904902650353,-0.10300545396041116,-0.14236091034125423,-0.2557952964524779,-0.5229411727856533,-0.689515418664126,-0.6128015183389898,-0.5480667996473666,-0.5194197066808645,-0.5220439922336431,-0.5431226553416536,-0.5676996987504587,-0.5847555136994375,-0.5936771515778472,-0.5900576365675795,-0.5648946997549419,-0.5069925348974602,-0.422216000014624,-0.33764120554083893,-0.2699410066979963,-0.21879884500006544,-0.17881751754873088,-0.14915792874928863,-0.12605578138891196,-0.10905943524646794,-0.09238959726705125,-0.07571784206086207,-0.05776300155344447,-0.04655824920574666,-0.04310191651740097,-0.04268524364937974,-0.0351161689341217,-0.00635360028528561,0.04831675422931843,0.1149007201638263,0.17453173071299022,0.21235529948550178,0.21860714998965733,0.20366666774772782,0.1865750190118907,0.18400856400416365,0.20422602255044073,0.22844911941162085,0.21412724782570927,0.20527225364744933,0.22171696310202824,0.2742511485932867,0.40730632899422464,0.6482321340798629,0.5402476106181485,0.36861535664867917,0.27864705456624594,0.21444740988461325,0.1596526725367357,0.11927753958848204,0.1015850489995683,0.1066132763573575,0.12491614105467912,0.15028301997199164,0.1622111873205863,0.05451998737442692,0.0061269293090035854,0.011433090063538869,0.04336860617404273,0.07866937456531091,0.10312641930562351,0.12309504329228121,0.1445395667084694,0.1725345002535921,0.2051049330777924,0.24480685303374103,0.2999564111499962,0.3771716881876155,0.4636475475286479,0.49666870177032046,0.4632182594493793,0.426979854866338,0.4162693839791526,0.4163623616953947,0.4050296961730279,0.3789712400549208,0.3435812825412677,0.30289869271609765,0.25674335572329915,0.2066804101549057,0.15516564501711422,0.10920289765773702,0.061170462386465986,0.00550564811508846,-0.019643465932039524,-0.04270335403287147,-0.08122484131208206,-0.1563491653517859,-0.17193245781050312,-0.11075833099888698,-0.07010742471357873,-0.030123471939324863,0.03363491177251266,0.17316336173274666,0.3050701485422177,0.16110913194289314,0.006897950987151099,-0.17955791415314282,-0.371685976695837,-0.4526716530900715,-0.43211817015241427,-0.3741557239752371,-0.309932094817614,-0.2582098390244728,-0.22230512001992825,-0.1935840901048104,-0.15758383988754604,-0.0917307326174904,0.020509400593362363,0.1250948703959252,0.19456400364444854,0.2678884319282848,0.3663877567810339,0.4874439247504759,0.5992358904500256,0.6710103600882245,0.7040055769522765,0.720113717732039,0.7404072056353953,0.7874201032611657,0.8741207768631825,0.924222580205402,0.8010134596204215,0.6856245011830261,0.6891998481781237,0.7502543526934701,0.7359955986757903,0.5329315548367675,0.208354792533987,-0.06204731357381213,-0.21277387878538198,-0.29230655655873167,-0.3526922106659355,-0.4235071988423261,-0.5211949187582631,-0.6539902894697845,-0.8052702685531207,-0.9156008481770881,-0.9343294448920385,-0.8865600757612228,-0.8109557037220387,-0.7139116869224513,-0.5773415367436409,-0.3751610993548436,-0.12723212192859087,0.07861601293887627,0.1880469388428878,0.21849149709543875,0.20348770629953994,0.16366677283071954,0.11003609733618526,0.055351868235384974,0.012509717401106119,-0.0169249527108879,-0.042667600065167156,-0.07156655906909552,-0.10736680282635025,-0.12970526644041258,-0.13662874856265403,-0.13802429322297302,-0.13828893246476523,-0.13510137309993833,-0.12262131304237621,-0.08196738285094148,-0.004277817271413331,0.09899288906554378,0.2111613877774028,0.3347252861577212,0.3810972693540206,0.22355919786600095,0.11653759233107201,0.0741874385559465,0.06173352449283686,0.06147509791163785,0.06475702542503628,0.06328806364120187,0.049330245412586744,0.021662730330767682,-0.015586023755478826,-0.06943090999471142,-0.1594454922136809,-0.3348901102710942,-0.7119395807283849,-0.7961484465431754,-0.5118738097568091,-0.3609164456771669,-0.2800957312159705,-0.22972675479906018,-0.19150420773448107,-0.15615238272227022,-0.12007314171991262,-0.08371846837221214,-0.05032100774090554,-0.0221569131443369,0.0006432177839488285,0.016546634356415475,0.016023546816149918,-0.02475418364779362,-0.12768660042804642,-0.22487957369871794,-0.2577114076092478,-0.2522610310446546,-0.21575379408508988,-0.13127304262020398,0.024198436740074013,0.22118751577544418,0.3768525452608052,0.45313240016641704,0.46228505184405494,0.41629555289237175,0.33018958321014286,0.22532789705281242,0.12186026155828038,0.03595886467948117,-0.026568414647293877,-0.06614129013346497,-0.0851341342304417,-0.09211995856261694,-0.09457496099145417,-0.09341219309358091,-0.08019244657478504,-0.027848214097022313,0.06195596806396548,0.13427196157234564,0.1558771543067356,0.13013939325592183,0.09051113155093099,0.05438088608329598,0.027020589833638628,0.008950526623371396,-0.0047492658457706765,-0.019308630435151165,-0.023461996811499214,-0.02099534000433321,-0.017520213988050513,-0.012632912553715453,-0.0018583282804822633,0.027855309743846417,0.10472808066730502,0.1767959112735863,0.18261056827312974,0.14720410863697353,0.10474364815799925,0.07551944893797227,0.05930020792655308,0.05648208696315501,0.06982978574835319,0.10872663357359699,0.19029085424363035,0.32414289499943666,0.45875853261592253,0.5215987497654924,0.4825057472394233,0.4166247159751364,0.39498703970909443,0.4012290304332929,0.2933983000672772,0.21773131975092128,0.20618038737603178,0.23698764325401853,0.3341543545649935,0.6292051688454687,0.5260068342587327,0.21420996226036035,0.10519022068601012,0.05921448445622116,0.06532581726427661,0.12317105526240617,0.17387804528972498,0.15009817903995393,0.10007972567904715,0.054331835356317686,0.015158347893275947,-0.021150319897813855,0.0047702444022460055,0.06010024887385981,0.10582627508759453,0.11990526022791882,0.041452309870206226,-0.054318339583498645,-0.11630171813228217,-0.16386652572786672,-0.2141693379351311,-0.27759760321162136,-0.36103591054324935,-0.46282004523697445,-0.5511218285059596,-0.628337063680762,-0.7554384934295043,-0.8432254945640063,-0.7457453999635311,-0.5536663761166638,-0.38745693547561577,-0.26871693801640795,-0.18962980918269728,-0.13918200261433414,-0.10526582285894387,-0.08005170640642241,-0.05641238937928696,-0.027392717030624777,0.016873934511319643,0.08979145437480854,0.21131037517326604,0.41060092472385257,0.6446912867237582,0.7416155949658346,0.725705829016191,0.6863936093683791,0.641772744381809,0.5876437057553676,0.5201710721412197,0.4452148022391246,0.3805193605344331,0.3680884814108071,0.27643062949774844,0.00628345285994295,-0.03259892344305727,-0.043712915298905544,-0.04991753572860784,-0.052139433372290364,-0.0456148995576207,-0.018537181132592208,0.052326982081688456,0.16810146626299435,0.21614988560831833,0.16944681209378556,0.0678413362277268,-0.05195731487040999,-0.1433444289628664,-0.20387873972142592,-0.24321241251865072,-0.2562731249013524,-0.23170660194011933,-0.17782782260673885,-0.10548431834385229,-0.01920485196689793,0.060835243901749055,0.10923409383172275,0.13665981928657656,0.15453175050506743,0.16487616445527806,0.17147588037455747,0.17689740834254608,0.1769730830151156,0.164197181472077,0.11979686830626896,0.002818637753127259,-0.06926445857021922,-0.08203071514070595,-0.094877651430221,-0.12096810664811027,-0.15951712722711275,-0.18927965502421665,-0.18438333618584635,-0.13588171737200383,-0.07096314827628003,-0.02277825018551229,-0.004924624616268901,-0.021575801510306074,-0.07605088230012023,-0.1634111835431245,-0.2609603540049082,-0.3407118722423106,-0.3838734371813547,-0.3733679190427277,-0.3406211681446633,-0.3500471987990457,-0.4229874382608179,-0.4082085155867118,-0.3072692558871153,-0.2584133585556473,-0.2562699546663366,-0.2931579413634071,-0.37397764539320244,-0.4977158005829686,-0.624771560051891,-0.6873021495944603,-0.6818165324853898,-0.6471772741681487,-0.5902512281219604,-0.4818534968394921,-0.30512231672214263,-0.11825747625224571,-0.025338272607698373,-0.07642212444729303,-0.24310754250385744,-0.4415533982937067,-0.5896207501003164,-0.667168485506348,-0.6993549724956999,-0.704617156245338,-0.6992841601539262,-0.7027349095347014,-0.7212099442395161,-0.7423222296763544,-0.7442781595017472,-0.734489041484673,-0.7261944940194769,-0.7206169368109927,-0.7125717951924254,-0.6650489438352866,-0.5537790067815244,-0.4214353495955253,-0.32980223389272173,-0.2901582277234193,-0.2501865284473106,-0.15961740123621976,-0.052042872798192356,0.03195418902111799,0.09590622064888601,0.15650618549926792,0.2247889029248997,0.27870675378632837,0.29424966008358555,0.2904488450553725,0.2762994950918234,0.26200403045569537,0.25047690330950617,0.24248044672665914,0.2412098351363583,0.2549835254939475,0.30236023111214666,0.41103844051812327,0.5658174906279606,0.5343257268570306,0.359308625741033,0.24936952719019437,0.20307834444884848,0.18915550380142235,0.1847470711862353,0.1789403204352899,0.16354762101421363,0.13251073813609404,0.09217186732472413,0.05587061359071485,0.02934920771810849,0.013725313862114683,0.012350071845397487,0.03034210476509794,0.06821931101684157,0.12597802340925995,0.2192064382537819,0.39822255976650456,0.5311420380484567,0.31441481186572995,0.1680636647306578,0.086737481475757,0.0457693779782412,0.04263444853588142,0.07910975918883344,0.14611421240043038,0.21515702914923537,0.2613143648875865,0.2830621369597847,0.28732256587914407,0.27425916186544946,0.23948280781628545,0.16943299080564092,0.05741886848389795,-0.07246944885096544,-0.15869926840732237,-0.16581290761395706,-0.09751791302335693,0.03243960004503147,0.18470255437943364,0.312455587193326,0.38463093773958573,0.4054216338793814,0.385706842133067,0.3242848694021246,0.2056424281435045,0.047943133041598175,-0.07306921861400846,-0.09858350430398434,-0.07038755899797348,-0.03518813721653382,-0.012256211524490827,0.00013852146625891178,0.022067046470370087,0.06030773436544905,0.09814622408983843,0.1512636326476449,0.22068897151070813,0.297515641013302,0.3451813056381181,0.3236500665700106,0.2604569739694508,0.19219345361444137,0.13638862201883029,0.10240820046214384,0.08951093269646627,0.0982481240042636,0.15084295017496385,0.32390126629160404,0.14361146812428344,0.06810686425597881,0.030476987456992198,-0.004836931090985626,-0.051279825992145645,-0.11951993637367546,-0.21243722742472368,-0.3132432433154162,-0.37777887054797693,-0.3684786459294471,-0.3098030050231875,-0.23514262782670337,-0.15088515853629847,-0.0758116722351358,-0.034219137872709096,-0.024525488688786793,-0.03674750039417463,-0.06191648408506695,-0.09402245052868725,-0.12586129214466918,-0.15478113652406011,-0.18657631596228616,-0.22288413106812438,-0.1792644304300861,-0.07631531730108973,-0.018544696101933874,0.015460409947385553,0.04250858183878569,0.07051389041860714,0.10536889389177535,0.1517614397798128,0.20986099058154667,0.2675158236540576,0.30940304321926637,0.33076309600870213,0.33546250911931363,0.33222372423845675,0.3330781644559185,0.3605887354233063,0.46286686443919434,0.5905475731658898,0.4419529056075352,0.3126327770836391,0.23468638407069706,0.16813489439164844,0.10005074545129439,0.03142639093302605,-0.03249486763674076,-0.09440773852195296,-0.17227577003735867,-0.28821400301813843,-0.4534805691723867,-0.6280802516938605,-0.7376841715795447,-0.778653691200771,-0.7914184283468206,-0.7927885947044339,-0.7836920017599265,-0.7676620889488276,-0.7565876612009336,-0.7597486736545941,-0.7748630887089021,-0.7897473533999165,-0.7864030460197828,-0.7527451658681051,-0.6969035602490005,-0.6426540370176619,-0.6029774583521629,-0.5731714679162613,-0.5446832827931943,-0.5082271842905322,-0.44704334474272195,-0.3392116299309875,-0.166025210970605,0.06611425568519609,0.27931339926991866,0.4063140114115844,0.47847977799759006,0.53223010593464,0.580385050946358,0.6196884957903044,0.6473334050578509,0.6681507082603217,0.6646732483991414,0.6093903792580986,0.5199204733112113,0.4471015595955896,0.42709257430337366,0.4896425888338469,0.6142664150487223,0.70959081872399,0.7227985514838472,0.6524735957795014,0.5044037495080919,0.30507577574427097,0.10358839846019424,-0.05995467768123879,-0.1703233559292197,-0.2115491722681339,-0.18288296180925592,-0.11761266619180125,-0.0848290816349709,-0.13245309419294507,-0.23991255574870032,-0.35722096298584244,-0.428107757997852,-0.4335096061484272,-0.39797392182706104,-0.35356069757862674,-0.3182049652201255,-0.29732116303240047,-0.28664414093149837,-0.2694788062915834,-0.2440492702645638,-0.21796987181980826,-0.19857689713525603,-0.18875865671859526,-0.190734906709682,-0.20633407755793023,-0.2323676503229014,-0.25676156657229965,-0.2801715797300013,-0.323467272738546,-0.4885000765546615,-0.4661328241357995,-0.09660052462391486,-0.03172838878428133,-0.01137421340919029,-0.0032722717644706424,-1.3380882229805333e-05,-1.4544360937532503e-05,-0.003702007626500311,-0.011777522243158563,-0.023939132158809107,-0.03500280794169557,-0.01905483685481668,0.039923667424042956,0.0994848334446084,0.13727827794004951,0.15942835927858634,0.18039819793813383,0.20475028336799594,0.2213753678410563,0.22459718428979877,0.22040284579337902,0.2191254199906647,0.23027396719042426,0.2662366648691939,0.32859634341230143,0.34645417725710936,0.2714821806673463,0.21837973417752868,0.21946528003031374,0.29155888865728946,0.5132604615090827,0.6926082136693719,0.42669860108963115,0.3073983056370813,0.27021568038600646,0.2817003547715415,0.34699182193704203,0.46871806402307786,0.5544537986902601,0.5483415241164522,0.5356184718649866,0.5329195827233495,0.5257701754714816,0.525055610296971,0.5452536722687593,0.586822584715394,0.6397927205814702,0.6928894655706346,0.7374567306585931,0.7692258162190839,0.7857529531588894,0.7843851004770576,0.7396683178215985,0.570232212643167,0.33883121309440734,0.19385362556608962,0.13937064371672242,0.1284699013242931,0.04295878855512356,-0.012236462616166588,-0.06968967596005585,-0.1630893663471515,-0.30032770562970557,-0.3997936595582354,-0.41633382899292626,-0.4003570257880446,-0.37283238927208917,-0.34182895121443385,-0.3288193634688809,-0.33797517310991587,-0.3337388909503865,-0.2966094030390168,-0.23814355950323107,-0.1748056390829464,-0.12026736205622858,-0.0826616287033881,-0.06444752413017431,-0.06280253397235318,-0.07243728626170332,-0.09663162621598848,-0.15610989636585643,-0.22930005013310628,-0.22025826405018947,-0.1824041116643037,-0.15658452384143484,-0.14354776363732666,-0.14058821363741364,-0.1449610847818836,-0.15087607343453346,-0.1488898461904558,-0.12201001746557599,-0.056508465051307355,0.03835511915152703,0.13339406339683263,0.22562690502667498,0.3478438183115215,0.4742677559499863,0.45470021773762564,0.3872275060731748,0.35657332357340255,0.3645863124772381,0.40853278735213994,0.4827071098462187,0.5685992824934736,0.6351754466468242,0.6636028575241278,0.6569095475726449,0.6294494388289131,0.5900733769391677,0.5509815199238395,0.529583446956159,0.5262100613399131,0.5214503261230191,0.49710168154445117,0.4534721994953342,0.4054168764127107,0.36692269350934864,0.350531782013851,0.34115161371801056,0.3136416745892771,0.24601507262912276,0.1353433766852489,-0.012458787663760807,-0.1760938804970068,-0.32230558685228944,-0.4260813494499448,-0.4857795902722894,-0.5092277209633549,-0.5053402113661296,-0.4830845764063532,-0.4434286188559881,-0.36603262076765475,-0.20372189139445848,0.10672059666262562,0.48185669230543365,0.7097169739762033,0.7858328418723096,0.7816735671025116,0.734844973127825,0.6642682883041898,0.5444715945315973,0.22526916980635991,-0.12668599591138036,-0.2985057317828894,-0.46176760844964626,-0.6260063088571081,-0.5746003744058062,-0.4779993171519729,-0.4421544864077926,-0.4590963368186828,-0.5248799725275608,-0.6293517059559145,-0.7280008535558541,-0.7725526718628644,-0.7780132260964181,-0.7774243987334026,-0.7772312936437086,-0.7635138440962238,-0.7264261810434715,-0.6745308119500666,-0.618564257967562,-0.5792444547821172,-0.5823531507102111,-0.6178577452863034,-0.6568171456363469,-0.6958671878410859,-0.7730702127488516,-0.8881167701257219,-0.6188075681510887,-0.30023591726521737,-0.15286496924216003,-0.0767841551298034,-0.03236541938450794,-0.007187929961259599,0.004028108490125075,-9.006707427056809e-05,-0.04025275672460927,-0.0442249797386901,-0.04612940766202872,-0.048092280184490445,-0.04636563187937244,-0.039883827126709646,-0.03064478469279773,-0.021146464933218787,-0.013984036719908043,-0.008519192598800025,-0.003867185395420631,0.0030530092497997345,0.016250753000687807,0.040118381201369846,0.07609423642653688,0.09945055922319762,0.08762733387923023,0.0639815177059691,0.04642223364973453,0.042299040456245045,0.05116510371369528,0.07204560236662991,0.10682107844073323,0.15661098491637787,0.21177863718050483,0.22510254470832036,0.1969412958486716,0.18816832103547854,0.22858417870685163,0.3799509991404889,0.5728908227274971,0.38377893071345937,0.28442385019037375,0.2409856836311376,0.2141531158612002,0.1912332827193737,0.1732576914921449,0.1690930998738123,0.18800292447436426,0.2588473103642433,0.5413629639699363,0.37149291604364276,0.1665593823183373,0.11077923382744244,0.09418045958160291,0.0984369690742637,0.1237910353257593,0.18330008435748452,0.2686952931645939,0.2513869406715892,0.2281001738471449,0.23871383640375943,0.24300323764014423,0.22889478313662623,0.19517405112704136,0.13707083760836603,0.07242980997452435,0.030482901120214952,0.02057684281233605,0.03443753939700018,0.056455560919684705,0.06385706045974653,0.033753969901322615,-0.056246417242626516,-0.1844905600997722,-0.2797218750351696,-0.29059468453048914,-0.21978150370501978,-0.10556623390653726,0.01367668993101661,0.09867615554663901,0.11697957483244525,0.07542830428980593,0.018674347627479045,-0.014264927013630765,-0.018772546683230435,-0.007248870845734198,0.006945409536119705,0.014315254992293528,0.01082283251140766,-0.00151826175449138,-0.018039202816203064,-0.03078717397095028,-0.025639200269636873,0.007401080385098666,0.02916487981823606,0.01011247568054986,-0.02308664947960218,-0.04915310534167788,-0.0513165516075877,-0.027115559002479927,0.014093312927313981,0.0628923828491767,0.11773240466340286,0.1855912964513238,0.27846568796511006,0.41533342529855555,0.5629733797448759,0.5768023672134456,0.5298852513777967,0.5313762330482128,0.5919379538144577,0.6781702739286146,0.7097001324530355,0.6652342346109561,0.5976329062852445,0.5282042127322479,0.44661976056801356,0.3471830065248254,0.24590338461071073,0.16416723228470176,0.1183407712641409,0.12574512774086843,0.2048187661290019,0.27034490100632114,0.2724588221614824,0.272815066166008
