0.09447416419886856,0.08829655645653912,0.07708021792889123,0.06333998818565677,0.049053078387780065,0.035294644154311106,0.022192240603977557,0.009581869904741068,-0.002427142614536454,-0.013169649970251641,-0.021998726535456464,-0.028805046981289013,-0.03398040139761069,-0.037989476545184836,-0.040832278046151735,-0.04245413058626479,-0.04309193991274486,-0.04316483096150652,-0.0431557174721087,-0.043055491577293895,-0.04217166863633544,-0.04004868100000808,-0.03698720635275623,-0.03349748765805173,-0.030262890445083145,-0.027893889194277394,-0.02631759847901312,-0.025169540566920928,-0.023821036487339412,-0.021852944437933165,-0.019292599264755336,-0.016677590021611483,-0.014682163126152082,-0.01400790546422104,-0.01440881466562054,-0.015283524117181188,-0.016176454925397182,-0.016832485608532594,-0.01732450721534909,-0.017770972619457082,-0.018600125868309236,-0.019620617417393186,-0.0202766481005286,-0.020449765044105058,-0.020158195226918172,-0.019538612879233724,-0.018928138398806804,-0.01856367753285827,-0.018381447099884006,-0.01821743802356508,-0.01800787274453766,-0.017424733110163893,-0.01654091579134571,-0.015602428780421227,-0.014654828280098927,-0.013679892933723474,-0.012577396846480062,-0.011484014248634463,-0.010153725903568007,-0.008559208209508102,-0.007128693969626843,-0.006089981063887551,-0.0053883930536155825,-0.004668581437832159,-0.003566084788374719,-0.0021264615568078716,-0.0005592766848306212,0.0008621237283244107,0.0018188349069743809,0.0023199700031886843,0.0025386465227578044,0.002921331556431821,0.004096720379078967,0.006383715405083168,0.009536308079892291,0.012852909831020337,0.015887055254359315,0.01852939934355632,0.021016853467972496,0.023613641354461007,0.026738904805357257,0.03031062803822122,0.0339461344525893,0.037126061973451585,0.03911238100165346,0.03916705069375977,0.037071392281345275,0.03321720709855196,0.028224083115204544,0.022547593602668562,0.01678909955197312,0.011440622569934701,0.007039746088218585,0.0038415972107009658,0.0021559620512978162,0.0019190619262172417,0.0022106311811900966,0.001873504599080689,0.00045210424214706,-0.0013793150949712942,-0.0028553844131329943,-0.0032745155334018643,-0.0025911500042132937,-0.0008599575176735921,0.0018552815557832624,0.005272109201726114,0.008561372733516837,0.010702587348639823,0.01068436599198448,0.008215138846363927,0.004069385533025813,-0.00044082667851173655,-0.0041218890144813026,-0.006481776775889238,-0.007465825611662503,-0.007338259248654263,-0.006545559957393359,-0.005734628065196548,-0.005069488390375546,-0.0043952346639427025,-0.003611642115511271,-0.0028462731725912957,-0.002162907643402725,-0.0012608650324310066,-0.00017659198848502176,0.001035242920756978,0.0024657543495680977,0.004479405412752983,0.007067080934271738,0.009882547589185482,0.012461114119018651,0.01451121070658436,0.016360855504520464,0.018237829526369438,0.020078366457048007,0.02132664464181472,0.02147242673933802,0.020169478862465003,0.017527129151127713,0.014292531938159127,0.011695744051670618,0.010256121944531828,0.01001010833005344,0.010675252502586668,0.011622853002908967,0.012041983560963808,0.011559069821404847,0.010383682685399786,0.00870716045318042,0.006884850501297471,0.005026097273889811,0.0031673429220540946,0.001600158387405261,0.00032454265795805933,-0.0007232844118358779,-0.001588880936212743,-0.0020900154702130185,-0.002254023422103887,-0.002372472922430146,-0.0024635881389172792,-0.00256381515816014,-0.0027733804371875602,-0.0031833997547007025,-0.0037300921780515587,-0.004140112057778729,-0.004413457707240129,-0.00493281584675186,-0.005789297757302856,-0.006709563411572,-0.007575159373734838,-0.00826763839232122,-0.008304086727772187,-0.007638942555238958,-0.006682228565518847,-0.005707298841283676,-0.004869034914103852,-0.004486350442643864,-0.004869034914103852,-0.005761968533389984,-0.006736898257625155,-0.007456712122264692,-0.00784850783426638,-0.007830286477611036,-0.007347372738052076,-0.006682228565518847,-0.006244876650808664,-0.005998863036330277,-0.005689071862488052,-0.005242608145022141,-0.004914592803454433,-0.004978373173888412,-0.005361058207562428,-0.0060170900151259015,-0.006536446467995546,-0.006408885727127588,-0.005634402170381744,-0.004677692678373858,-0.003985215346429561,-0.0035205268990241385,-0.0032654037306461365,-0.003165177273617304,-0.0033109616199967174,-0.0035569729856189916,-0.003648088764320153,-0.003566084788374719,-0.0031742885141590035,-0.0024180308117807267,-0.001406649941024448,-0.0005957231087538914,-0.0002312612870415102,-0.0002312612870415102,-0.00039526895782536427,-0.000486384342976706,-0.00026770742985776636,0.0006798927331361158,0.0020192889454601023,0.0032857929845943818,0.004242504725458381,0.005126324293132672,0.006073924231240944,0.007130864115775859,0.00816957702151515,0.008980503291571677,0.009545421569290101,0.00986432623253014,0.010165003916974552,0.010438352377506094,0.010429238888108282,0.009773208204972865,0.008506703041410529,0.0068028459631380095,0.004798308951564964,0.0027573236045409528,0.0008621237283244107,-0.0006595034791878706,-0.0014430960276193014,-0.0014704308736724558,-0.0012790880757284333,-0.0014613190709167282,-0.0022722459031872854,-0.003748315783563014,-0.005607069573184702,-0.007730060582796233,-0.010071721365408544,-0.012395166413505796,-0.014345037106256703,-0.015520424242261764,-0.01603067282787388,-0.01630401566626514,-0.017151390271772635,-0.019383717292312613,-0.0228643224976193,-0.0266547244989085,-0.029825538530372963,-0.03172985302041537,-0.03210342737576172,-0.03097359082032487,-0.02830391188507471,-0.02388481404670325,-0.01788942549306751,-0.010809756586703422,-0.003329184663294144,0.0035773628017812652,0.009171847213943757,0.013363158416632454,0.016479302755990608,0.018912087188300477,0.02056127457446669,0.021098858006131958,0.020515718371758192,0.01934032561361285,0.017663803381393485,0.015030567159454007,0.011303948339668931,0.006602394173508401,0.0018643927963249616,-0.001288199878484161,-0.001515988200809008,0.0017823893825935557,0.008187804000310774,0.016625090475654192,0.026101095478877186,0.035540652146649206,0.044223957858611294,0.052214784551987,0.059977835853960514,0.06682059901310375,0.07158592511648783,0.07297999102091812,0.0705290189647946,0.06468851475379941,0.0568070049560752,0.048242152117723536,0.03955884640576145,0.030811763134435524,0.022219575450030712,0.014447427525080242,0.008388255789940383,0.004707193735077831,0.0036411431722152446,0.005135435533674371,0.008606934558365616,0.012998697550683919,0.016524864580839387,0.017800477611659257,0.016369968993918276,0.012570453503231266,0.00726753834604163,0.0020192889454601023,-0.0019260075183221502,-0.004021661433024414,-0.00440434646669843,-0.004222115471510135,-0.004641246591779004,-0.006591116160101855,-0.010427074364099547,-0.016085336897839905,-0.023155892314806182,-0.030663799646482647,-0.03730611101599627,-0.04230834286660121,-0.04548827038746348,-0.04719213308787629,-0.04819439765816461,-0.04895065423611483,-0.049488237667780106,-0.049324228591461176,-0.04792104919763307,-0.045360709646595526,-0.042499686788973284,-0.03986645056703381,-0.03762501567923631,-0.03549291455351113,-0.03316947512755416,-0.03051801754895934,-0.02728342033599076,-0.023392792439886758,-0.018946359755462144,-0.014536375406488498,-0.011165109585394425,-0.0095523649125389,-0.009570591891334523,-0.010837091432756577,-0.012677622741294867,-0.014390593308965199,-0.015429306214704489,-0.015666206339785063,-0.015165076865711044,-0.014162806673282437,-0.01276874076885214,-0.011001100509075502,-0.009033008459669253,-0.0071104726129715004,-0.005424839140210435,-0.0037209809375098597,-0.001880450191185598,-5.8141982166137196e-05,0.0013814813056221126,0.0026206504987032384,0.004005605162591834,0.005755019568000906,0.007631999211990163,0.008889390886154687,0.008716273942578233,0.006975968528854747,0.004151389508971247,0.0010625772045961038,-0.001515988200809008,-0.0029282771485367298,-0.0030193923650238628,-0.002162907643402725,-0.0007688423011864587,0.0006981157764335425,0.0019281737289729688,0.002939554599729247,0.00397827031653868,0.005016986033348112,0.0058643589522135225,0.006529503124746751,0.007331315905405467,0.008388255789940383,0.00967298231015806,0.011577296800200471,0.014119414994582673,0.01695310300615176,0.019504334689931773,0.021335758131212534,0.022274245142137022,0.02187333594073752,0.020123922659756505,0.017180895263974805,0.013399601129943138,0.009354077646918023,0.005736798211345564,0.0033040160278918086,0.0024748661523238255,0.002903108513134394,0.004069385533025813,0.005381447461510674,0.0064383850971894765,0.007067080934271738,0.007477103625069049,0.00788712069372608,0.007996460077938696,0.007531773317175358,0.00639282889448098,0.005226551312375533,0.00477097410551181,0.005545454851187514,0.007586437387141383,0.010456573734161435,0.013381379773287795,0.015896168743757124,0.01775492140895076,0.019394995305719157,0.02145420538268268,0.02397810222040954,0.02622865621974514,0.02759538727812228,0.02779583906775189,0.026729791315959445,0.024297006883649577,0.020761726364096296,0.01702599405491341,0.013982740764316904,0.011959979022804346,0.010647917656533513,0.0095909777719986,0.008461146838702032,0.007176420318484355,0.005372335658754946,0.002529535282216105,-0.0018166692585375903,-0.007593386352530461,-0.013944127904857202,-0.019757291647658954,-0.024057936612419988,-0.026390489527774768,-0.0263540411923238,-0.023720810592524608,-0.019046585650276948,-0.013424771451987557,-0.00793051237242584,-0.0032562924901044375,0.0008165658389738299,0.004934982057402678,0.009627426107449565,0.01472077598561178,0.01969567861230385,0.02388698981499255,0.027076025203112357,0.02949058827876688,0.031486020796366566,0.03292564290350536,0.03318076438524128,0.03165913773994302,0.028278752807310854,0.023677424535965125,0.018820969160743203,0.014310758916954752,0.01020145225242552,0.006748176271031701,0.004515851499347837,0.0038780432972958185,0.004333620504159542,0.004278951374267262,0.0022470778299989776,-0.0019351193210778777,-0.007238033353839458,-0.012176487645080563,-0.015748210877944528,-0.017397398264110738,-0.01692359801394959,-0.014171914540539966,-0.009443025528326283,-0.0035843078316721458,0.0024110852196758178,0.007349542884201091,0.010247008455134014,0.010839261578905593,0.009235630395447877,0.005764133057398718,0.0012630312430818255,-0.003128730624808423,-0.006618451006155009,-0.00902389497027144,-0.010964652173624535,-0.013014748761190246,-0.015192406089623915,-0.017260729655985248,-0.0189736946015153,-0.02013997387026283,-0.02075955621794728,-0.02081422591005359,-0.020732221371894125,-0.021124017083895812,-0.022290296352643346,-0.024158162507234793,-0.02634492770292599,-0.0281034600954451,-0.028723042443129548,-0.0277481070967541,-0.02557956325771824,-0.023237896852965647,-0.021597817334056964,-0.020768669707345092,-0.02019464356236914,-0.01964795226344634,-0.0193290476002063,-0.019365495935657267,-0.019629725284650713,-0.020495321246813553,-0.0220625040948203,-0.023866592690047907,-0.025433775538054655,-0.026363154681721616,-0.0263540411923238,-0.025069314672106123,-0.022490753764413236,-0.018873468706700494,-0.014700384482807423,-0.01051818676951654,-0.0067642331036783096,-0.003648088764320153,-0.001288199878484161,0.000570554473351556,0.0020101777049184033,0.002903108513134394,0.0032675699412969554,0.0034042430471346694,0.0038689314945400915,0.005299443485565239,0.008442925482046691,0.013918963204953066,0.021864222451339708,0.03215115934675951,0.04476153566813628,0.05910314326882071,0.07303469444586612,0.08344009545917692,0.08750383467671709,0.08404143958378518,0.07400052192498405,0.06016004942051393,0.04592781493688382,0.03369101297085339,0.024169446142781617,0.01715356041792165,0.011768640722572549,0.007112642759120516,0.002866662426539541,-0.0008781805609710187,-0.003884988889400728,-0.005834859582151634,-0.006673120698261317,-0.006818902795784618,-0.0069373556693950456,-0.007629829065841145,-0.009115012997828716,-0.011110439893288119,-0.013096753299349707,-0.014636606923443585,-0.015365528655340651,-0.015165076865711044,-0.014208362875990933,-0.013023862250588058,-0.011866696471238338,-0.01086442627880973,-0.009816599883672629,-0.008550094720110292,-0.007028468074812039,-0.005096823236428699,-0.003046726648862989,-0.001406649941024448,-0.0004226035789929071,1.4750325954936214e-05,0.0001332003660066625,0.00015142340930408913,-0.00020392660965256457,-0.0015524342874038614,-0.004176558144373582,-0.007839394344868567,-0.011821140268529842,-0.015101293684206922,-0.017114941936321668,-0.01781652882216558,-0.01756140734042966,-0.016677590021611483,-0.015383750011995993,-0.014062580778467632,-0.01303297573998587,-0.01214004493176988,-0.01091909597091604,-0.009388355836219974,-0.007638942555238958,-0.005661737016434898,-0.003566084788374719,-0.001506876960267309,0.0002152042295092909,0.0014543734788118195,0.0023837503736226636,0.0031673429220540946,0.003814262364647811,0.004260727768755807,0.004652524042971523,0.004971428143997532,0.0049896511872949585,0.004470293609997256,0.003622920128917818,0.0027117662774044,0.0020921816808638373,0.002073958075352382,0.0028028814938915333,0.004251616528214108,0.005818802749505026,0.006675285222270051,0.00639282889448098,0.005108101249835246,0.003276681744052683,0.0016730505605949675,0.0009259046609724181,0.0012448081997843987,0.0023290818059444117,0.003950935470485526,0.005946363490372985,0.007923569029177045,0.009354077646918023,0.01007389151155756,0.010474800712957059,0.010893931271011901,0.011349504542377426,0.011641074359564308,0.011586404667458,0.011240165158164811,0.01088481778161409,0.010866596424958748,0.011112604417296851,0.0110397133685352,0.010374569196001973,0.009162739346686228,0.007586437387141383,0.006146815280002593,0.005217440071833833,0.005217440071833833,0.006165042258798218,0.007477103625069049,0.008306251251780921,0.008278916405727766,0.007185533807882167,0.005308554726106939,0.0031308968354592415,0.0007163388197309693,-0.0018166692585375903,-0.004131000255023002,-0.0056252943031242135,-0.006089981063887551,-0.0055979583326430035,-0.004686804481129586,-0.0037574270241047133,-0.0029738350378873102,-0.0023086919897821385,-0.0016253270228075965,-0.0009510727341607253,-0.000285930473155193,0.00043388114262823057,0.0012448081997843987,0.001900838882919815,0.002310858200432957,0.0024748661523238255,0.002420197022431545,0.0021559620512978162,0.0016274926712443868,0.0008347888822712566,-3.080737224287495e-05,-0.0007961765850255846,-0.0018257804990792896,-0.003693646091456705,-0.006609337516757197,-0.00989860442183209,-0.01242250125955895,-0.013360988270483437,-0.012668514874037338,-0.010900874614260697,-0.008905447718801295,-0.007383821073503042,-0.006782460082473933,-0.0070922512563161575,-0.00800340342118749,-0.009124120865086245,-0.009853048219123592,-0.009315464787458323,-0.006864464620633395,-0.0025091460282678597,0.0032037890086489477,0.009445195674475299,0.01519457623577293,0.019568117871435895,0.02240180588300498,0.023996329199205167,0.025035042104944456,0.02600086958406238,0.02670245646990629,0.02716714323066963,0.027404043355750203,0.027422270334545827,0.027048695979199483,0.02623776408700267,0.025089711797050766,0.0239143246610457,0.022912054468617094,0.022037345017056446,0.021016853467972496,0.019440557130567936,0.01707155587976219,0.013426935975996292,0.008488481684755187,0.0027299893207018266,-0.002964723235131583,-0.007757395428849386,-0.011502235605289806,-0.014563710252541653,-0.01732450721534909,-0.020048855842705555,-0.022527196477723922,-0.02447706717047483,-0.02586201958550731,-0.02667294585556384,-0.027210529287229106,-0.027830111634913557,-0.028704815464333924,-0.029643308097398693,-0.030199112885719307,-0.029962212760638735,-0.028941721211554784,-0.027347197895354596,-0.02533354964323985,-0.023037439441195753,-0.020577325784973014,-0.017852977157616547,-0.015265302760525849,-0.013269875865066446,-0.01188491782789368,-0.010745979027339585,-0.00942480417167094,-0.007465825611662503,-0.004859923673562153,-0.0017620001286453104,0.0017094966471898209,0.005217440071833833,0.008543151376861496,0.011631966492306781,0.014347201630265437,0.016506637602043763,0.017873368660420903,0.018183165456403413,0.017518021283870183,0.01613306324669742,0.014265197092105974,0.012452000629620838,0.011030605501277673,0.01021056574182333,0.009581869904741068,0.008688939096525078,0.006930406704005967,0.0038415972107009658,-0.0005866113059981639,-0.005761968533389984,-0.010691309335233276,-0.014627493434045775,-0.017114941936321668,-0.018153660464201242,-0.01786209064701436,-0.01656825063739887,-0.014417928155018352,-0.01126533548020923,-0.006709563411572,-0.00012192274614993614,0.009436082185077486,0.0213722064666635,0.03321720709855196,0.041636277839380315,0.04460664008121517,0.04227408716586039,0.03608734906771229,0.02841542141543634,0.021554431277497486,0.016533972448096918,0.012816467117709654,0.009071621319128954,0.004625189196918369,-0.00019481508800385126,-0.004541019572536144,-0.007456712122264692,-0.008349642930480683,-0.007566051506477308,-0.005971533812417404,-0.004522796529238717,-0.0031833997547007025,-0.0019077844750247236,-0.0005866113059981639,0.0011354699399998387,0.003140008638214969,0.004707193735077831,0.0050807664037820915,0.00397827031653868,0.0016730505605949675,-0.0009328496908632986,-0.002919165345781002,-0.0036845348509150066,-0.0033929655959421515,-0.002809827085996442,-0.00256381515816014,-0.002700488263997854,-0.002809827085996442,-0.002326915033079565,-0.0005774995032424364,0.001982842858865249,0.0043427317447012415,0.005417893548105527,0.004843866840915544,0.002866662426539541,6.94195458014607e-05,-0.003028503605565562,-0.006071759707232209,-0.008750552131880182,-0.010782421740650269,-0.012267605672637837,-0.013069418453296554,-0.01298741391513709,-0.012194714623876187,-0.010855312789411918,-0.00902389497027144,-0.006454441929836084,-0.0027916040426990154,0.001937284969514668,0.007413320443564931,0.01267067939804607,0.01628796445575881,0.017354012207551256,0.015704824821385046,0.012023762204308468,0.00726753834604163,0.002511312238918678,-0.0014157611815661475,-0.004386123423401003,-0.006518225111340204,-0.00793051237242584,-0.008531873363454949,-0.008431647468640144,-0.008285859748976563,-0.008695882439773874,-0.009670817786149328,-0.010490851923463386,-0.01044529572075489,-0.00936102099016682,-0.007383821073503042,-0.005005707457727538,-0.002837161369835568,-0.001105968883295866,0.00015142340930408913,0.0010990232911909572,0.0019646198155678224,0.0025386465227578044,0.002201519940648397,0.00070722757918927,-0.001397538138268721,-0.003210734600753857,-0.004295007644699841,-0.004659469635076431,-0.004541019572536144,-0.004030773235780141,-0.002882719259186149,-0.0009328496908632986,0.0018461697530275348,0.005272109201726114,0.008862056040101532,0.012251548839991229,0.01544058985025132,0.018128495764297103,0.01997813494009292,0.020670613958679303,0.020251483400624465,0.018802747804087864,0.01646108139933527,0.013326710081181487,0.009709430645609026,0.005955476979770797,0.002283523916593831,-0.0010239649073504318,-0.003775650067402139,-0.006026197882383431,-0.007830286477611036,-0.009133234354484057,-0.010026165162700048,-0.010727752048543959,-0.011165109585394425,-0.011146882606598801,-0.010727752048543959,-0.010345069825940086,-0.01044529572075489,-0.011638909835555575,-0.014117250470573939,-0.017442960088959517,-0.020504434736211365,-0.02203517487090743,-0.02128802616021474,-0.01841788981319469,-0.01445437649046932,-0.01058196995102066,-0.007210698507786305,-0.0039578810625904345,-0.0002403727524688207,0.004224281682160954,0.009098956165182108,0.013745840639236328,0.017827812457712408,0.021390427823318844,0.02465235988234058,0.027668278326883934,0.03030151454882341,0.03257028990481436,0.034164807598874254,0.03484817312806283,0.03454749544361842,0.0336363376566068,0.032643180953576004,0.031768477124155634,0.030802649645037716,0.029609035530237027,0.0282058617585492,0.026593117085693674,0.024779920623208537,0.022994059006776556,0.021399535690576375,0.0200236967649417,0.018975870369804596,0.017955373198580368,0.016552193804752258,0.014702554628956439,0.012688900754701412,0.010793699754056814,0.00918096070334157,0.007586437387141383,0.005499897524050961,0.002775546647838379,-0.00040438047947407755,-0.003921434413781553,-0.007638942555238958,-0.011547791807998302,-0.015465754550155456,-0.0192288217053915,-0.022882549476414923,-0.026180924248747347,-0.02898727741426328,-0.03104648186908652,-0.032185426291780894,-0.03241321292746366,-0.03202141721546197,-0.03126516063751175,-0.030144443193612997,-0.0286957075970764,-0.026873397645193448,-0.024549958219236476,-0.022071617584218113,-0.020085304178156523,-0.019046585650276948,-0.018745907965832535,-0.019001029447568454,-0.01965706013070387,-0.020641108966477136,-0.02170715671826958,-0.022627422372538727,-0.023019218084540414,-0.022463418918360085,-0.02080511804279606,-0.018572791022256084,-0.015921327821520982,-0.012586510335877875,-0.008012516910585304,-0.002317803792537866,0.003695812302107524,0.009144512367890602,0.013645614744421525,0.016962216495549572,0.019322104256957507,0.02147242673933802,0.02397810222040954,0.02662956542114464,0.029062349853454506,0.031012214924065133,0.03243361567454858,0.0335452252511898,0.03434704365398881,0.034328822297333465,0.03318076438524128,0.030893767672594986,0.02779583906775189,0.02445190247057069,0.02134486599847006,0.018556734189609472,0.015686603464729706,0.012625123195337574,0.00918096070334157,0.0050807664037820915,0.0005158850061308591,-0.004185669384915282,-0.008686768950376062,-0.012613845181931028,-0.01556598044497026,-0.017160503761170443,-0.017433846599561705,-0.016559137148001057,-0.015201519579021727,-0.01370722777977663,-0.012112710085716726,-0.010572856461622848,-0.00942480417167094,-0.008841664537297175,-0.008686768950376062,-0.008759659999137713,-0.009115012997828716,-0.009916825778487431,-0.011365561375024034,-0.013488549011351395,-0.015976003135767573,-0.01829032907232673,-0.02013997387026283,-0.021333582362923237,-0.02219007045782854,-0.022463418918360085,-0.02197139168940331,-0.021133130573293628,-0.020568217917715483,-0.020704886525840974,-0.02170715671826958,-0.023392792439886758,-0.025433775538054655,-0.02731075518204391,-0.028404137779889514,-0.028149016298153594,-0.026089806221190073,-0.02205339622756277,-0.01603978069513141,-0.00859565654495907,-0.0005683882627007373,0.007258424856643817,0.014538545552637516,0.02173666171047175,0.030283293192168066,0.042082743243488305,0.057863967329171234,0.07561323286499788,0.09129422543372573,0.10125317228720909,0.10394111755623685,0.10006869977250762,0.09141268392947643,0.0798319182687217,0.06646527974725444,0.052050775475668075,0.037681866761772195,0.024388124911206854,0.01287113680981596,0.0033860200038372426,-0.0038576534811335457,-0.00906945679512022,-0.013087645432092178,-0.01679603727308163,-0.02033131779263491,-0.02322878336356783,-0.02496908877729132,-0.025424667670797128,-0.025123984364212433,-0.02469574593890006,-0.024267496269307125,-0.023821036487339412,-0.023174113671461525,-0.022499861631670767,-0.021543147641950654,-0.020313090813839287,-0.01931993411080849,-0.01856367753285827,-0.017570520829827477,-0.015939554800316606,-0.013634336731014978,-0.01098287915242016,-0.008313194595029716,-0.005907750630913284,-0.004067219322374994,-0.0033929655959421515,-0.0043041194474555695,-0.006818902795784618,-0.010290400133833776,-0.013843902010042397,-0.016759594559770948,-0.01847256512744128,-0.018326777407777693,-0.015866663751554953,-0.011210665788102923,-0.0050421541065364195,0.0013905931083778402,0.006848407787986788,0.0101376690709214,0.011076161703986167,0.01020145225242552,0.008661598628331641,0.0075773295198838546,0.0073677642408564335,0.007759559952858121,0.008333586097834075,0.008834721194048378,0.009636539596847378,0.011267500004217964,0.01368206307987249,0.01626974309910347,0.01840183860268836,0.019531669535984928,0.01960456620688686,0.018629625238371125,0.01659775562960104,0.014137636351238015,0.012169544301831767,0.011021492011879859,0.01061147494322283,0.010602361453825019,0.010438352377506094,0.009645647464104906,0.007941790385832388,0.005299443485565239,0.001745942733784674,-0.0025547039176184406,-0.007292703045945767,-0.01222204946992934,-0.01699649468485152,-0.021124017083895812,-0.024130827661181634,-0.02601691517242842,-0.027174080951778142,-0.02805789827059632,-0.02881415484854654,-0.02967064294345185,-0.03051801754895934,-0.031119378539988453,-0.031246939280856412,-0.031000925666378024,-0.03051801754895934,-0.029916656557930233,-0.029242398895999198,-0.028449693982598005,-0.0274474237901694,-0.02594402412366677,-0.023793701641286257,-0.02116046541934678,-0.01801698623393547,-0.01428125392475258,-0.009743708834910977,-0.004641246591779004,0.00022431575115800426,0.004032939446430959,0.006638842508959367,0.008616042425623145,0.010720808705295164,0.01313537178094969,0.015759494513491356,0.018183165456403413,0.020187700219120343,0.021554431277497486,0.022520258756615407,0.023194510796406165,0.023968994353152008,0.025299277076078184,0.02734026017424608,0.029973496396185562,0.03276163382718643,0.0349392911556201,0.03533108686762179,0.03315342953918812,0.028260525828515227,0.021353979487867877,0.013590945052315217,0.006073924231240944,-0.0003497112933603948,-0.0054339503807521354,-0.009105899508430902,-0.01132911866171335,-0.012112710085716726,-0.01181202677913203,-0.010909982481518227,-0.009689039142804667,-0.007711833604000609,-0.004431680750537556,4.208494150033874e-05,0.004907647211349524,0.009108069654579918,0.012224213993938075,0.014128528483980485,0.014957676110692356,0.015185468368515401,0.015376806668747198,0.01595994630312096,0.017135333439126026,0.018975870369804596,0.02145420538268268,0.02408744160462216,0.026046425786770876,0.026802682364721095,0.026447329366030094,0.02574574248018618,0.02539039510363546,0.025681964920822344,0.026192207884294175,0.02620132137369199,0.02539039510363546,0.02368653802536294,0.02130842328515938,0.01864785221716675,0.015577264080517086,0.011941757666149005,0.007531773317175358,0.002438420065728972,-0.00313784242756415,-0.008604764412216599,-0.013242541019013291,-0.016486246099239404,-0.018427003302592497,-0.01979373436096964,-0.021051126035134163,-0.022135400765722235,-0.023101222622699875,-0.023985045563658335,-0.0247139672955554,-0.025260658594478205,-0.025215102391769707,-0.02422194006659863,-0.021588709466799434,-0.016896263167896435,-0.010080834854806356,-0.0013884268977270217,0.008925839221605654,0.02008747432430554,0.030283293192168066,0.03688916184837101,0.038091889452569506,0.03380034673292572,0.02533572541152915,0.014884785061930706,0.004661635845727249,-0.0036298657210227262,-0.009033008459669253,-0.011875809960636152,-0.013433879319245086,-0.015110401551464451,-0.017342734194144713,-0.01994862994789075,-0.022326744688094313,-0.02389392753610106,-0.024176383863890132,-0.02311944397935522,-0.021023791189081008,-0.01856367753285827,-0.016258459463556644,-0.014235697722044085,-0.012522727154373754,-0.01132911866171335,-0.010600191307676001,-0.010253957420523093,-0.01029951362323159,-0.010691309335233276,-0.011429344556528154,-0.012586510335877875,-0.01371634126917444,-0.014490819203780004,-0.014800610377622227,-0.014818831734277569,-0.014381479819567385,-0.013051197096641211,-0.01084620492215439,-0.008458982314693298,-0.006818902795784618,-0.0064179992165254,-0.006982911872103543,-0.00786672919092172,-0.008468090181950829,-0.008832556670039644,-0.00956147840193671,-0.010964652173624535,-0.012878080153064759,-0.014445263001071507,-0.014682163126152082,-0.013124088145402862,-0.010071721365408544,-0.005962420323019592,-0.0012244189458361534,0.0034771352203243765,0.0077686734422559335,0.011313061829066742,0.014046523945821026,0.016187732938803726,0.017973600177375988,0.019559010004178364,0.020898400594362068,0.021964453968294793,0.022629592518687743,0.022784493727749138,0.022219575450030712,0.02067972744807712,0.01765468989199567,0.013153593137605033,0.007805116155566617,0.0026206504987032384,-0.001588880936212743,-0.004140112057778729,-0.004750584851563565,-0.0036845348509150066,-0.0017620001286453104,4.208494150033874e-05,0.0008985698149192639,0.0006798927331361158,-0.0004134920573441937,-0.0016891073932415754,-0.0023633616818884468,-0.002071792426915592,-0.0005592766848306212,0.002201519940648397,0.006073924231240944,0.010529470405063369,0.014811894013169055,0.018228721659111907,0.020169478862465003,0.020205927197915967,0.018556734189609472,0.015759494513491356,0.01265245804139073,0.009964552127344943,0.007741338596202779,0.0056092357838355205,0.00344980093648525,0.0012539200025401263,-0.0012973111190258601,-0.004869034914103852,-0.009761930191566319,-0.015647984983129724,-0.021479370082586817,-0.025743566711896884,-0.027602324999230793,-0.02718318881903567,-0.024887084239131857,-0.021051126035134163,-0.01632223702292048,-0.011247114123553888,-0.006335994678365937,-0.0017711113691870096,0.0020830698781081096,0.005408782307563828,0.008506703041410529,0.011668409205617463,0.014821001880426584,0.017600025822029648,0.019905243891331272,0.021681997640505726,0.02279360721714695,0.023194510796406165,0.023030501720087238,0.023003166874034087,0.02375031558472678,0.025572625536609727,0.028843665462888992,0.033517890405136655,0.03878436284901561,0.04340391809915695,0.04624672522226414,0.04651095457125758,0.04375015760845014,0.03841990198306707,0.03161357591509424,0.024169446142781617,0.01674353772712434,0.009846104875874798,0.0036502549749709715,-0.0018075574557818628,-0.006454441929836084,-0.009807486394274815,-0.011465787269838839,-0.011374674864421846,-0.009543257045281368,-0.0061993204481001676,-0.002263134662645586,0.0015181544114598268,0.004543185783186963,0.006347272691772484,0.006675285222270051,0.005955476979770797,0.004852978081457244,0.004406512677349249,0.00519010522578068,0.006629729019561555,0.007495324981724392,0.0068119594525358216,0.004242504725458381,-0.00015836894518759511,-0.005843967449409164,-0.01188491782789368,-0.0174794028022702,-0.021816496102482198,-0.024504402016527982,-0.025616005971028925,-0.025424667670797128,-0.02441328398897071,-0.023165000182063713,-0.022153622122377575,-0.0217709398997737,-0.02195317033274797,-0.022171849101173202,-0.022162735611775387,-0.021798274745826855,-0.020750448350689753,-0.018509007840751962,-0.015356415165942841,-0.012030705547557263,-0.009187904046590365,-0.007192477151130964,-0.006190206958702355,-0.005707298841283676,-0.005342834602050974,-0.004969261933346713,-0.0049237040439961315,-0.005515953794483541,-0.006910020823341892,-0.009087678151775561,-0.011730022240972568,-0.014244811211441898,-0.016130898722688684,-0.017133163292977007,-0.017142276782374823,-0.016158233568741836,-0.014427041644416163,-0.012276713539895368,-0.010244843931125281,-0.008604764412216599,-0.007347372738052076,-0.0063451025456234674,-0.0055706229243758214,-0.0049237040439961315,-0.004240338514807562,-0.00330184981724099,-0.0022266885760507324,-0.0013793150949712942,-0.0011697498159438733,-0.0015706573307012882,-0.0022266885760507324,-0.0030193923650238628,-0.0038394310000501473,-0.00451368472648299,-0.005014819260483265,-0.005634402170381744,-0.006317767699570314,-0.006855351131235583,-0.007183363661733151,-0.007064916410263004,-0.006591116160101855,-0.006007976525728089,-0.005361058207562428,-0.004686804481129586,-0.003748315783563014,-0.0023360268358352926,-0.0004226035789929071,0.0013905931083778402,0.002502200998376979,0.002775546647838379,0.002511312238918678,0.0021286277674586905,0.0019646198155678224,0.0022926351571355306,0.002839327580486387,0.003276681744052683,0.0035500279557281107,0.003786928080808686,0.004233392922702653,0.005108101249835246,0.006638842508959367,0.00884383468344619,0.0118415317713342,0.015768602380748883,0.02042460034420092,0.02560906824992041,0.03090287553985252,0.03567732637691498,0.039813967887497366,0.04330369220434215,0.04578203283936051,0.04696653346476339,0.04675696818573597,0.04521712018378237,0.042510987290940966,0.03870236393299643,0.03390057824988081,0.028515652932391423,0.02292116795801491,0.017946265331322837,0.014192306043344323,0.011185501088198784,0.007759559952858121,0.002985112489079828,-0.0027096000667535813,-0.008203860832957382,-0.012613845181931028,-0.01557509393436807,-0.017014716041506863,-0.016695811378266825,-0.014709497972205235,-0.010873539768207542,-0.004805253981455845,0.003987381557080379,0.015249245927879239,0.02681179585411891,0.035495095943940715,0.03876614149236027,0.03588689727808268,0.0278505087598582,0.016871098467992295,0.0056730150298414436,-0.003875877086645,-0.01086442627880973,-0.015374636522598182,-0.017934981695776005,-0.01923793519478931,-0.020039747975448028,-0.020704886525840974,-0.021151351929948967,-0.0213700306983742,-0.021351809341718857,-0.021114909216638285,-0.020413322330794372,-0.018764129322487878,-0.016349571868973633,-0.01371634126917444,-0.011611574989502422,-0.010472630566808043,-0.010472630566808043,-0.011593348010706796,-0.013087645432092178,-0.014217470743248462,-0.014700384482807423,-0.014490819203780004,-0.013907679569406235,-0.013206092683562324,-0.012540948511029097,-0.011684466038264072,-0.010354183315337896,-0.008786994845190866,-0.007429377276211537,-0.006408885727127588,-0.006026197882383431,-0.005971533812417404,-0.005661737016434898,-0.005023930501024964,-0.0044407925532932825,-0.004331453731294695,-0.004686804481129586,-0.005233496342266414,-0.005361058207562428,-0.005023930501024964,-0.004367900380103577,-0.0035934190722138443,-0.0024635881389172792,-0.0007323962145916055,0.0016912736038923943,0.004643412802429823,0.007868899337070738,0.011149052752747817,0.014119414994582673,0.016324407169069497,0.017499799927214843,0.017518021283870183,0.01641552519662677,0.014456541014478052,0.011950865533406534,0.009518086723236948,0.007504438471122204,0.005919028644319831,0.004534074542645264,0.0031035619894060873,0.0017641657770821008,0.001117246896702412,0.0017368314932429748,0.0032311238547021023,0.005089878206537819,0.006729954914376359,0.007750446463460308,0.007941790385832388,0.007422433932962742,0.006447498586587289,0.005272109201726114,0.003941824229943827,0.002365527330325237,0.00038832347816326114,-0.0017711113691870096,-0.0039032119326981546,-0.005351946404806701,-0.0059806416796749345,-0.006117315909940705,-0.006299546342914972,-0.006682228565518847,-0.007137807459024655,-0.007611607709185804,-0.00825852490292341,-0.009115012997828716,-0.009843934729725782,-0.009925939267885243,-0.009415690682273128,-0.008796108334588678,-0.008222082189612725,-0.00800340342118749,-0.008203860832957382,-0.00847720367134864,-0.008367864287136024,-0.0073018165353435785,-0.004814365221997544,-0.0006686152819435979,0.00467074708626895,0.010064778022159748,0.014319866784212282,0.01681642877588599,0.017490686437817028,0.016889325446787923,0.015923497967669998,0.015012345802798666,0.01416497119729117,0.013272040389075179,0.012780018782258687,0.012907579523126645,0.013937184561608407,0.015832385562253005,0.018137603631554634,0.02049749701510285,0.022738931902900356,0.024196780988834772,0.023896103304390362,0.02147242673933802,0.01729023464818742,0.012306218532097537,0.007231090010590663,0.003048893421727836,0.0007254506224866966,0.0006890045358918434,0.0023837503736226636,0.005053432119942965,0.008379142300542571,0.011832418281936388,0.014283424070901597,0.014985010956745511,0.013791402464085107,0.011130831396092477,0.0075773295198838546,0.0037231465859466502,7.853112367157686e-05,-0.002955611432375855,-0.004960150130590985,-0.005761968533389984,-0.005488619510644415,-0.004322342490752996,-0.0027733804371875602,-0.0012335307485918808,-0.0002768189515064797,-0.0002494843303389368,-0.0011879728592413,-0.002700488263997854,-0.004240338514807562,-0.005415727337454709,-0.006244876650808664,-0.006946463536652576,-0.007884956169717346,-0.009388355836219974,-0.011584240143449267,-0.014299475281407925,-0.017105834069064137,-0.01946572183047207,-0.020987348475770325,-0.02182560959188001,-0.02204428273816496,-0.021588709466799434,-0.02074133486129194,-0.020021520996652404,-0.01965706013070387,-0.019565947725286876,-0.019620617417393186,-0.01931082624355096,-0.018244772869618234,-0.015985111003025104,-0.012376945056850455,-0.007784724652762259,-0.0032198464035095844,0.0004885503849633161,0.0028302163399446874,0.003604697085620391,0.0032311238547021023,0.0021559620512978162,0.0007892309929206758,-0.0006595034791878706,-0.0018440035423767161,-0.0026093730475107205,-0.002964723235131583,-0.003101396340969297,-0.0033656307498889973,-0.003866765283889273,-0.004623023548481577,-0.005561511683834121,-0.006509111621942392,-0.007183363661733151,-0.007256260332635082,-0.0065546678246508885,-0.004841700068050698,-0.0017711113691870096,0.002274412113838104,0.006064810741843131,0.00816957702151515,0.007960011742487729,0.006128593923347251,0.004306285658106388,0.0037322589509164055,0.0047800859082675375,0.006602394173508401,0.007777781309513464,0.007531773317175358,0.006155928769400406,0.004242504725458381,0.002638873542000665,0.0020466237915132564,0.0027573236045409528,0.004224281682160954,0.005645680183788289,0.006538610992004281,0.0068028459631380095,0.006766403249827325,0.007048859577616396,0.007823343134362242,0.008734495299233574,0.009208295549394722,0.008934947088863183,0.008278916405727766,0.007613772233194539,0.006893963990695284,0.005809689260107214,0.003941824229943827,0.0014725965221092459,-0.0011515267726464468,-0.0033565195093472984,-0.00472325000551041,-0.004987484414430111,-0.004213004230968436,-0.002427142614536454,0.0006252236032438359,0.005153658576971798,0.01042013102085075,0.014565880398690669,0.01598728114917412,0.014420098301167368,0.010994157165826706,0.007431541800220271,0.005053432119942965,0.004679858889024676,0.006711733557721017,0.011221943801509468,0.017572690975976493,0.02457946883357893,0.030720645106878247,0.03471150451993734,0.036151126627076126,0.03546776109788756,0.03333565997216238,0.03030151454882341,0.026447329366030094,0.021581766123550637,0.01566837648593408,0.009035172983677987,0.0019190619262172417,-0.0054339503807521354,-0.012668514874037338,-0.01946572183047207,-0.02546111038410781,-0.030189999396321495,-0.03299635256183742,-0.033260587532971155,-0.030727582827986762,-0.02559778461437358,-0.017998759255139846,-0.00800340342118749,0.0041331664656738204,0.016779986062575303,0.026994026287093173,0.03215115934675951,0.0312946712518542,0.025217272537918722,0.016060172197935766,0.006310824356321518,-0.0019351193210778777,-0.007748281939451575,-0.010827983565499046,-0.011155996095996613,-0.009315464787458323,-0.006363329524419092,-0.0034749695718875855,-0.0016071039795101697,-0.0012061959025387267,-0.0017711113691870096,-0.0017802231719427372,-7.636508168496667e-05,0.00287577366708124,0.005117212490376945,0.004934982057402678,0.0022288547867015513,-0.001880450191185598,-0.005962420323019592,-0.008850778026694987,-0.009916825778487431,-0.008941890432111977,-0.006290432853517159,-0.0027369349128067355,0.0007527849063258225,0.003413354849890397,0.004889424168052097,0.005226551312375533,0.004661635845727249,0.003367796960539816,0.0017186084499455484,-3.472752761974225e-06,-0.0015797691334570156,-0.0032016233602121576,-0.004750584851563565,-0.0061993204481001676,-0.007903177526372688,-0.010244843931125281,-0.013014748761190246,-0.015602428780421227,-0.017133163292977007,-0.016960046349400553,-0.015055737481498428,-0.012267605672637837,-0.009743708834910977,-0.00847720367134864,-0.008686768950376062,-0.009725487478255634,-0.010490851923463386,-0.010007943806044707,-0.008185633854161758,-0.0055979583326430035,-0.003529638139565837,-0.003046726648862989,-0.004213004230968436,-0.006326881188968126,-0.008668547593720719,-0.01050907890225901,-0.011356447885626222,-0.011183330942049768,-0.010071721365408544,-0.008431647468640144,-0.007046695053607663,-0.0065637813140487005,-0.0069646905154482,-0.007730060582796233,-0.00813096416205545,-0.007329151381396733,-0.004768807894860992,-0.0005866113059981639,0.0045705200670260885,0.009645647464104906,0.013180927983658186,0.01375495412863414,0.01135861803177524,0.0069577415500591214,0.0020830698781081096,-0.0019533423643753045,-0.004759696092105263,-0.006636672362810351,-0.007812059498815412,-0.008167412497506415,-0.007566051506477308,-0.005862194428204789,-0.003383853793186424,-0.0006412804358904439,0.0019737316183235497,0.004096720379078967,0.005727684721947752,0.006784624606482667,0.007495324981724392,0.008278916405727766,0.009317634933607339,0.01042013102085075,0.011404174234483736,0.012351774734806033,0.013244705543022024,0.013964519407661562,0.014319866784212282,0.014046523945821026,0.012816467117709654,0.010930373984322585,0.009244738262705408,0.008351807454489416,0.008105799462151312,0.008124020818806654,0.008114907329408842,0.008014681434594037,0.008023794923991849,0.008324472608436263,0.008862056040101532,0.00939963384962652,0.009909882435238635,0.010447465866903906,0.011085269571243696,0.011659301338359934,0.011941757666149005,0.011896201463440509,0.011905309330698038,0.01232443988875288,0.01313537178094969,0.013928071072210595,0.014884785061930706,0.016442860042679926,0.018693408419875244,0.02136309297726569,0.024005437066462694,0.02573662899078837,0.025581733403867258,0.022647819497483367,0.016652425321707347,0.007914455539779233,-0.0024180308117807267,-0.012376945056850455,-0.02013997387026283,-0.024741302141608558,-0.02614447591329638,-0.025005537112742286,-0.02204428273816496,-0.017743637773403927,-0.01221293598053153,-0.005743741554594359,0.0008894580121635367,0.006657063865614709,0.010875704292216275,0.012916693012524457,0.012907579523126645,0.011549961954147318,0.009700317156211216,0.0079509038752302,0.00693952019340378,0.006857515655244317,0.007513546338379734,0.008807386347995225,0.010438352377506094,0.01171396540832596,0.012114874609725459,0.011367731521173052,0.009663874442900532,0.007504438471122204,0.00519010522578068,0.0028302163399446874,0.00032454265795805933,-0.002408919009024999,-0.005342834602050974,-0.00806718660269161,-0.010263065287780622,-0.011903144806689305,-0.013260762375668632,-0.014554602385284122,-0.015766432234599868,-0.016768702427028475,-0.017725416416748588,-0.018745907965832535,-0.019893960255784444,-0.020859787734902366,-0.02157048811014409,-0.022144508632979766,-0.02287343598701711,-0.02383925784399475,-0.02456817957589182,-0.02477774485491924,-0.02429483673750056,-0.02311944397935522,-0.021233356468108432,-0.01870945963038157,-0.015456641060757646,-0.011693579527661884,-0.007547830149821967,-0.002891831061941876,0.0024839773928655245,0.007923569029177045,0.012251548839991229,0.014875671572532896,0.015577264080517086,0.014748110831664937,0.013317596591783675,0.012142209455778612,0.011477070905385666,0.011030605501277673,0.010520356915665555,0.009818770029821644,0.009335856290262682,0.009663874442900532,0.010975935809171363,0.013426935975996292,0.016506637602043763,0.0196227875635422,0.022164905757924402,0.0234131895648314,0.023112506258246703,0.02167288415110791,0.01974123481501235,0.01764558202473814,0.015431476360853505,0.013016918907339262,0.010274343301187169,0.007076194423669551,0.0030306698162163807,-0.0021446846001052984,-0.00867765546097825,-0.01630401566626514,-0.024076157969075328,-0.03092803461761637,-0.036158058726044356,-0.03927420306540252,-0.039994011307901776,-0.0379621360769914,-0.03289612666702262,-0.025205988902371895,-0.015110401551464451,-0.002910054105239303,0.011176387598800972,0.025991756094664566,0.038984820260785494,0.04738566402281823,0.04907129974443541,0.0440326195583795,0.034164807598874254,0.022420032861800603,0.011631966492306781,0.003340462114486662,-0.002244911619348159,-0.005716406708541206,-0.007556938017079497,-0.008121856294797919,-0.008085407959346954,-0.008313194595029716,-0.00914234784388187,-0.010472630566808043,-0.01183024813578737,-0.012786962125507482,-0.012814296971560639,-0.012249378693842213,-0.011556905297396112,-0.010973765663022347,-0.010436182231357076,-0.00961614809404302,-0.008386085643791367,-0.007046695053607663,-0.005953306833621781,-0.005251719385563841,-0.004905481000698705,-0.004750584851563565,-0.004431680750537556,-0.0037300921780515587,-0.0025273690715652865,-0.0007506192578890321,0.0014361504355143927,0.0037049235426492235,0.005581901499996395,0.006848407787986788,0.007522659827777545,0.007960011742487729,0.008333586097834075,0.008543151376861496,0.008351807454489416,0.008005567945196225,0.00816957702151515,0.008980503291571677,0.009955438637947131,0.010493022069612402,0.010465687223559249,0.010083005000955372,0.009645647464104906,0.00906250782973114,0.007631999211990163,0.004907647211349524,0.0012265851564869721,-0.002408919009024999,-0.004987484414430111,-0.006135537266596047,-0.006153764245391671,-0.005579734727131548,-0.004477238639888136,-0.0024180308117807267,0.000570554473351556,0.0035135818691332575,0.005290331682809513,0.005463451437456107,0.004552297023728662,0.003796039883564413,0.003832485407945238,0.004442958201730074,0.005262997398970386,0.005937250000975173,0.006329045712976859,0.0064110502511363215,0.006092145587896286,0.005436116591402954,0.0047345280189169565,0.004397400874593521,0.004470293609997256,0.005171882182483253,0.006447498586587289,0.007677555414698659,0.007969125231885543,0.006884850501297471,0.004406512677349249,0.0009350159015141174,-0.003055838451618716,-0.007119586102369313,-0.010782421740650269,-0.013242541019013291,-0.013661671577068131,-0.01200337070150411,-0.009060343305722406,-0.0060170900151259015,-0.0038212079567527205,-0.0032654037306461365,-0.004613911745725851,-0.0074931604577156575,-0.010755086894597116,-0.013224314040217665,-0.014226584232646274,-0.013752783982485124,-0.012313161875346335,-0.010381518161391053,-0.007985182064532149,-0.005215273298968987,-0.0026913770234561546,-0.0012790880757284333,-0.0011241919265932926,-0.001616215220051869,-0.0016344382633492957,-0.0003770458583065348,0.0021195159647029627,0.005572789697240668,0.009618312618051753,0.01361827989836837,0.016652425321707347,0.0182742778618204,0.019039647929168433,0.019969027072835394,0.02159999310234626,0.024069220247966813,0.02718537020946525,0.0306933102608251,0.03395524231984684,0.0360417928650038,0.03606001422165914,0.03323543407734758,0.027540717586015975,0.019832352842569623,0.011486178772643197,0.004014716403133533,-0.0017711113691870096,-0.0056252943031242135,-0.007830286477611036,-0.008750552131880182,-0.008650326237065378,-0.007638942555238958,-0.005834859582151634,-0.003547861182863264,-0.0013337577678347416,0.0007983427956764033,0.0029760006863241003,0.005117212490376945,0.007294873192094783,0.009171847213943757,0.010192338763027706,0.00965476095350272,0.00768666890409647,0.0046889701295663765,0.001007908074703824,-0.0032654037306461365,-0.00793051237242584,-0.012540948511029097,-0.016641141686160515,-0.01964795226344634,-0.02142470039048051,-0.022226513171139224,-0.022472526785617612,-0.02256364481317489,-0.022645643729194066,-0.022363187401404996,-0.021306253139010363,-0.019565947725286876,-0.017288064502038403,-0.014928176740630468,-0.012796075614905296,-0.010654860999782311,-0.007602494219787991,-0.0034111886392395783,0.001335923416271532,0.005727684721947752,0.009035172983677987,0.010975935809171363,0.01191442282009585,0.012552232146575925,0.013281153878472991,0.013390493262685607,0.012251548839991229,0.009572756415343258,0.00561834702437722,0.0012356963970286711,-0.002828050129293869,-0.006108202420542893,-0.008404312622586991,-0.009607034604645206,-0.009944160624540586,-0.010117283190257323,-0.01077331387339274,-0.012395166413505796,-0.015183298222366385,-0.01911036883178107,-0.02367524876767583,-0.028267463549623742,-0.03231298703264886,-0.03548380106411332,-0.037424558267466414,-0.0377707977767596,-0.036577189284099206,-0.03399862275426604,-0.030135329704215185,-0.02502375846939763,-0.018654795560415542,-0.010636639643126968,-0.00036793433665782146,0.01260689621654195,0.027941626787415477,0.04343125294521011,0.0555587211491682,0.06142654896193599,0.05973181099520156,0.051941436091455455,0.04160894861546744,0.032342503269131594,0.026255991065798297,0.023786763920177745,0.023868762836196922,0.02492570272073184,0.02593708640255826,0.026647786777799984,0.027212699433378125,0.02752249622936063,0.027404043355750203,0.02648377770148106,0.024625025036287426,0.022119349555215908,0.019230991851540515,0.0164246330638843,0.01400096774311253,0.011859753127989543,0.009709430645609026,0.007422433932962742,0.004971428143997532,0.0021012929214055363,-0.0011515267726464468,-0.00456835385637527,-0.0076844987579474545,-0.010308621490489119,-0.012449836105612103,-0.014235697722044085,-0.01591221995426345,-0.017543185983774322,-0.019137703677834222,-0.020659330323132476,-0.021944056843350157,-0.02279143144885765,-0.022891657343672454,-0.022299409842041158,-0.021078460881187318,-0.01951127803318057,-0.018244772869618234,-0.01761607703253597,-0.017470294935012672,-0.017442960088959517,-0.016969159838798365,-0.015793767080653023,-0.014062580778467632,-0.011775584065821347,-0.008531873363454949,-0.004486350442643864,-0.00015836894518759511,0.0035409161529723837,0.005973698336426138,0.006948633682801591,0.006502168278693597,0.0047345280189169565,0.0018917276423781157,-0.0015251000035647357,-0.004841700068050698,-0.007392928940760572,-0.00880522182398649,-0.009051229816324596,-0.008468090181950829,-0.007128693969626843,-0.0054795077078886876,-0.003866765283889273,-0.0022266885760507324,-0.0007141726090801506,0.0002698734156229737,0.0003974349998119744,-0.000486384342976706,-0.0017893344124844364,-0.0027733804371875602,-0.0031469536681058494,-0.002782492239943288,-0.0017528883258895829,-0.00014925736731747895,0.0016092696279469602,0.003249346897999529,0.004652524042971523,0.006511276145951126,0.009235630395447877,0.01314447964820722,0.018019156380084486,0.023240066999114663,0.02792340543076013,0.031085105972826783,0.03206915480860005,0.03142223199272216,0.030465523625142335,0.030347076373672188,0.03125822291640323,0.03213293799010417,0.03206004694134252,0.030930210385905675,0.029590814173581684,0.028424534904834153,0.027103365671305793,0.024880146518023342,0.021135300719442644,0.015704824821385046,0.009445195674475299,0.0037231465859466502,-0.00044993814393904703,-0.0024362538550781535,-0.002408919009024999,-0.001406649941024448,-0.0006686152819435979,-0.000832622671620438,-0.001862226585674143,-0.0034749695718875855,-0.005333722799295246,-0.0073018165353435785,-0.00921523889264352,-0.011046656711783998,-0.013069418453296554,-0.015247075781730223,-0.017433846599561705,-0.019274377908099993,-0.020513548225609177,-0.021169578908744595,-0.021360922831116673,-0.021761826410375888,-0.022882549476414923,-0.024586406554687443,-0.02631759847901312,-0.027356311384752408,-0.02713763261632718,-0.025406440692001504,-0.02224474014993485,-0.018153660464201242,-0.013552332192855515,-0.00902389497027144,-0.005005707457727538,-0.001962453604917004,-5.8141982166137196e-05,0.0005978887571906818,5.1196485637613195e-05,-0.0011241919265932926,-0.002217576773295005,-0.0026913770234561546,-0.0024544768983755802,-0.0017984462152401636,-0.0007961765850255846,0.00045210424214706,0.0014725965221092459,0.0018097236664326817,0.0016730505605949675,0.0015819353441078343,0.0019190619262172417,0.0029486658402709466,0.00450673969659211,0.00599191969308148,0.006994189885510088,0.007668441925300846,0.008142242175461997,0.00816957702151515,0.007832451001619771,0.007130864115775859,0.0060374758957899765,0.004679858889024676,0.0032220120519463745,0.0020010659021626755,0.0010625772045961038,0.0004612157637957734,0.0002152042295092909,0.00040654652146068776,0.0009167928582166907,0.0012448081997843987,0.0007892309929206758,-0.0004772728213279927,-0.0017346652825921563,-0.002299580749240439,-0.0017164422392947295,0.0002425387944554309,0.0032402356574578297,0.006347272691772484,0.008880277396756873,0.010529470405063369,0.011331283185722085,0.011258392136960435,0.010274343301187169,0.008716273942578233,0.007449768779015895,0.007349542884201091,0.008716273942578233,0.011085269571243696,0.013882514869502099,0.016552193804752258,0.0187207432659284,0.02024236991122665,0.021226418746999917,0.021636435815656944,0.021435984026027338,0.0207161701613878,0.01969567861230385,0.018228721659111907,0.016078399176731394,0.01321737069696887,0.009846104875874798,0.006237933307559868,0.0027208775179460992,-0.0006595034791878706,-0.004267672798646688,-0.008185633854161758,-0.01195780887665533,-0.014663936147356458,-0.015438419704102301,-0.01379834018519362,-0.009889490932434278,-0.004759696092105263,0.00070722757918927,0.005937250000975173,0.010274343301187169,0.013326710081181487,0.014893898551328518,0.014830115369824398,0.013454270822049445,0.011376839388430579,0.00939052598236899,0.0077686734422559335,0.006338159202374672,0.00477097410551181,0.0025568701282692595,-0.0006959495657827238,-0.004495461683185563,-0.007903177526372688,-0.010600191307676001,-0.012714071076745834,-0.01440881466562054,-0.015985111003025104,-0.01767074672464228,-0.019274377908099993,-0.020358652638688066,-0.020768669707345092,-0.020549990938919863,-0.019675287109499496,-0.018591012378911424,-0.01760696354313816,-0.016777815916426287,-0.015839323283361517,-0.014691270993409613,-0.013306318578377128,-0.011575126654051455,-0.009269908584749827,-0.0061993204481001676,-0.0027369349128067355,0.0004612157637957734,0.0028028814938915333,0.0038689314945400915,0.003905377581134945,0.003367796960539816,0.002684431431351246,0.0020830698781081096,0.0013632582623246863,0.00012408878813654632,-0.0020444575808624375,-0.005051265347078119,-0.008650326237065378,-0.012868966663666945,-0.017770972619457082,-0.02309210913330206,-0.0281034600954451,-0.03212164873241706,-0.03481866251372037,-0.03638584536172712,-0.03673208487102031,-0.03537446730204098,-0.032039644194257595,-0.02667294585556384,-0.019474829697729602,-0.010709530691888618,-0.0006230573925930172,0.010921266117065056,0.024488350806021655,0.039713741992682565,0.05434689129985246,0.06511675317911178,0.06944473298992597,0.06646527974725444,0.057390133346168395,0.04490732338779986,0.03216027283615733,0.021554431277497486,0.013982740764316904,0.009244738262705408,0.006739068403774171,0.005919028644319831,0.006465719943242631,0.008051129770045004,0.010329012993293477,0.012661565908648259,0.014474767993273678,0.015495259542357627,0.015477038185702284,0.014574993888088483,0.012998697550683919,0.010903039138269432,0.008479373817497656,0.006146815280002593,0.0044338469611883745,0.0034589121770269497,0.003067116465025262,0.002739100561243526,0.0017641657770821008,-0.0002312612870415102,-0.002992058081184737,-0.005734628065196548,-0.007638942555238958,-0.008212968700214911,-0.007566051506477308,-0.006600229649499667,-0.006099094553285364,-0.006818902795784618,-0.008622991391012223,-0.01084620492215439,-0.012759627279454329,-0.013853009877299928,-0.01392590092606158,-0.01337920962713878,-0.012577396846480062,-0.011912252673946834,-0.011310891682917726,-0.010764200383994926,-0.010381518161391053,-0.010117283190257323,-0.009907717911229902,-0.009525030066485744,-0.008823443180641832,-0.00758427286313265,-0.005935085476966439,-0.004340565534050422,-0.003547861182863264,-0.0037027578942124334,-0.004213004230968436,-0.004103665408969848,-0.002882719259186149,-0.0008872923637267461,0.0012356963970286711,0.0029760006863241003,0.004260727768755807,0.005718576854690223,0.0080966859727535,0.011139939263350006,0.013982740764316904,0.01566837648593408,0.01539502802540254,0.01320826282971134,0.009909882435238635,0.006383715405083168,0.0032675699412969554,0.0006434466465412626,-0.0017528883258895829,-0.004112776649511546,-0.005935085476966439,-0.006855351131235583,-0.007074029899660816,-0.0069373556693950456,-0.006736898257625155,-0.006509111621942392,-0.006099094553285364,-0.005443062183507862,-0.004659469635076431,-0.003866765283889273,-0.0032562924901044375,-0.003055838451618716,-0.003165177273617304,-0.0032471806873487098,-0.0032380694468070108,-0.0036207539182669993,-0.004586576899672697,-0.00581663260335601,-0.006882685977288738,-0.0073200378919989215,-0.007019360207554509,-0.005889529274257943,-0.003994327149185287,-0.001452207830375029,0.0017823893825935557,0.005755019568000906,0.010556805251116522,0.015877941764961503,0.021062409670680994,0.025153494978554885,0.02738582199909486,0.027950734654673005,0.027549831075413787,0.026666008134455323,0.025845968375000986,0.02559996038266288,0.02601909094071772,0.02642000014211722,0.02620132137369199,0.025317504054873808,0.02423322932428574,0.02309428490159136,0.021937119122241642,0.020980405132521533,0.020233262043969122,0.01954989089264027,0.018839196139538827,0.018000935023429143,0.017235564956081112,0.016843763621939144,0.017035107544311222,0.017399568410259754,0.017108004215213152,0.015413255004198163,0.012114874609725459,0.007677555414698659,0.0027573236045409528,-0.002080903667457291,-0.006773346593076121,-0.011730022240972568,-0.017096720579666325,-0.022700313421300376,-0.027857446480966712,-0.03206697904031075,-0.03513756717696041,-0.03725144132388996,-0.038235490159663224,-0.0379165798742829,-0.036467849899886585,-0.03420818803329345,-0.03181185193643455,-0.029825538530372963,-0.028422359136544856,-0.027401867587460906,-0.026244701808111184,-0.024677518960104436,-0.022809652805512993,-0.02063199547707932,-0.018427003302592497,-0.01656825063739887,-0.01521063306841954,-0.01439970117622273,-0.014017018953618853,-0.013698114290378816,-0.012960079069083938,-0.011629796346157763,-0.009743708834910977,-0.007292703045945767,-0.004295007644699841,-0.0007961765850255846,0.0028302163399446874,0.006210598461506713,0.009044286473075798,0.011112604417296851,0.01232443988875288,0.012725349090152379,0.012752683936205534,0.012734462579550191,0.0127891322716565,0.012980470571888296,0.013436049465394102,0.013982740764316904,0.014538545552637516,0.014866563705275365,0.014775445677718092,0.013909849715555254,0.012488448965071805,0.010839261578905593,0.009071621319128954,0.007130864115775859,0.004998762427836657,0.002866662426539541,0.0011354699399998387,0.0003701003786444316,0.0006981157764335425,0.0020375119887575286,0.004042051249186687,0.0062288198181620555,0.00823336020301927,0.010165003916974552,0.012260662329389042,0.01435631511966325,0.015905276611014655,0.016379076861175804,0.01544058985025132,0.013235597675764495,0.010474800712957059,0.007641107079247693,0.00498053938453923,0.002903108513134394,0.0013450352190272595,-0.00011281122450122283,-0.001643550066105023,-0.003046726648862989,-0.0038120961539969927,-0.004194781187671009,-0.004641246591779004,-0.0051332693230235526,-0.005534176837780968,-0.0058075247360984805,-0.005734628065196548,-0.005005707457727538,-0.0036207539182669993,-0.001989788450970158,-0.0005410535853117917,0.0002880965151418032,0.0002972080930119193,-0.0006230573925930172,-0.002317803792537866,-0.00477791913540269,-0.007611607709185804,-0.01039062602864858,-0.01303297573998587,-0.015839323283361517,-0.019064812629072576,-0.022773210092202307,-0.02688251113459126,-0.03098270430972268,-0.03420818803329345,-0.035647810140432244,-0.03511934019816479,-0.03302368740789058,-0.029588638405292387,-0.024458840191679203,-0.017023829530904675,-0.006664007208863505,0.006757289760429513,0.022766272371093795,0.04055200310879224,0.058355960825286324,0.07328982717188261,0.08249248371457406,0.0848341613636072,0.08100728291616564,0.07315315294161684,0.06354041748672525,0.05397331694450611,0.04532645394585471,0.03775475781053384,0.03117622400038406,0.02565463007476919,0.020998632111317153,0.017080663747019716,0.013499832646898224,0.010019221819451252,0.006930406704005967,0.004561408826484389,0.002839327580486387,0.001281254286379252,-0.00034059971549027865,-0.002263134662645586,-0.004905481000698705,-0.008349642930480683,-0.012231157337186872,-0.015647984983129724,-0.017552299473172134,-0.01761607703253597,-0.01631312915566295,-0.014153693183884625,-0.011584240143449267,-0.008714103796429217,-0.005853080938806977,-0.003611642115511271,-0.0025182578310235875,-0.002955611432375855,-0.004987484414430111,-0.008048965246036271,-0.011438452423785685,-0.014691270993409613,-0.0173336207047469,-0.01890080355275365,-0.019292599264755336,-0.019019250804223797,-0.018864360839442967,-0.0199212951018376,-0.02250897512106858,-0.025734458844639353,-0.028112567962702627,-0.028932607722156972,-0.02848614231804897,-0.02766610255859463,-0.027201415797831297,-0.02724697200053979,-0.027520320461071335,-0.027556763174382017,-0.02707385505696334,-0.02612625455664104,-0.02482330667976802,-0.023301674412329484,-0.021597817334056964,-0.019165038523887377,-0.01577554572399768,-0.011857582981840526,-0.008112742805400109,-0.004896369760157006,-0.0025182578310235875,-0.0009237384503215994,-0.0001310343240200523,-0.00017659198848502176,-0.0009146266475658721,-0.0016708843499441488,-0.001515988200809008,-5.8141982166137196e-05,0.002174185094595243,0.004124055225132122,0.005199217028536407,0.005345000812701792,0.004944093297944377,0.004488516653294683,0.003941824229943827,0.0037049235426492235,0.004187835595566101,0.005354112615457519,0.00693952019340378,0.008716273942578233,0.01054769176171871,0.011987313868857501,0.012506670321727146,0.01212398809912327,0.011313061829066742,0.010739035684090788,0.010729922194692976,0.011194608955456315,0.011923536309493664,0.01279824013891403,0.01389162835889991,0.015076123362162503,0.01626974309910347,0.01730845600484276,0.018219608169714095,0.018957643391008975,0.01954989089264027,0.020032804632199232,0.020415492476943388,0.020898400594362068,0.021663770661710102,0.022711597056847204,0.023722980738673623,0.02413299780733065,0.02360453348720348,0.02241091937240279,0.021135300719442644,0.019932578737384427,0.01859318252506044,0.016934881649496417,0.014939454754037015,0.012843801963762808,0.01115816624214563,0.01020145225242552,0.00980965654042383,0.009344969779660494,0.008060243259442816,0.005736798211345564,0.002857550623783813,0.0002698734156229737,-0.0009875188207555787,-0.0006959495657827238,0.00019698112999046142,0.0004885503849633161,-0.0005319420636630783,-0.002682265220700427,-0.005279054231616994,-0.007739168450053762,-0.009579699758592053,-0.010609304797073815,-0.011092218536632776,-0.011538683940740771,-0.012231157337186872,-0.013142309502058204,-0.014035240310274194,-0.014718605839462764,-0.01508307232755158,-0.015165076865711044,-0.01509218019480911,-0.014991954299994305,-0.014782389020966886,-0.014354144973514234,-0.013470327654696053,-0.01202159205815945,-0.009825713373070439,-0.0069555770260503885,-0.0038120961539969927,-0.0008235114310787388,0.0015637117385963793,0.003058004662269535,0.0036502549749709715,0.0034042430471346694,0.002611539258161539,0.0015272662142155541,0.00032454265795805933,-0.0009146266475658721,-0.0020171232970233118,-0.002809827085996442,-0.002809827085996442,-0.001916896277780451,-0.00036793433665782146,0.0011354699399998387,0.001900838882919815,0.001982842858865249,0.0018097236664326817,0.0017641657770821008,0.0019099506856755425,0.0021195159647029627,0.0021195159647029627,0.0018188349069743809,0.0015090426087040994,0.0015728235413521067,0.0022197429839458235,0.003522693109674957,0.00544522839415868,0.007777781309513464,0.009727652002264369,0.010283456790584981,0.009290300087554186,0.007303981059352313,0.00449762845605041,0.001117246896702412,-0.0024453650956198524,-0.0056252943031242135,-0.008048965246036271,-0.009115012997828716,-0.008559208209508102,-0.006591116160101855,-0.0038212079567527205,-0.0009419614936190261,0.0017915006231352549,0.0043427317447012415,0.006584172816853059,0.00843381199264888,0.00979143518376849,0.010957708830375739,0.012287997175442196,0.013836958666793603,0.015349471822694043,0.016442860042679926,0.016880211957390107,0.01673442985986681,0.016078399176731394,0.01462966358019479,0.012051097050361621,0.0080966859727535,0.0033131278306475363,-0.0012061959025387267,-0.004850811870806425,-0.007693612247345266,-0.010099056211461697,-0.012340496721399488,-0.014490819203780004,-0.016094450387237717,-0.01618556841479499,-0.01371634126917444,-0.008395199133189177,-0.001370203854429595,0.005545454851187514,0.011285726983013588,0.01531302910938336,0.017609133689287175,0.01839273073543083,0.0180282698694823,0.01701688618765588,0.015686603464729706,0.01422875437879529,0.012880244677073492,0.011741300254379113,0.010666139013188856,0.009126291011235261,0.006565945838057434,0.002511312238918678
