0.45624600400738474,0.21265555328650643,-0.1936425090332754,-0.3756388140197822,-0.38995498026024966,-0.3464083339685303,-0.2872756037655584,-0.2331875965734492,-0.1963720484278825,-0.1831946636287934,-0.19271766409434066,-0.2201145159894751,-0.25768061183440905,-0.28761304992857606,-0.2865059652716786,-0.2504924761851749,-0.2079088368814846,-0.18648765510547438,-0.20597971861682113,-0.3178839541209455,-0.5004110990353215,-0.29678777861499844,-0.1851577263172978,-0.1322800728280687,-0.10114461734596074,-0.07979929848776143,-0.06373554123751181,-0.05155569128062677,-0.043709421907702446,-0.041905406348524396,-0.046031952552122925,-0.054106102497503854,-0.06614400273210115,-0.0862035434049201,-0.12619252534106368,-0.20367324007240956,-0.2480225175331207,-0.1797893140333906,-0.11666725240704687,-0.06587081022504343,-0.024446931481896604,0.007835281141186153,0.03209919464145184,0.050206014875372997,0.06503636836543371,0.08282451443469538,0.11966301444821414,0.22344061834754225,0.11665846135542304,0.05140949891611132,0.02658977858604203,0.011810658798076148,0.00015301567728185777,-0.010184298948544926,-0.019321369249497625,-0.027803221246238522,-0.03706327351358983,-0.051322651723577535,-0.07879510440841438,-0.12657206165386892,-0.17924288162425717,-0.20238679454445038,-0.19074670699347737,-0.15606293475995728,-0.10318201849408538,-0.035436127411525076,0.037099743428846116,0.10560360865922995,0.1734894557251809,0.2571577555079372,0.3897616245033929,0.6147757544930607,0.8840805330684363,0.9350495484600416,0.8596051921683344,0.821689138721138,0.803943858435529,0.7243428689450714,0.604507894360266,0.5162653287723019,0.46338331035801117,0.4179509949781541,0.362360766306711,0.3028216142889986,0.26570913893787984,0.2649217566532055,0.30657185710748963,0.37237716668367754,0.4251417812255438,0.433494377599156,0.38054605950408926,0.28859102832437217,0.18793253419612896,0.08404246438325041,-0.05532207257078272,-0.2815261376365055,-0.5865305385476476,-0.8277657132456832,-0.9201273921498699,-0.8565661509346139,-0.7079099500088537,-0.6031127895632181,-0.5855204348195135,-0.6169690043640339,-0.6280091120885374,-0.6183876503961284,-0.6329863755710999,-0.6996935737210764,-0.8097668324260675,-0.7028882017538644,-0.45680048763937425,-0.3455162927146344,-0.33962409608884675,-0.4284566879962514,-0.5233371435693085,-0.3806632462977585,-0.2440222087402834,-0.14694877837221088,-0.045805853483128434,0.08856765131605505,0.2291889084616285,0.2864999048040764,0.2937912491392619,0.31143776818728225,0.3635472340284436,0.46158788785950966,0.6119205427275103,0.7828696427050056,0.8983382984523972,0.9401840699755044,0.9537466393210275,0.9636093937091491,0.9610548684100603,0.9280288079504305,0.8784112442574807,0.8538157438599623,0.8647870227385397,0.8869737494783533,0.8978497685299673,0.8830603233537477,0.812505238131827,0.585453802715617,0.09066027385778591,-0.33277580010472246,-0.5137042167880691,-0.5891700446046088,-0.6457366695148445,-0.7177545191275473,-0.8068804631296314,-0.8839675284542913,-0.9237761133922608,-0.9223559893768051,-0.8620435428717977,-0.7440835530692114,-0.6394697614874936,-0.5920391367696151,-0.5674792178407471,-0.5047982319351326,-0.38578442737832286,-0.2462961424664822,-0.11824576153607952,-0.007889642781972704,0.07290036245430977,0.12137652366969176,0.1480442276065985,0.16092923646569363,0.16313843804831563,0.15455922121888824,0.12728731999715492,0.059549819377552146,-0.07748438077620218,-0.28323523262960515,-0.4601028105390617,-0.495111271382051,-0.42352485029081127,-0.320355990888149,-0.21930253052090876,-0.12766624518747904,-0.050459745673226086,0.004457585781264161,0.03271468152848842,0.03921366697607978,0.033434522656642575,0.02077076863494352,0.0024010570974718685,-0.01719318070830042,-0.032792607166162176,-0.03983401034035574,-0.04568645640046612,-0.0630865046619058,-0.10472506952466241,-0.16870957673833575,-0.23546138291044075,-0.2847234439132754,-0.30532159589627456,-0.29580891196511516,-0.2675815198845455,-0.2339568349694732,-0.19994799440148975,-0.16356858473822988,-0.12341375699586926,-0.08689085608298841,-0.06525034108285863,-0.0612238328345295,-0.06475405858971804,-0.06371882424265098,-0.04806078140421468,-0.021530129310315223,0.0019709387790558556,0.013243294236804593,0.007751221159618957,-0.03460524398708574,-0.18732665506440943,-0.21819587179348307,-0.2192731938954776,-0.2543755070938866,-0.33396395921499905,-0.4855413572870363,-0.6787049736626242,-0.6610865199456418,-0.4407117682409366,-0.2396893389368461,-0.12284719101537477,-0.07233258037770979,-0.046302477337902194,-0.012492841435165523,0.04945486696069411,0.13150516193923112,0.1995806564049449,0.23370884099558928,0.23897309047517348,0.2347668213871442,0.24761787470056307,0.3071101814778304,0.28995902168876503,0.19701770593386828,0.16754961484566983,0.17641186101044792,0.22193519356520253,0.3378899717525961,0.5240195822816183,0.525393030836136,0.4463434093303217,0.39955432106732763,0.3675783044429552,0.33802362832432997,0.3063431370588765,0.27728275864350876,0.2564743523138026,0.2514902672205678,0.2686734574212595,0.3106499834524566,0.37830431796472286,0.4648645581117017,0.5522938807639068,0.6164090715062267,0.6570141193156958,0.6780990057878847,0.6912441042938896,0.720561156888325,0.7924370669219825,0.8415849484833257,0.407514676226023,0.08323747255971628,-0.011994034930933595,-0.019987378805112255,0.011571285753105197,0.05284510949268904,0.0803908735352732,0.08878951582991416,0.08431304168744673,0.07292158759454095,0.05974362252935264,0.050148181129280676,0.048401848358465456,0.05024945370839674,0.04337082267867779,0.02667444816255744,0.011453233213146253,0.005038839291768338,0.008716777012987583,0.019206996199734545,0.033261451810798016,0.03818812903912315,0.024659487529584828,0.014827888254776028,0.012704028593750109,0.014518734604758759,0.018396712467880792,0.02402303018604861,0.02855293687172431,0.011555151966123613,-0.015855303539641624,-0.04199805350953166,-0.06399472706977372,-0.08023493881993746,-0.09139176109932891,-0.09854280217130908,-0.10209349068652877,-0.10420634473586546,-0.10715684480712358,-0.11226300067019841,-0.11744314611004911,-0.11524955438111638,-0.10694531035408396,-0.10912647977962049,-0.14757564245566349,-0.22571744367032698,-0.3257928972498324,-0.42354891719493637,-0.5000242211723334,-0.5211166299744152,-0.4462260792149463,-0.2972485802617458,-0.14412176312665279,-0.030175197920205673,0.04709279163058961,0.10030959784311716,0.12587857339291317,0.12420190589985414,0.11478485504329225,0.12731186113624693,0.20592181066176143,0.3680444490057081,0.3644294574654144,0.28985049698645493,0.23710392493300755,0.19806622370653995,0.17690428094788943,0.1807989282672058,0.2094042541798752,0.24835991075168323,0.27940475101645956,0.28306654116035146,0.2264912791960678,0.07567154701315609,-0.1313962572916662,-0.2896302886148244,-0.3654273663580386,-0.3834616987163876,-0.36705280568855153,-0.3253341268351573,-0.25494141324261194,-0.14322830060479438,0.0287339017994952,0.2595565473238345,0.5144421070111665,0.7420809913094816,0.8789373883845639,0.9006299856054703,0.8586689190380328,0.8297553834929109,0.8322099204274258,0.786650635521718,0.6431265072263611,0.41102428455174383,0.15817697494558244,-0.030652541460398655,-0.14450143610683203,-0.20263320401366933,-0.2175561395544935,-0.19139505893304318,-0.12163177756015633,-0.015424659647391143,0.09519888213909086,0.16941018112233472,0.18454271282636645,0.1455149151586781,0.07903801201266639,0.013085382639889757,-0.0413236234926599,-0.0825183738710188,-0.11301864006310416,-0.1397245940694134,-0.19625548259754635,-0.4430473513550372,-0.17170014024011662,-0.10315662318733053,-0.08906258924381284,-0.09034699536548822,-0.10029003327958237,-0.11688030529876707,-0.13751019117996363,-0.15240310532652965,-0.14395896048995144,-0.09533022634691896,-0.023260785655640253,0.016466278270250812,-0.008665918125181409,-0.1164015946610366,-0.34691339042924685,-0.5685357129812184,-0.5583628562870655,-0.5010319972013142,-0.45096917544923293,-0.4045547425157486,-0.36037233892515264,-0.3166888422599499,-0.27300304126144403,-0.24336540683860172,-0.23514202116873636,-0.2400080176343844,-0.24502956574220416,-0.23658056728149546,-0.20861761824675018,-0.1746468168205118,-0.15108560938124957,-0.14566470207360743,-0.16448363637373475,-0.2178155086291857,-0.21538068777018476,-0.1289895579672894,-0.08509528890828803,-0.06557286134947601,-0.059244233666517626,-0.06370383339725823,-0.07798206890193765,-0.10176698036888024,-0.132713621297163,-0.1618216867384099,-0.17166167102946803,-0.1608205988530605,-0.15104804729132273,-0.16012801690404627,-0.19637085288818643,-0.22849211961417643,-0.1977858570530477,-0.12655309728248978,-0.054934746561268094,0.00275184899842172,0.045646157743692545,0.07992493948375794,0.11744215484088821,0.16735498653960293,0.23709629633913382,0.33563843747507005,0.4644430221184609,0.5894210551600595,0.6604157339795035,0.6912466263300173,0.7203255326587354,0.752456811210091,0.7639743150313172,0.7349112289820883,0.6818552313970854,0.6319569957136215,0.5824423947770723,0.5067384510988799,0.39033109347219386,0.26989008116961655,0.18740509287514556,0.14764374598644686,0.13039150811420613,0.12198586796909745,0.11516963473871909,0.11127180937327288,0.11908470006641989,0.15866345153366887,0.37110850540548795,0.33599832975304905,0.1204098784492532,0.06895691265813836,0.040252934215421116,0.016445588807122092,-0.007530891272666147,-0.03557631246198521,-0.07611768599583861,-0.12074106162005581,-0.10395898216682263,-0.09196106022042944,-0.07447271095207365,0.007771092586918313,0.09507876265699693,0.14784101439394767,0.16355948685764157,0.1437928670157397,0.09673978985083358,0.03894364018944988,-0.014765154472025557,-0.05916148065745758,-0.09346869471620138,-0.11436793172061058,-0.11800063907886839,-0.1022301445686798,-0.04992457468340885,0.05867183086027891,0.11000972921630188,0.13088182011155788,0.14519238560293518,0.15891387815167424,0.17399830705631947,0.19172213564380863,0.21027473954151987,0.22472646677609293,0.23158422831691983,0.22911331194887607,0.22342539261883942,0.225313273286659,0.24429548226834957,0.2977842153462673,0.41998864205863456,0.583664625875496,0.46430663547804674,0.2437129246634621,0.07672743010184338,-0.0632264671469634,-0.18928845329181163,-0.30777686138749094,-0.43184096373082453,-0.5732676673783843,-0.6680528491530263,-0.6733902793888039,-0.7095245450138721,-0.7863392427185882,-0.8629472206525463,-0.896013438000355,-0.7902262917930373,-0.4753361549385311,-0.18057667175039002,-0.043249281135564914,-0.020662335069795687,-0.06764429276025288,-0.1576344066184471,-0.2684957182731593,-0.3695604457077029,-0.4421405420993094,-0.4941558151032548,-0.5474776886363335,-0.61027470608839,-0.6805393423747155,-0.752354477199382,-0.8205735197224505,-0.8540711009967763,-0.7940530448882381,-0.5754410106157851,-0.08178726926285858,0.48374853393001266,0.73651710876471,0.7739280115622821,0.6856613442442403,0.5573306108847269,0.462846366818172,0.41577483301770046,0.40367575446388104,0.4089357091044509,0.41110188675365483,0.38975493705058967,0.3276093422149348,0.2189011285787879,0.08049092130101852,-0.051439642605930605,-0.15190396272748966,-0.2101105730552772,-0.23204816969197214,-0.23760984979256106,-0.24742331021612332,-0.28815412496971593,-0.3762328217313081,-0.23487696673552502,-0.1288391031819976,-0.10328629922511064,-0.0976725507624919,-0.08281218198545318,-0.05351984046193064,-0.02071443425923005,0.006234128486129495,0.019685728227436947,0.013198145063821068,-0.01454844330643362,-0.06365013017459978,-0.13318959421320228,-0.14800091518063518,-0.0861473893280489,-0.035381616038678995,-0.0006827015852214446,0.024824249713143464,0.043065997102331006,0.05224218512839565,0.04926213141922849,0.03520253760370964,0.013815945316784668,-0.010877312236981202,-0.037224708037877384,-0.06633025506444819,-0.10551315225464761,-0.1765751503145965,-0.2575466715323408,-0.2617853772380373,-0.2544873018519651,-0.27162052077251103,-0.3048094394383589,-0.34271062275856046,-0.37515210749231775,-0.39236558674061456,-0.3988946555391556,-0.4021087105503512,-0.40180690925379836,-0.3950261849096695,-0.37690635172595266,-0.34128237973982833,-0.2868955237926857,-0.23115904893140948,-0.1899502824745194,-0.16100359967192102,-0.12961612194060387,-0.08113321557265399,-0.01458289326959084,0.045293214162304564,0.07803635696240303,0.0722513579090682,0.03721827585613408,-0.0029198727078884597,-0.025274444151685265,-0.01855380876935153,0.0031305176226251747,0.02332129655547129,0.05550908547451538,0.12603329241840652,0.25006922805122483,0.41839190411173777,0.5923502218314396,0.715129548536306,0.7671975992729052,0.7616738769566614,0.7152839253754736,0.6475316201805914,0.578329200691309,0.5194543902774592,0.4738594517083303,0.4303103261192991,0.3866557029398152,0.3459517148014167,0.2714942998979382,0.09479500024459964,-0.13870039217810115,-0.2637599394244316,-0.28079966917678667,-0.2558641074157743,-0.23427893004336195,-0.2578466043550985,-0.42470802449020506,-0.6817709020361501,-0.4351314739344206,-0.34339003440743365,-0.3145428779656656,-0.29658704143491793,-0.26421013458015286,-0.20505219011835424,-0.13080834717393805,-0.06627955901088457,-0.02085321907756993,0.009663411395182536,0.03082619488444887,0.049786321096577435,0.07358896682686872,0.10742442241883515,0.15716661953033018,0.23005975919198934,0.3374270955021459,0.497669273135287,0.7247109348506666,0.9350157129493727,0.9510880372857973,0.8592328128628824,0.7748974451687581,0.7146600007516676,0.6697724142438323,0.6284820363428475,0.5739054280434208,0.46469809369215626,0.20816740011187482,-0.20410711806382073,-0.5008103748380085,-0.6244415571037402,-0.6643035682369097,-0.6678170331990377,-0.6541669284531804,-0.6376271509380945,-0.6315736234692962,-0.651162374590094,-0.7106305741453737,-0.819057819147121,-0.8944864476915857,-0.7141187402214733,-0.4507747835689919,-0.266638968691314,-0.13913852599452664,-0.04244535721546067,0.03285599484067543,0.08610537692545725,0.11771601666368167,0.129441990691014,0.12411588778023352,0.10796258508947336,0.08796034732035585,0.0693920322101585,0.05810623577097855,0.060096244412671786,0.09014781545668372,0.08205476682015059,0.03501339530110663,0.017910464541946877,0.008201777779351237,-8.325597162483849e-05,-0.008662085134565806,-0.017400347345923356,-0.026147308736107832,-0.035338386105043126,-0.0408253571463823,-0.030530612632715875,0.018253031865064925,0.12529744723605268,0.22271828248482814,0.26642889365676214,0.2891672411799074,0.3068466323721389,0.3123412607353184,0.2507677754045814,0.10506515916047697,-0.04341421469572311,-0.18690220368081728,-0.34862927408231226,-0.4273695510038634,-0.3776498561585056,-0.3457768931050765,-0.3518155589646416,-0.3828539950129328,-0.42027800632285806,-0.4303961557115571,-0.4186682698403742,-0.42256700690664317,-0.45778811272321007,-0.5140220585895379,-0.5667990935837981,-0.5986652677085584,-0.6084962039947692,-0.5910514870544302,-0.5346126190559862,-0.4719627309422315,-0.4610306105993573,-0.5240288649425487,-0.6083155616770886,-0.23909694457328393,0.058077914464635165,0.18848714551558227,0.26006050555815596,0.31279947422037513,0.36597803977274446,0.4251775571214925,0.46132161862254706,0.43766525080883767,0.36327068562707143,0.2689630488971299,0.17316734403534995,0.07861425935508255,-0.0094578049236804,-0.06813327623348597,-0.08571101361794198,-0.09379172970648277,-0.1473295570571209,-0.22905208262023063,-0.24999125580230944,-0.2519179129369766,-0.24406521800082187,-0.21916259741093433,-0.161999433034354,-0.04351233694453839,0.16026443913696448,0.3961941330848702,0.5675294126308942,0.6789161089403413,0.7628906082200202,0.8134392018953794,0.8156043468609369,0.7815872075442452,0.7300699876490273,0.6667875144814595,0.566095789152959,0.38334105294873105,0.21882571461457254,0.16722233659779936,0.18922587944889546,0.24016126950349856,0.28362956718042254,0.2795046554325972,0.22363065868112586,0.17040155206024912,0.1506701757807135,0.16160669528742458,0.19459247590940015,0.2415364591592474,0.29178846949034426,0.34114591917940734,0.39707231737054355,0.4775813476606708,0.6182281728044552,0.8100917612194196,0.7914254009811131,0.6405168778457402,0.5372581290922226,0.4649818993682959,0.39712013661021944,0.31571815538095926,0.21372057807239803,0.09245189958958278,-0.02507539009918067,-0.11733813196442311,-0.1834241236475796,-0.23632649586518567,-0.290483178929799,-0.35705860720893073,-0.44284279947821853,-0.546931863682899,-0.6545452924855522,-0.7372325227621642,-0.7785097539316865,-0.7837731632617996,-0.7665079997101245,-0.7356886323963316,-0.7070242539966918,-0.700833088508759,-0.7055666626354421,-0.6576387888622048,-0.5882665080297108,-0.5655423583319578,-0.5787771675477124,-0.59784165717177,-0.6039604055916863,-0.593676545521959,-0.5757923075321223,-0.5542628010251331,-0.5203868863907846,-0.4558554375132633,-0.35570272287878685,-0.24213603933863662,-0.1416384543363599,-0.064312176546656,-0.004901222461934878,0.05644573932138007,0.13879811727057198,0.2596467560734136,0.4246609599228333,0.6056819781588342,0.7320143421184213,0.7552585831255133,0.7137045790720913,0.6750205953658773,0.6642864238620522,0.6650927958105751,0.6546183828470046,0.6263040338724017,0.5789058877822596,0.5153864268383732,0.4535723401326047,0.42788850472943146,0.43595986757682514,0.448452737403912,0.435546270893239,0.37499509859021446,0.26315299295787276,0.13298833822618567,0.02757643839054091,-0.028248768416472402,-0.02456615799837092,0.02592197933114212,0.08522347318707196,0.1345279349459414,0.17608830311717596,0.2150894274473293,0.2572297500539684,0.3145672682146274,0.38463407799798777,0.4567394052767851,0.5073016325307036,0.4824513477080579,0.3582723342617706,0.21726017961143917,0.12649687915929286,0.08597696644872933,0.08205295482205109,0.09849358800371588,0.10103077945504657,0.0746632598171797,0.026210522593663903,-0.03815126566546322,-0.11102251329705932,-0.17811655549402547,-0.22884135097788913,-0.2769818293460105,-0.346501902784367,-0.4532360942159953,-0.48391171816313594,-0.3847545622491911,-0.3275010449688851,-0.33601926299340573,-0.38188917806082195,-0.42107099915718266,-0.4104027224966618,-0.3371503677421322,-0.21781775577207124,-0.09760529743039617,-0.006439614983405264,0.050072305150933555,0.07672244215307973,0.08067181734548078,0.06636792469294875,0.04720453571410697,0.04484966733778796,0.09045889465370954,0.139205371658774,0.14374486939202485,0.15009446972100984,0.16153357569041712,0.17370647784224702,0.18425145046851518,0.19190395798457846,0.19387110666021795,0.18689655024273738,0.1661419019336784,0.1287921469195173,0.07538336504014509,0.008354627747935063,-0.06228553611565848,-0.11660597823591491,-0.14760763458466464,-0.16233488122694892,-0.17808267570933795,-0.20899149455632515,-0.265585860250363,-0.317421848047053,-0.33896464212639316,-0.34749001814396996,-0.3550648066815915,-0.35097092662780655,-0.3231528717955578,-0.25673740177686966,-0.14207304951928063,0.025502522367081927,0.23411937595738053,0.4537483466383826,0.6319224051394867,0.7395847590819491,0.7915038415949065,0.8096102137991221,0.804898626780755,0.7801946606585378,0.7315645505758916,0.6478499734411742,0.5076918326848479,0.2969913882020807,0.06439882891754337,-0.09953522560265461,-0.18250993441097996,-0.21903550075796321,-0.2357698106298214,-0.24869037128685495,-0.2630970577499173,-0.27935995703012717,-0.29675096300285725,-0.3172426706678073,-0.3442332909554432,-0.39308720295919336,-0.5025591769309934,-0.7565645212634022,-0.6895443157776218,-0.3595387055206628,-0.2252106776169899,-0.16513495210082108,-0.13685256666639134,-0.12808584951737817,-0.13170010765613105,-0.14374680272588589,-0.1588072385718763,-0.17232567037719881,-0.18423406301917436,-0.19785547193261416,-0.21838645243147342,-0.24981163824923452,-0.28775120991008807,-0.32028419620761295,-0.3378848449888974,-0.34809861868835923,-0.36785401926510936,-0.4109813652255519,-0.4828692145992084,-0.559826704184003,-0.5575276121234902,-0.4316507516436489,-0.28683650263596505,-0.18765854377556523,-0.13121735683548305,-0.10256121017576958,-0.09206182502501775,-0.09815351637180403,-0.12853453743224494,-0.19777741154955186,-0.32288324631069243,-0.4957384311107136,-0.6533618342307858,-0.7460938526978959,-0.791067624040838,-0.8230472890066465,-0.8649934812482686,-0.9172779974483697,-0.9406427556058451,-0.869789522539952,-0.6509635809242102,-0.27497719747173716,0.17483158198588977,0.5372729314908771,0.7539243410470157,0.8688924783861933,0.9243468313122473,0.9429408677525755,0.9367376366664572,0.9129059210155583,0.8830579585064843,0.8611669861607757,0.8502713505623909,0.8431539085477627,0.8330020710471192,0.8153212822951795,0.7865146128036581,0.7389627685520834,0.6643556108446047,0.5671581256614102,0.4676432588533911,0.38343535767948944,0.32032071273675156,0.2744704896743436,0.23848935669956056,0.20353191001679535,0.14676269972759837,-0.003060230670071018,-0.062057650063383915,-0.06490684375888038,-0.06299320460236,-0.06641859739634301,-0.07977422296974387,-0.10875515909804322,-0.16007032611390853,-0.23299861333831864,-0.29146074162895297,-0.316536913331554,-0.34013401069362503,-0.3816288149049207,-0.443929234817507,-0.5260208141700985,-0.6086250005879619,-0.6319625160008193,-0.5907261725028321,-0.5404626909748704,-0.49886276555994397,-0.45753043097059254,-0.4131250401628108,-0.3778715404648222,-0.3682045095085656,-0.4015137274382599,-0.49846214309620723,-0.6524417769685334,-0.745545463909225,-0.7316588083780048,-0.7151884827825757,-0.7195434112591929,-0.7191878503789798,-0.6812881247918582,-0.5443720743725464,-0.2765406044999985,-0.009070944769975565,0.19679571690356332,0.36340966882027026,0.5119324640206108,0.6484982246815365,0.7487624830800735,0.7698798271234404,0.7246680427869916,0.6881009156788643,0.7158191872774563,0.8013184841738938,0.8657841929743171,0.8706605594164532,0.8474127033968701,0.8131005063608171,0.7645140761659627,0.6881101748942227,0.5679832830365218,0.4079490655924612,0.25061130024343936,0.14328493933746786,0.10057147029113228,0.0974446552251492,0.10844327177534312,0.11635775022587293,0.10454718325366558,0.06321647007659364,0.002198538299640938,-0.06148928887207811,-0.10939874428469074,-0.12885957922860022,-0.121956480508444,-0.09301188981945525,-0.03378638480902951,0.05914808194352805,0.05828689080461846,0.028588736262377106,0.008037960700135516,0.005070943506031199,0.022467726078825977,0.05708034902051828,0.1022837879179122,0.15085672367159902,0.18527189214806458,0.19231531407249983,0.1812538545377196,0.1641999882531821,0.14111831507248604,0.10130601423934778,0.029827518619190977,-0.08751811029263531,-0.24453727053177984,-0.3966595909228357,-0.4971040677190599,-0.5444013268677006,-0.5565167259653911,-0.5425963708521253,-0.49528778512766863,-0.41321889072662293,-0.32743032696421437,-0.2662341686983649,-0.22975393442612554,-0.2086741428441133,-0.1927699193470441,-0.1756437529783823,-0.15683067658257366,-0.14821870164071113,-0.17391065233519698,-0.2775622011905015,-0.49004857545856406,-0.5143619871360579,-0.4159556102868027,-0.34115616838606594,-0.26846359634477335,-0.16828343699596499,-0.013918438383203169,0.20076341200602776,0.4506911174149451,0.6716814591094391,0.8130572721380043,0.8778401153918676,0.9009876980788851,0.9073493312793767,0.9085284631412499,0.9083788637293849,0.9058287118887975,0.8974926774618639,0.8785845927668751,0.8369098109242216,0.7379506367557517,0.4955309374954307,0.03979754913679375,-0.33122456842418,-0.4550279155528291,-0.456164545170634,-0.42016971431716915,-0.38782989933475465,-0.39100053473882285,-0.46178170392534396,-0.6268239789405021,-0.79322916157827,-0.8237919080354452,-0.7914541262704528,-0.756523342180685,-0.7176903235188342,-0.6587516160626147,-0.5658585081424297,-0.4276039686299675,-0.2725091024328455,-0.1577677862149943,-0.09791221853088189,-0.07799937196978617,-0.07859555627011135,-0.088513108708149,-0.10729473922496051,-0.15242431978912507,-0.2687554145641725,-0.1443665433182979,-0.07197596046839301,-0.03507770772086036,0.0057004733525177756,0.06336899666036094,0.13906137923011036,0.22445785020686376,0.3118326980771294,0.3898137929464985,0.45015536607564344,0.4869319270914937,0.4931829380099326,0.44115376212838725,0.2968243524184646,0.13350298212315323,0.03984608400261371,0.003372087520523221,-0.008535152229455166,-0.02206731366025078,-0.055458270521404375,-0.11818993596729345,-0.21921607822887174,-0.38954782070281496,-0.7035087567959464,-0.7956586616055752,-0.4998263173664736,-0.32201808883684574,-0.2260595677449148,-0.17190602633863472,-0.14181954024094773,-0.12552387254786274,-0.11625547767503126,-0.11105514625805049,-0.10858588883597353,-0.10600169187922111,-0.10184005665946573,-0.09777545728126111,-0.09518434744046607,-0.09701248973701644,-0.10567481552438522,-0.1233892961964632,-0.14018735800028256,-0.11989447806919618,-0.05564469294945126,0.04541303883848506,0.14573743006129064,0.18001696800668182,0.18550211845258988,0.19346318389182662,0.21468798553437965,0.2563153720679956,0.32552189788514585,0.41985106435417224,0.5137499310365865,0.587371727343511,0.6479900716857655,0.698028609076881,0.7184378041720102,0.6796646687260292,0.5734878481314941,0.39566408827913013,0.14388020966152612,-0.09466647433598614,-0.22997113334174096,-0.2827938345287393,-0.2921440306035866,-0.277810368583014,-0.252406025085728,-0.22486737811680313,-0.20152392604062042,-0.18407328727904665,-0.1731586315300913,-0.16635506697037922,-0.16112097901525252,-0.15369824615316632,-0.12392485888071099,-0.07863040811020265,-0.05046969117583883,-0.03734597594533485,-0.02649127048996853,-0.009633489484520738,0.01674178585493592,0.04200484895364814,0.05322148269767424,0.051148138060959865,0.044433517363233324,0.0394051815716884,0.0366359368697821,0.037280836841924125,0.041990867704361313,0.04786488295305749,0.059362921986121364,0.0778091395371122,0.10304974729909983,0.12337745146162242,0.13364970115599412,0.14078887036638893,0.14681625452079552,0.1340961942717419,0.10025516549199213,0.06313310005765065,0.032473606605347725,0.004259140109717189,-0.022809896682647796,-0.03896435136412912,-0.035351391825371795,-0.006513861727591471,0.031750247849646716,0.050835995592754396,0.06492520520134179,0.0905465330203168,0.14001008604113535,0.2322162136283263,0.3143509084666287,0.2815093948073218,0.24100463254878685,0.22796879814018225,0.24942502418510468,0.3262770296408764,0.4531607989489237,0.3503424029142293,0.19295117409574822,0.1022417754310024,0.0324590984319297,-0.05009560328359058,-0.13738469659450994,-0.07102725866019086,-0.015514577147830668,0.015469825822172285,0.03492083079765221,0.05248971780453655,0.07654461337311637,0.11439694544090738,0.1615288349583181,0.1972151148660948,0.2106915333194027,0.21226336888314337,0.20739519937893983,0.1980431865798293,0.16887238034206345,0.09059542765156954,-0.06785229210382553,-0.26318938549780674,-0.41806570834996254,-0.5097718999675652,-0.5466093412619979,-0.5411796009375593,-0.5156006672099592,-0.4927023843001796,-0.4864687192135188,-0.4971187803296329,-0.5047189888962635,-0.4770185500389748,-0.3466183620229614,-0.06096114683445971,0.23358118809789175,0.413410314117145,0.5221755043119134,0.6024669475725356,0.6710435520063366,0.7259839484103126,0.7607228993598016,0.7748109102553611,0.7823151067318298,0.7952888898675528,0.8137678149840524,0.8324338939981325,0.8491051629062196,0.8611572052467319,0.8618424997013533,0.843236425661464,0.8044476402008288,0.7560985712193995,0.7125429733841526,0.6766639611475768,0.6173512861714291,0.46276538224977043,0.22612964828079005,0.027495855523272276,-0.09397425388081705,-0.15624359869392038,-0.1796357165471769,-0.17579348606345474,-0.14967375622241164,-0.106425475432872,-0.05803165534965736,-0.023038746716903855,-0.016800960307698704,-0.044901352196131866,-0.10599947137264616,-0.20515485256878357,-0.38334711234328084,-0.7509738518274861,-0.5080342377873682,-0.2343490954408288,-0.12888447443145698,-0.08135894970727994,-0.06020285224941201,-0.055206058303971677,-0.0648606773362985,-0.09707622357027633,-0.17530463596808052,-0.3447615558965827,-0.577469459890859,-0.6534872969624169,-0.6299439694897659,-0.5978501871590608,-0.563814617111545,-0.5305180742784595,-0.5092240656339238,-0.5082264010477634,-0.5307657511002659,-0.5729696788690634,-0.6259791879205567,-0.6810995442330382,-0.7340421441347242,-0.7864117343190202,-0.8367466905115437,-0.8781278252307178,-0.8336195791297332,-0.47071329961005465,-0.05964012537838211,0.15239721292709532,0.25119996134905387,0.28513612968513824,0.27599617747540967,0.2444029877985748,0.21303286667444785,0.19154958147922807,0.18298099227558307,0.18593557986705894,0.19819312654902427,0.2168076314244358,0.24341936036432685,0.28458440438977634,0.3500428683813268,0.4625868859779454,0.6700481277796211,0.8716870165501418,0.5108680622972482,0.23453805193482646,0.11127159315497102,0.05031578156450425,0.010520744119715613,-0.026922618482739316,-0.06958290781260826,-0.11782564821390236,-0.1740243185954411,-0.24519528480379282,-0.34339758837928436,-0.4705328742805154,-0.5864303291400284,-0.6090793212114509,-0.5261766480748287,-0.3967892852321254,-0.25198966850618865,-0.06318197377289898,0.18689615409238836,0.44924700368574494,0.6756627522037607,0.8314368778708826,0.8910028348075968,0.8746142293839285,0.8230640653853529,0.7576922638911757,0.6795711044545686,0.5713226187632606,0.40355215717724324,0.1805550125280313,-0.003658049044844686,-0.0773248830734018,-0.046710732940286666,0.045013695539899354,0.15696689935007893,0.2563731032306508,0.3219747252071884,0.36401029765930426,0.40299037873538157,0.45498995364726674,0.5116757925750782,0.555183020923654,0.5801341028348878,0.5952039840666236,0.6092570067606373,0.6064328566429324,0.5361915350719128,0.29870432811750064,-0.102854610420467,-0.44652907828801364,-0.6501540861785319,-0.7492348243574463,-0.7659141572398449,-0.6532269136811665,-0.3989574509763637,-0.19395092559502705,-0.13349166731100234,-0.20491486888588784,-0.2677035650901447,-0.28085557294922575,-0.2878073420879762,-0.2960691710567506,-0.3020854262084073,-0.29754743177830434,-0.27613573086656734,-0.253115119976672,-0.2473491085904828,-0.2686036938551523,-0.32753080255669603,-0.44844421432563686,-0.672398484320082,-0.8890366400423408,-0.7168127630304798,-0.4982702339329469,-0.3892350425905022,-0.36103546568447653,-0.397957942124672,-0.4826415257384779,-0.5913484553864361,-0.6864589640372618,-0.7376833768550733,-0.7142688590779221,-0.56660653766783,-0.3693669219215591,-0.23050500786465994,-0.14628167646797186,-0.09653280059384252,-0.0725678692847938,-0.06860667201028747,-0.0716282307703382,-0.05958705475870487,-0.026138673447296826,0.010148539630982348,0.030619159589664404,0.027289323291299874,-0.007097801889388424,-0.05724849367148276,-0.0753599795898286,-0.05462583775641023,-0.007831741035070366,0.05433757898030273,0.12367091011170861,0.19387011949365204,0.25984844048126987,0.32179917934180097,0.3898060264431459,0.483728231876857,0.6244309645396691,0.7858938125143748,0.8416620444959194,0.7705309567457544,0.6949446021604458,0.6511603197872728,0.6160747360163972,0.5584673504388931,0.4683668970618611,0.37570452169933494,0.30538718979538954,0.26476330993338404,0.25189033189623494,0.25603470709581827,0.2556813986428646,0.22033030846542406,0.0860221588138352,-0.16504795232687514,-0.3615499238591821,-0.47952060239266303,-0.5744671190704613,-0.6704529013405469,-0.7322178951488977,-0.6826400189910588,-0.5703297782268116,-0.4951987342276371,-0.4853755136928425,-0.5405763307124827,-0.6157596235475584,-0.541128098697142,-0.37145415575654617,-0.24436903123040937,-0.1529154850134333,-0.0701629879473228,0.024088728736220068,0.1592865639884316,0.4744703241619677,0.697743910169673,0.2910636351604804,0.18018395290084396,0.13926090971846827,0.12865245847790824,0.13787766692095615,0.16230761330783616,0.20000446230220753,0.2452645532251462,0.2790337494350632,0.28824793187808234,0.28001216774488663,0.2729346217859621,0.2753931386269973,0.2959622381012826,0.3350578887967478,0.3887023054818435,0.4450495935351502,0.48410292181918957,0.48998288057553796,0.4713103724574014,0.4474857818344403,0.4336449146967924,0.4404994669894018,0.4660202867320803,0.5016985547609156,0.5302144828666612,0.5441591120864743,0.5456809453944771,0.4975255645119614,0.31854235668236236,0.11579987409420357,-0.01657971696644358,-0.09596625593223097,-0.1447526102486072,-0.17303425180693344,-0.1890789211133769,-0.19647330373397584,-0.19711379592392714,-0.19347207631315005,-0.18880420852761368,-0.18799792800121795,-0.19452836639861382,-0.20675486568090815,-0.2138359950602887,-0.18624448926746287,-0.05043062154112618,0.14510152246516628,0.2024927743086854,0.17572467882715515,0.12383663935440352,0.0730231241593406,0.037786295005045996,0.02754895444269396,0.039024647601006796,0.05692850663884464,0.06445316790541317,0.05524426407837789,0.03196495747138939,-0.0009973291746389389,-0.04408239184480154,-0.09402949230756946,-0.14059908239448338,-0.17114557157281143,-0.18396232434013027,-0.18860886433070512,-0.192266696490873,-0.2022142420767736,-0.22980904663430896,-0.2902229498728941,-0.3794017734587551,-0.38314606741781887,-0.2851499243137391,-0.1988229882409758,-0.13664332710115643,-0.09077142629916529,-0.058011930382700486,-0.037024649484930706,-0.02686956527069111,-0.023841854022309625,-0.023466346883709997,-0.02214537566929766,-0.010307673725459942,0.04940418673167657,0.10318739990635434,0.13470377816609505,0.17567525352150923,0.22970500081731154,0.298653238990561,0.3684311014481786,0.40383557450428653,0.383571436397193,0.3272074802495191,0.26303796377246835,0.20869473280901368,0.1732392143274082,0.15239415168697262,0.14164007786391683,0.13760257080913876,0.13675205863653886,0.13826987068863875,0.12780454952483072,0.0995516536523995,0.04813491671981967,-0.01956860123318651,-0.07622452588660139,-0.09532814612443201,-0.09272960933327182,-0.09108163100657868,-0.10090554273790094,-0.13602652811756386,-0.19703315194017632,-0.24900337378352988,-0.23070880142573216,-0.08733664979981912,0.16057063475530745,0.443873103982294,0.6900227859484791,0.8306295592891609,0.8662952355866963,0.8535453434302314,0.8373504885851044,0.8244436045855909,0.8000145133585531,0.7438328424990095,0.6360330841155543,0.48087245672147894,0.3215986142267368,0.19311630207786343,0.08844484187614976,-0.006492389977322285,-0.0887554583914259,-0.1484484343960949,-0.18773429476483453,-0.217112457452387,-0.24570268120684585,-0.27732664257344714,-0.2869560438648029,-0.23146887223539123,-0.16804246055841496,-0.1297957108979082,-0.11040692180930813,-0.10352480118783809,-0.10946540193832444,-0.13736265386037297,-0.21110195143622182,-0.3782353629613441,-0.651356585653775,-0.8030069987246498,-0.8008249744454055,-0.7672962307767324,-0.7066020663238558,-0.6176900576696531,-0.5119033223252303,-0.39225595057220564,-0.2668949298328804,-0.13745567967869604,0.009348694565956812,0.18066165741393653,0.3632373693086632,0.5244529619351646,0.6402762396352355,0.7094928787687671,0.7392875575332117,0.7377713340833673,0.7119216705950969,0.6817440408738085,0.6695297255444955,0.6818774329341357,0.7028657497839855,0.7177201112792972,0.71358672184254,0.6815442307297647,0.6157158522957978,0.4921760461101985,0.2748064145498703,0.07624533096866654,-0.009131605660541641,-0.02787590353469308,-0.020644745402882074,-0.005731976810648137,0.006829554427164486,0.011111560321120673,0.0020365945903042977,-0.02595433531921564,-0.08474603852186399,-0.20712409644969984,-0.4816861826373523,-0.7474363612476037,-0.601398427777586,-0.47954710838488307,-0.4052138063890908,-0.3478935835744707,-0.29741859128971987,-0.2500032140382846,-0.20174354419265167,-0.15260155609913792,-0.10849361737357273,-0.07312689708079086,-0.04578289387165557,-0.02246463995679537,0.0017288537701998501,0.03293345875641968,0.0808535251758819,0.16365258854531486,0.3343318781006097,0.5975191906028984,0.5129783661681767,0.39316086470011546,0.3588610663779458,0.35709287309310156,0.36176812397067676,0.3680766624362319,0.36028521575547157,0.3312003549817511,0.28340572874829373,0.22392139573619077,0.15372885824821705,0.07376181808583246,-0.0046413337418345834,-0.06530214940596739,-0.10269581736591842,-0.1278276848181909,-0.1510302573221982,-0.17876052829400027,-0.20793086627117544,-0.23601058847790488,-0.25498822260531767,-0.2577904924688206,-0.24275505561291003,-0.21551199691517545,-0.18228118659466871,-0.15132447849533334,-0.13080206142802417,-0.12465162007997835,-0.13019418274921615,-0.14308380866205148,-0.15491133416852412,-0.15716525239747803,-0.15209708134063643,-0.1548736044338216,-0.1711254951798989,-0.18643527077039265,-0.1782138252964097,-0.1435603555300451,-0.08925414335208189,-0.013329849204925097,0.0994023765778564,0.2461461245709813,0.39553178518131404,0.5332118992811044,0.6654676766575239,0.7805392055376176,0.8560244797232772,0.8823475687888394,0.8648291446570671,0.8119278872413155,0.7382998834285326,0.6609432657413141,0.5854845034086241,0.5056966860107307,0.42413431468733126,0.3436187707142027,0.26049834532069127,0.17262635031054058,0.0836295788361225,0.005218991934388904,-0.03623685355446178,-0.03115261399277919,-0.010906074262428005,-0.008284539622943657,-0.028724688268513394,-0.059353453776731874,-0.09371549339740111,-0.12716943197602007,-0.1557114551740448,-0.18066453481433073,-0.20814268604381114,-0.24643686071084567,-0.3156076252423629,-0.3042305896312979,-0.22288894737812595,-0.20754869369395001,-0.2281237483823162,-0.25354048822366754,-0.2401435812325391,-0.0701685649329162,0.1850382507037061,0.31642902131234346,0.3618887829631936,0.3157402225018295,0.2153431951047142,0.11902803930773549,0.03742255499842514,-0.034096151250255086,-0.10143232112605298,-0.16932333427744242,-0.2348983970218793,-0.2841111112684949,-0.3199238006524764,-0.37460710868120356,-0.347800102275905,-0.07280086488003418,0.026738674200336512,0.07385954754043648,0.1112350171893313,0.15106346927834607,0.19659918340498453,0.2460602128523722,0.29589058127808343,0.34077214758141405,0.3753214768821496,0.4004148397639902,0.4268406901400236,0.47237813737250317,0.537677632925878,0.6009876649511395,0.6517928096044817,0.6828164992706237,0.6828232552483628,0.6502547865654583,0.5971047549933551,0.5386634626361564,0.47861112946173584,0.4176845408234757,0.3550648728594225,0.2903747398370264,0.22423729265422399,0.1541878414261375,0.07596944529710456,-0.00871782886184296,-0.08133424202193094,-0.096796014679041,-0.05398101673241929,-0.01629951103789287,-0.013691505504178818,-0.044321645207753106,-0.09491437468811828,-0.16067386573767944,-0.2427603191981731,-0.3410245434104595,-0.4528954447896622,-0.5558237149231703,-0.6281831666749506,-0.6679878220554101,-0.6535150959746806,-0.5406494860907045,-0.3831723878267847,-0.26773021508840705,-0.22289779276306904,-0.2636318865628951,-0.39272357012613857,-0.5402861903165544,-0.6226911267293326,-0.662124983630269,-0.6844428712526035,-0.6864549946688299,-0.6417334559206938,-0.546215660623613,-0.43540504331382324,-0.3412397917862029,-0.27388163286840467,-0.22256429862204874,-0.16886759412422847,-0.10810529225388388,-0.047068479145348716,-0.0011125005932097118,0.005908096442396079,-0.042106109723502795,-0.09981616094490148,-0.13377272241867058,-0.15239944252576265,-0.17221517750422202,-0.19482739346931252,-0.2205352203052124,-0.2420363774868489,-0.2544718383785151,-0.25656495874144175,-0.24384575404666564,-0.21942761742279004,-0.18895124297210333,-0.15288699008907392,-0.10488601981686992,-0.04106399286525623,0.0443004612074698,0.1539578170364257,0.28049249295446876,0.38693416195154046,0.4469522129948568,0.47586776715882295,0.48292071840410256,0.45019974225167697,0.33910048258999403,0.15332895637494906,-0.029800686146580033,-0.15801676693330605,-0.2195434504719999,-0.20389245439564493,-0.11643548929313532,-0.008994448953860151,0.06729839480970244,0.10388807174160282,0.11803566382086998,0.12654132129940435,0.14093242193587427,0.16108425787115793,0.1808534420544729,0.2027362432449343,0.2435082340145612,0.32051592199605305,0.4532206359959567,0.6246697760680731,0.6400964290183683,0.46921796232815155,0.31489156115868305,0.21064119365648254,0.13839782297453132,0.08652753296538239,0.05121143403311384,0.0288953799931055,0.015223300740838419,0.003627739830975951,-0.012354761208803968,-0.04028839643237253,-0.08356675045108022,-0.14140994992307568,-0.20029052733602867,-0.252095533578471,-0.29940197042232897,-0.357165568598566,-0.4229209751128109,-0.48121402039465083,-0.5208945683901522,-0.5250408984725171,-0.4857294780781486,-0.42382204449209654,-0.3738739004732039,-0.3590597522055654,-0.36724409804013886,-0.371212368508381,-0.3747960481819467,-0.38517576796812053,-0.4011718576618976,-0.4114979893350236,-0.4004095892125947,-0.37236487067496027,-0.35297870955582783,-0.354184229645191,-0.37473249966680183,-0.4040926799454392,-0.43046582348011203,-0.43534098456070214,-0.3981058523491836,-0.3284694826810457,-0.25684684604507385,-0.197652078836214,-0.15098646348181669,-0.11612530231471774,-0.09734950972965999,-0.10939928494728235,0.01654491529861513,0.03909370651521802,0.0520372088862348,0.06696432483651578,0.08926645451664961,0.12893765161178908,0.19171375744836033,0.22967619612811818,0.2392624624335918,0.2632688924556497,0.31408546386572106,0.39562775553971896,0.5027618213753167,0.6188296091990855,0.7134273027257872,0.76541211927817,0.7865941664125328,0.790007948875007,0.7674610101091404,0.708643681816756,0.6290650528104558,0.5553944620512156,0.5061993406885463,0.4916325054702816,0.35050048326603717,0.09377852800900759,0.01775595330022603,0.004054068682089142,0.011503170357765689,0.029258192463247804,0.054309527212735326,0.08744888616428163,0.13490839964538626,0.21359793946132374,0.3704563359040919,0.23253715277700773,-0.11186246610978459,-0.23743456763769094,-0.26965220429757025,-0.2417153515054607,-0.18885582738907103,-0.1357582093811023,-0.0974413711063289,-0.0698586528931883,-0.047283557148399616,-0.021578994096743753,0.009254323705986951,0.0465027293648484,0.08460862883473372,0.1182060692882946,0.14505533518187372,0.15970402485981486,0.15742795084909494,0.1275463812971377,0.04049132534741382,-0.1417741573420014,-0.397315622146733,-0.5555805653798236,-0.6038760568320498,-0.6214348907359671,-0.6349486795754146,-0.6335380813903135,-0.6093953202933895,-0.5946853224231556,-0.6136983459043948,-0.6592269256669275,-0.7119341311955476,-0.7583411939529043,-0.7909500202377006,-0.7900841216236248,-0.6842624513574419,-0.4621848513262351,-0.28279789755043405,-0.18701841961402146,-0.1398932626143952,-0.11398159072534947,-0.09280892832846653,-0.07224868311059848,-0.05395004313521621,-0.03975935674241982,-0.028917334649778356,-0.021110829097168795,-0.01496111610539049,-0.006382372855764865,0.014583561192832573,0.07198572238600008,0.2301770902593987,0.5052337178678727,0.5725583452988344,0.5715232916322972,0.5949674808684258,0.6120602500623467,0.5983364956181482,0.5626592417839411,0.5172836898937081,0.4703234342048154,0.42677812741915316,0.3916227261539114,0.3690853239615465,0.3544353582723799,0.3441401058112014,0.33443911566882367,0.3265426306796593,0.33008975409319213,0.356337217508134,0.40023614259244894,0.43421454782123015,0.42184677610867727,0.35340419565187453,0.24086004730102095,0.09988874157026001,-0.04962496561544214,-0.17829804837171742,-0.26817288816836404,-0.317750237438471,-0.34243783761508156,-0.358335410186307,-0.3763285412334923,-0.4002654749024497,-0.4337124025138705,-0.47910133509746283,-0.5413263914440669,-0.6130740985880779,-0.6778788781018793,-0.7208340955416838,-0.7133946227577002,-0.5839464839577504,-0.2948862184945906,0.030225705939118115,0.22799718202551666,0.29959474452274004,0.31407202216455726,0.31407059305677953,0.31063480055239096,0.31358408778101565,0.3306832414498579,0.3659765792875229,0.403134245715042,0.41757327361796903,0.4201591877613071,0.43374704263840214,0.4649303262015634,0.5078906368324213,0.543648965954652,0.5502704313105297,0.5011537125707205,0.3482241405737672,-0.019398693587286825,-0.36617780472297556,-0.37783253519380855,-0.33504769465738954,-0.29445981795336224,-0.26175431672966676,-0.2379596321028931,-0.2189973208523512,-0.1964492431129366,-0.16337971868399428,-0.12758295911289425,-0.10202062898916307,-0.09170967197378044,-0.09569979083239072,-0.11012418847796465,-0.13252847209121482,-0.16198929925006253,-0.18982506997056456,-0.20228972194045367,-0.1875961468844108,-0.14458455305491952,-0.0735908939159392,0.02741019679399605,0.13131550504021933,0.17832545756329618,0.12908162035447712,0.017825989354308652,-0.10595655159576964,-0.2051177693461296,-0.26111692933570585,-0.2640812511722462,-0.22379045555785945,-0.16655807502626793,-0.1158061574550957,-0.07977850621758122,-0.0491507102053345,0.01808140784661079,0.16032665798639298,0.3006065237698213,0.34896630816830687,0.30723670948791454,0.21627334111911353,0.14137629978749525,0.1038370465642815,0.0962575496994664,0.0927976930702662,0.06461839435003117,-0.0006038351555116147,-0.08445744702984892,-0.1401446093692194,-0.1455981781971383,-0.109785081636035,-0.06945738995542447,-0.062371971563338166,-0.11983653498281799,-0.2189459779691365,-0.31221896400715987,-0.37280897617306263,-0.38567157528753754,-0.35084413360242156,-0.2941419721974324,-0.2570349598936122,-0.26123246576919246,-0.30532525113335673,-0.37201675928216227,-0.43766058428851534,-0.47969262954809266,-0.4346332294789736,-0.21180883648512655,-0.03788710775318789,0.05159670012738532,0.12445596656694352,0.20775666268638635,0.30923429987522577,0.434624148110254,0.5949421416445482,0.7979904208693456,0.9374548146443035,0.6789315185174916,0.312186272790309,0.08153914791385225,-0.050453734087849575,-0.11498454852072262,-0.11627084146224723,-0.05043746921898231,0.07421900092981884,0.23828794310621398,0.3991942083040021,0.5087368879020826,0.5543725934413932,0.5634026276621852,0.5557105385083072,0.5013007845279268,0.36812735999954077,0.2156900882239243,0.08455371907904696,-0.04383083305290115,-0.18271684883813008,-0.27301719524168283,-0.23866199396051818,-0.13404683718550428,-0.020211946715027577,0.07946395625874829,0.16165094836750948,0.2285627977990197,0.2661651509139274,0.23767920687220145,0.17832505520172384,0.1374301230560674,0.12197046232516835,0.13399470207299724,0.18175760932449586,0.273281277731261,0.3695066420884668,0.38830713754881396,0.342933193088471,0.2880766331990485,0.24886548227794522,0.23395961983133845,0.2517201991520387,0.2922790369100686,0.2177406631923419,0.10346048004512699,0.03501365208213442,-0.01657573748121569,-0.07147814783012284,-0.14455016302828982,-0.23487333171388414,-0.3121066651074203,-0.3548526908369926,-0.3672273261113924,-0.3540811352783975,-0.3431922134187061,-0.3530312441826937,-0.37800906878651075,-0.3974481756428842,-0.3993581964599405,-0.39535869424604764,-0.3926135423634682,-0.3719208092754041,-0.3425176486081191,-0.3237806114459183,-0.3261023902810997,-0.3683680059218851,-0.42950281225634973,-0.2885958579192179,-0.15948331630690812,-0.10634522147478967,-0.08816358283553799,-0.08693678087011286,-0.0945712592310425,-0.10659254974886175,-0.11813067897083407,-0.12200393066362553,-0.12520749955729032,-0.1452438933461576,-0.19319271775896182,-0.2711943489684937,-0.365214137492751,-0.44953757043113785,-0.5041611886589922,-0.5180828307850339,-0.5041209914105831,-0.4763502646345562,-0.43424453097684584,-0.37042138394088836,-0.2903688379808312,-0.20623357231447734,-0.1385439811277798,-0.09543461777302277,-0.07790235725627606,-0.08026494902541587,-0.09552927516398566,-0.11967444050995989,-0.15037136446208973,-0.18687781644348928,-0.23538879339023186,-0.29882922126411937,-0.33608856696251677,-0.2786118400161454,-0.16226844455669293,-0.037894639853559134,0.09400857953791081,0.24220347565197484,0.3652978351322171,0.36791030078398484,0.265240181623107,0.16442656730743818,0.11111895135744208,0.10209154912808066,0.14335882728347096,0.2566112596382743,0.44052138015472564,0.6060456371541465,0.6990988684081995,0.7469081589285769,0.7701330713249667,0.7597088544224653,0.7021816736335204,0.6102275962362366,0.5166196726111196,0.4541908363432896,0.44507009074794224,0.48839637039048095,0.5529154301881689,0.6068357734705677,0.6383706179040619,0.6445406169868425,0.6229176574885742,0.5717646527667624,0.4985021986449888,0.41657304179019267,0.334965846452604,0.25287725228814756,0.16048420345530237,0.04903121655944338,-0.0721944818170295,-0.17694201969498477,-0.2435733118220808,-0.26016350910121117,-0.22574498473232618,-0.15767012025121668,-0.08952268252795625,-0.04640032014070486,-0.039876975318495746,-0.06607715609083745,-0.11876939100516613,-0.20134764724444693,-0.365068448746151,-0.49444161050031893,-0.15436171721535322,-0.04049640281254585,0.006973787586624597,0.033275530865465634,0.05400756641201095,0.07799911753142429,0.11233411933012463,0.16045386954653282,0.21081739695475005,0.2306879233832297,0.21988273323449734,0.20693399081980035,0.20543534985728854,0.2128246720081658,0.2282834930956461,0.25995257943007344,0.33986347363895386,0.2927441245557611,0.08983639665906151,0.037016034062513546,0.02804782193764768,0.03725905894108237,0.055643481540043754,0.06906844204201164,0.06639582401703042,0.05852777556432388,0.04559842861771206,0.03005576372937385,0.010489507732332575,-0.012203840059207185,-0.039928398029506484,-0.07064400130123501,-0.103068531990528,-0.13591006398413769,-0.16818080380280256,-0.19770143261501355,-0.21410016193367107,-0.1934735009403673,-0.13114025418536407,-0.06810453721296292,-0.028642947630083192,-0.018250851216381776,-0.033407102296422735,-0.06604311469350141,-0.10147542372566586,-0.1235061649514316,-0.1257203951111801,-0.10749814608353686,-0.07311754723658731,-0.029256888716085342,0.011026782037071494,0.03982092694417421,0.05869262708894573,0.07341190600434355,0.08889464138784864,0.10879532831633075,0.13038647202638143,0.15097017444937255,0.16798199727001378,0.18106723015000226,0.1959564527620028,0.2248125028194344,0.2825375800663837,0.38667730516419013,0.5325951519323745,0.6487613627484842,0.6700855717200829,0.5948555748332242,0.41755527266617093,0.19200159421189425,0.011286630694836635,-0.09526757118083129,-0.1464209371376282,-0.16229690930835436,-0.15741214031208886,-0.1468944875123781,-0.14504480700100716,-0.16897815582022857,-0.23671431209290703,-0.35694759254631375,-0.5203990840578324,-0.6876946372647259,-0.8081065583642841,-0.8574929584856794,-0.8516421254580699,-0.8185832025705437,-0.7761429648125765,-0.7246783762809775,-0.651938311250558,-0.5415285803118385,-0.3908501571627664,-0.2146895732011794,-0.02522810744673015,0.20031807697374904,0.4754675629850394,0.7163337667188415,0.8518957782739214,0.910777447548743,0.930604023012974,0.9250340560908551,0.8815450722662284,0.7318346076372141,0.28613210474059575,-0.3237844826466164,-0.6260124574672723,-0.7275365757803207,-0.7482316862006338,-0.7229840649925214,-0.6482293415355681,-0.48167488097910793,-0.2009285728462395,0.10069158364387598,0.2977146509523944,0.3831077840315516,0.3854778496108491,0.3134557393003426,0.1719531937123748,-0.018533636461049423,-0.19933635291745128,-0.3115263825893707,-0.33581455326393167,-0.2850688825256036,-0.20305968414699524,-0.13055318316912595,-0.08826978919821099,-0.07119833335783642,-0.06763468362500138,-0.06776685936746532,-0.05323292196909352,-0.010449479828876238,0.040386949318406445,0.08379426269459501,0.11690236250934138,0.14776905976021418,0.19638278108817434,0.2710983440662241,0.37037688308970934,0.45541668533637203,0.4270383558821472,0.3245648470345295,0.24589953821654983,0.2042828496158694,0.1886846789336894,0.19667167100534383,0.24123292223184856,0.2938759681448653,0.31444826730764874,0.29948083320280106,0.2608744215581261,0.2136457281622542,0.1655723002471425,0.12859019270829508,0.10634051983438837,0.09510143069953451,0.08902827032165912,0.06349842491415385,-0.06747786896105804,-0.22282275334978238,-0.30870507514613993,-0.371831564926637,-0.3997222330893444,-0.3913569007340077,-0.3286935240382601,-0.21484370031233244,-0.1358593061625794,-0.1007776365973064,-0.08216249025943524,-0.04341539228774649,0.006367633478325859,0.022511812538125217,0.02493176365475118,0.026163672626215658,0.0357779511906949,0.068894531125599,0.048236741945103294,0.030620470780794367,0.021703934388553253,0.011108953110885804,-0.007086042051984586,-0.047409143263715085,-0.14318283198067772,-0.15700686537612837,-0.13483696956762095,-0.138877625815244,-0.15850922267628315,-0.1873823103989749,-0.21795782980186,-0.24506800240406565,-0.26480671569712605,-0.2710490968661482,-0.2468602259635459,-0.20594465104096996,-0.17340616943232717,-0.15689188342669463,-0.15501274128570766,-0.1717888277160713,-0.2244439670104486,-0.36193239393969545,-0.6195472112808346,-0.4692797760014737,-0.29202365853668805,-0.20622983709111928,-0.15842669802587964,-0.12400240957136414,-0.09089616607746971,-0.051880976824186804,0.002587334358553556,0.07505655175334411,0.12713622795217028,0.1455101704454265,0.15303629532964483,0.16314130911561747,0.18023036647346397,0.1978784470482805,0.20260707686935123,0.19607771706429006,0.18952370243685734,0.18739139273988972,0.188783451808527,0.19262029019645352,0.19737963137157613,0.20150015126962048,0.20343441996185344,0.2021760712206989,0.19919227081033056,0.19668176265809104,0.19673763057978386,0.19939194870543317,0.20578464081888675,0.22392360545467477,0.29208034885363304,0.5568798353563019,0.3953888740418664,0.24083292411241972,0.20734149736180632,0.21096627261877035,0.23397969847560762,0.2699341175385669,0.312068933797774,0.33653714714136074,0.30721042883866706,0.21048715763419998,0.08425526711324766,-0.026146470452312467,-0.10433336884319801,-0.15099323216174473,-0.17492281139145086,-0.1806391972440173,-0.1712809056028468,-0.14881762868664852,-0.11799239743968497,-0.08504989868615319,-0.05352144377911987,-0.027184326856142943,-0.0036118304195331794,0.009903501679428243,0.009631732503040022,0.007705082818301726,0.0057943260778543,0.003923062191635376,0.0025373427163441265,4.0676285916249635e-05,-0.010405226741875932,-0.05417483045746149,-0.157215278222419,-0.22799463868855116,-0.2913010249805439,-0.3499909736076356,-0.3897272724741093,-0.41975175445229773,-0.45685642886845323,-0.512906272522719,-0.589636840092475,-0.6762253282489468,-0.755329792556212,-0.8182971203270512,-0.8689066363898527,-0.9034029534042993,-0.903457933713566,-0.8411537506226178,-0.626463898894738,0.4254085549362173,0.9364201758563828,0.9102710245421137,0.8628720595344328,0.7951878866746588,0.6212181562779884,0.11824605515372462,-0.4297796353788955,-0.6703923384214112,-0.7177106487998505,-0.6788568761495322,-0.6556002276968113,-0.6726990372416983,-0.6913045656248062,-0.6800201054901677,-0.639901181569159,-0.5742614987232733,-0.49208214628387614,-0.4056109304377612,-0.3234267187250165,-0.2440259732433214,-0.1712063851179635,-0.12188426681175771,-0.11665370215223358,-0.15626669669805784,-0.2169596563174787,-0.26703679427268434,-0.29497635772452346,-0.29579916498205594,-0.26102149879018016,-0.1795583269617595,-0.053421413656609386,0.08932272737169254,0.20957674601217605,0.28682929072938346,0.31245604164372803,0.28572393810136004,0.21058165958626826,0.10389081056195863,-0.01872571947147819,-0.14024001805969125,-0.23627619085596857,-0.3042422252541082,-0.34317942455027534,-0.3541938945277486,-0.3492161748621727,-0.34017623577930406,-0.3249737357185104,-0.2996866297914655,-0.261446641416979,-0.20817630347871077,-0.14851147523024733,-0.09013995236816796,-0.029983147362205965,0.031219472441994054,0.09122841910999031,0.148130670114783,0.2025544919632683,0.2556038284552519,0.3064868315116782,0.3488237374179905,0.3665283923855395,0.3858407940025978,0.44586472819689993,0.5263204669476601,0.5367539069086068,0.4490612595815379,0.3657061422407614,0.32762438033414343,0.2988864694881315,0.21264512599272892,0.15726001153338584,0.16872374962211903,0.2521324670832419,0.3553134687981377,0.27045338361925636,0.2095265095431825,0.1946632395210783,0.2087125246220496,0.24824692230388704,0.3118321541821244,0.3864757616141109,0.4493608151494528,0.49332747175945435,0.5323930876491021,0.567438151319571,0.5860307924770674,0.5853438489606677,0.5654368111971869,0.532028102885925,0.49807522428231,0.47758214637883734,0.47379061598023997,0.4798906962563503,0.4835790624763985,0.4657692385497887,0.41980774732577747,0.3496486749154671,0.2734490439700718,0.21409336171425336,0.1815431451752623,0.16628943657979448,0.15896352129995833,0.15935946575783416,0.16134299696987697,0.1365911199387345,0.08641213192083007,0.06420507953333185,0.07087225102006377,0.09928573608535549,0.13485717267443253,0.1522730422448552,0.13768736135912057,0.08971991567574772,0.011030519427231496,-0.0851619239392789,-0.15482189923194017,-0.16602201781502654,-0.15502552569038075,-0.14827640623927144,-0.15024226938350693,-0.15911900825152794,-0.1744489455438216,-0.19501388595870559,-0.213793719283878,-0.22502552485626479,-0.2353818962171901,-0.2546342699560305,-0.2847902179410245,-0.31438237202453734,-0.32763606752030505,-0.3198402854001127,-0.2961028226182746,-0.2603526646378453,-0.21930980010057116,-0.17902000215950284,-0.13528816047217526,-0.07398088980710547,0.03914019905373647,0.2045271994515061,0.3214596709152035,0.3947864554645931,0.457414702086647,0.5008173636747775,0.4988560910481028,0.46949369768292426,0.44819774641028987,0.4509203810129984,0.46737595950737515,0.4690493060456994,0.4461210767256234,0.4381914966596425,0.47896503986449573,0.5551541246596972,0.6280458419215342,0.6815584390553993,0.7161842660494349,0.7327068211702562,0.7283741236789353,0.6929231368269277,0.6036905441445126,0.4192966013180499,0.15460175201409257,-0.05909660957156935,-0.14311994769759942,-0.13363770273676576,-0.07809513716554452,-0.015349997621587601,0.030127461610916503,0.05207117068703046,0.052357112341621485,0.03575270857286371,0.013082985117946916,-0.004990660624206664,-0.012627522176555198,-0.01064816602424118,-0.0011523052488398146,0.014767380924309749,0.05361045525485521,0.17115030964901934,0.19066889673309478,0.14079094252703828,0.09774159163360424,0.04767641851854758,-0.015848002753711087,-0.0937806289987232,-0.18411177578474422,-0.2834083583548265,-0.3823603488667474,-0.47310378136794634,-0.5585970607914801,-0.6489193381514315,-0.739478532751354,-0.8005190355105466,-0.8058092623390996,-0.7798976636577987,-0.7515336718706879,-0.7218306842429982,-0.6703429588047729,-0.5703808794669457,-0.43872285305810654,-0.3191137255147341,-0.2281178944669188,-0.16483616261155562,-0.12243947453564398,-0.0984837115517717,-0.09216863881420025,-0.09586004743424652,-0.10082103276620648,-0.10360011262824388,-0.10520359095141045,-0.10987528998585218,-0.1277763105536775,-0.20249764995397654,-0.46361353653879483,-0.22951382072279017,-0.15670148996094513,-0.1356071457795307,-0.12431834147430675,-0.1131193757018118,-0.10119729902053994,-0.08951450937278252,-0.08000970331335042,-0.073414855831274,-0.06988691833195526,-0.06870411149316086,-0.06997532431324047,-0.07495428822202457,-0.08727818917291533,-0.11048645577444638,-0.11085651579865954,-0.06112845316238916,-0.03196596023877148,-0.01896437466535463,-0.012397179621820773,-0.00944610291520201,-0.007757247107537675,-0.004157544639248473,0.006208260990701513,0.03211013231116695,0.07807906977435619,0.14046845991867826,0.20568224061669882,0.25814014468687285,0.283533943865678,0.28439221729131553,0.28129388290969654,0.29030854388335164,0.31821371749516847,0.3588375886736325,0.40193150749884043,0.43915321168915095,0.4628968154502736,0.4743490456087896,0.4749891937749766,0.46138719697939945,0.4340098933249335,0.3986663517271155,0.3646236000454213,0.3420220359036762,0.33693364161356487,0.3415735798741376,0.34664830859779355,0.3475090391793411,0.34549142346251915,0.34665250875737474,0.35745432963715346,0.37382384368621374,0.3938130839526412,0.41010261995538605,0.4191923606329763,0.4220629491828115,0.4303516021968053,0.4570260446867262,0.5015711483312613,0.540142662040784,0.5447008380738273,0.5141520811897182,0.45226572658628933,0.3695461257700011,0.28703261963051024,0.20531457265185996,0.12524221997514376,0.0793571886833676,0.08665531395807823,0.17137884753277097,0.35933967369556546,0.4134366954315275,0.40054458574143526,0.42127760500745526,0.4472695393608423,0.390894112601896,0.2568439617292995,0.14961924584807937,0.07804186737264229,0.026240861396475437,-0.0131501704717427,-0.038517498089092925,-0.041298042283964276,-0.014195250612102582,0.03955222042081452,0.10750136836851881,0.17092073585768244,0.2001236617382943,0.17305840539073525,0.1032325958533593,-0.002818914401048341,-0.1068819389969377,-0.1306570252273692,-0.11454045232175285,-0.09195365735937876,-0.0719632184255332,-0.05412592704788726,-0.04169867112593042,-0.0324108669559029,-0.023901322150600954,-0.013065147434746854,0.0018401519957170623,0.020479453447986955,0.04373329340548273,0.0801961388678497,0.17926253441649379,0.4191290797335485,0.11354785504011354,0.0608433729448318,0.04090280234582775,0.0304136973803846,0.021345155871921956,0.008329543652584018,-0.01606786829683697,-0.06477934199545161,-0.15866835387796374,-0.30603321087429586,-0.45444651188510904,-0.5339242668638169,-0.543055283783449,-0.5021768186428179,-0.4254813852341496,-0.32828565394194326,-0.23510613195117985,-0.16244937016290606,-0.11131765841248555,-0.08582747012793228,-0.08241810562110587,-0.0766181223710111,-0.03228098498887407,0.10040278537171667,0.426274489788363,0.8025984918643847,0.8402664820017577,0.812797591580987,0.7957979508841052,0.7757200269283011,0.7396292540639958,0.6772563450936313,0.5818034454588229,0.4549132472450076,0.30805318297721135,0.1521274115273553,-0.013386857670633263,-0.2161522994750371,-0.27582569799329576,-0.23023296343610586,-0.21773977720989385,-0.24371062912379104,-0.31652419051971586,-0.4599845614756846,-0.6815843391641595,-0.8617992103920654,-0.8935879184399012,-0.8515380808211817,-0.7568196108359938,-0.5569353030295132,-0.30006672889790703,-0.09792565660018432,0.05232684253410654,0.1912439440003229,0.3586366811033805,0.4316221262938385,0.2992351043360178,0.1753218291925648,0.0884657228619131,0.022048056454679926,-0.06140454841409908,-0.22499148357853418,-0.4813034556166505,-0.6984856234437135,-0.7940626555062454,-0.7928384209173466,-0.7367412085352405,-0.6550806545094664,-0.5627389258193572,-0.47035303637520365,-0.39747962711154133,-0.35567810063122285,-0.34103997751082576,-0.34726719157853814,-0.36859612034549705,-0.4066283299880881,-0.46967271811200495,-0.5609770381897197,-0.6311623692877464,-0.5963665965280011,-0.5039105946314778,-0.3928931853119441,-0.21887708219385374,0.06971093559193951,0.4128840748769088,0.6676493168051933,0.8212422907999706,0.9066211352393517,0.9481715003092349,0.9625620461777984,0.954064628391761,0.9051394620422435,0.7791764770809662,0.5782735450076593,0.37561435390352715,0.21951641404802347,0.10801688913873324,0.02853594838571705,-0.027046042990661427,-0.06518895192395849,-0.09613756612599929,-0.13815202711901797,-0.20708240094812333,-0.3147574034684729,-0.46704031313642297,-0.6579505272556522,-0.8385359667758562,-0.847240702321436,-0.6515614021833989,-0.4515759919994512,-0.3232694635987531,-0.24769755885541972,-0.19626248752316394,-0.14947593160992095,-0.10458907471041326,-0.061543546827593235,-0.019859659157394287,0.014268971327248175,0.02785285548127064,0.019943189555582,0.005842195131092282,0.009021698164426238,0.040684423176406595,0.1035290521885041,0.19978391567261783,0.3321702597845016,0.4914638834110444,0.6347901434705243,0.7094763855114342,0.6679630522524127,0.3945023413828055,0.0397792025155978,-0.13694449203542164,-0.2193574612632349,-0.27889235818879027,-0.3679841052926565,-0.5396114508521268,-0.4182342611244367,-0.25258713489249296,-0.20685654571314555,-0.21707066596617097,-0.2663394558423062,-0.3638157568244545,-0.47788064150361564,-0.38240903518088215,-0.20710810982487007,-0.11122252935179217,-0.06288357405843314,-0.036110377305500554,-0.019618873154820287,-0.009073742743327253,-0.002432571269689132,0.0008907113720831966,-0.00017988843252613783,-0.007238280768535762,-0.01863587070938111,0.0038113362621886035,0.010432948643220238,0.008615821083058691,0.0009535950345878196,-0.00801106454575136,-0.013933702352255701,-0.015217949889014572,-0.013096653888465227,-0.010284952797456448,-0.0075304704945493295,-0.004724666846966661,-0.0010563980107476999,0.006925174220077417,0.026002973389032805,0.06498888655092035,0.13561388456085688,0.2669626998818192,0.5290555461018539,0.8777166015606863,0.9214629650169426,0.8461117974012731,0.8030784709386867,0.7828719042420457,0.7637184007139752,0.7234868629885339,0.6126414357549199,0.37399408203189377,0.10908517382021683,-0.08640252024136177,-0.23690006752626047,-0.36647849620336514,-0.47043442474695474,-0.532395220770648,-0.5359663424616499,-0.47256548063137976,-0.3646271164232019,-0.2671364800184919,-0.2072023375970089,-0.18174128160203487,-0.18197610646385817,-0.19217792898811337,-0.1817172151390723,-0.14278200556036383,-0.09954716849214444,-0.05646791373078414,0.002459611607340411,0.11469998731344284,0.26443245506697216,0.27784745726727156,0.27306830476282096,0.30247922959817103,0.38000221984784743,0.5029637400636816,0.6332900359374406,0.729462601652128,0.7871528259109698,0.8152586723427642,0.8211303774622357,0.8149759379461374,0.8050968199823615,0.7908571197430426,0.7601631750017542,0.6976805687483795,0.5977323856867655,0.4651290954138854,0.2793430332939678,0.019167717374444265,-0.19886533401216844,-0.328444606911467,-0.40944822905338807,-0.4587474314239025,-0.48018590730851124,-0.4745108206690257,-0.4468639549677454,-0.4037235205701405,-0.33964044959807754,-0.25478001224438207,-0.16766615687268369,-0.11694145380982518,-0.13051800395014979,-0.2042926964792962,-0.31405928805970396,-0.42560060730738025,-0.5159316057159445,-0.5740734117753276,-0.5927371628856553,-0.5734670888541696,-0.533746534720732,-0.4956670639640586,-0.4182517610984009,-0.33112969584346325,-0.3073834708927638,-0.3019006800421796,-0.29343650532242926,-0.2704550357779459,-0.22973945176639896,-0.17922030985765433,-0.13609983605598922,-0.11401159299883813,-0.11934146209065348,-0.1522806247413362,-0.20812703070026,-0.27204040908432364,-0.33134825934019024,-0.3859001070320138,-0.44158964251927924,-0.5050345009902174,-0.5721356748802744,-0.6233091664319709,-0.6244923726214671,-0.5584764171433486,-0.454771991948731,-0.36045356515668114,-0.30088712490652236,-0.267979502781011,-0.23274350941095753,-0.17709452145743654,-0.11369009204946023,-0.057612951009545166,-0.012030268619112602,0.03279001754435667,0.09308998047723922,0.21014502105425786,0.48283539626179933,0.7445542819168137,0.6392316183281297,0.5226396916060349,0.43703894296209883,0.3495982195176028,0.2523130272713603,0.16128548448567567,0.09561203558633236,0.06016137853436493,0.0506144527031605,0.06434099422403275,0.10320961253018252,0.17033885444553928,0.23761879103462288,0.22576188610596803,0.16873825139701168,0.12029429932341074,0.08677362310418243,0.06562559524890761,0.04750650536103815,0.027375828735480782,-0.004994273487060549,-0.07585701354632451,-0.2667059514129651,-0.31345115398379936,-0.17945908254090445,-0.1141646440261424,-0.07538114896169648,-0.04911227894707065,-0.030105162137698906,-0.014999868913617717,-0.00037062856678840583,0.020407406563659945,0.06214907929645805,0.15658677094827855,0.3178625904600585,0.437565709506872,0.4782324768342628,0.45493564399930236,0.39338367113418204,0.34168255416997684,0.3295552652943743,0.37831621579484326,0.5024339382864973,0.6402004452723803,0.6837770092112341,0.7126581447895332,0.729752712067005,0.6349983064369478,0.48321697530601837,0.3798472506719729,0.3408419534185181,0.34800844444064494,0.36994672720147537,0.3783872111014924,0.3676474836959366,0.3483421879678649,0.3293285430244232,0.30017628262237334,0.24865889606044211,0.18981997204046042,0.15216958004719433,0.145931533407027,0.17436588870421044,0.22912868798492672,0.2871683456523282,0.33505087566422986,0.37085684677457975,0.40350685282631304,0.43658006270967836,0.469769336276532,0.4992056119175684,0.5250777782518772,0.5454374267347973,0.55931776540801,0.5544933242973391,0.49965932814524155,0.39144231149030284,0.2567494770441688,0.11963616022885643,-0.012462406772038664,-0.12932055692824704,-0.22285031553285936,-0.3001260160852259,-0.37217853569576775,-0.4384543704316446,-0.4956839129003946,-0.5446010564835257,-0.5911718243856976,-0.6387247851254318,-0.6791805738621649,-0.7036337387743973,-0.7100849394702606,-0.7109482199111168,-0.7156559615423455,-0.7261025556087886,-0.7419938758590822,-0.7612564609318225,-0.7801361082169326,-0.7936993071481133,-0.8024030850848837,-0.8022080682892233,-0.7903802586600123,-0.7636686354365964,-0.7106656084977585,-0.591120159526104,-0.279885169126996,0.0953921278111007,0.32145518665759865,0.4640988269869396,0.552830053019252,0.548405561117744,0.4514475498476383,0.33165995879146426,0.23461452133186747,0.17547261893911853,0.16428840486061794,0.20720752346865773,0.280653373305497,0.3540545782790441,0.41339411752048194,0.45545326838788047,0.47892562984675696,0.46829070110540966,0.40798084329379536,0.28617220568251467,0.15212072734531148,0.04900165489761832,-0.02767487492746574,-0.08876857923324832,-0.13719386999264924,-0.1723433904922543,-0.2003237533526432,-0.22565299500941471,-0.24688907934256177,-0.25643791879105776,-0.25545280013242067,-0.24929033906970555,-0.23306958361408556,-0.19816576727627763,-0.1365668034732719,-0.07446795503261203,-0.03842445329513889,-0.025138050519653683,-0.020000070184852167,-0.01314863170359719,-0.00044001589274318296,0.01918280407683312,0.04799633218868913,0.08183727393071151,0.10564929456731591,0.1090674755532119,0.08597952212328977,0.026416559893113322,-0.06331559288214217,-0.14170123129317239,-0.1683138240753276,-0.16190930855165422,-0.1466462538122052,-0.12728627617435653,-0.11394290180147221,-0.11520012068662394,-0.12524033189830747,-0.14344922562136078,-0.16397911585648947,-0.17979021581279808,-0.1819110323892157,-0.17068900670392265,-0.15503117425612703,-0.15164274662579807,-0.16144932532493017,-0.1739500550544849,-0.17595699204512555,-0.15715803898207834,-0.12169422542637914,-0.07288221395209482,-0.01493047775305874,0.06542897793006057,0.20461551263921504,0.44047457457502254,0.6683052374196901,0.6805441820452408,0.6031989253854778,0.5186963147826414,0.42535121580375257,0.3056995728571777,0.1399491631758264,-0.06678145507244364,-0.29537351698817127,-0.514212038087539,-0.6751000614634824,-0.7655634191260078,-0.8088110594611934,-0.8200967783729876,-0.800312728220332,-0.7115751426080285,-0.4253249070585027,0.14129784760088268,0.5718760237825629,0.7657666940016911,0.8562864527363168,0.8959216017523077,0.9033858615998496,0.8821528176927014,0.8263194804114422,0.7261828248108633,0.5832265848677527,0.4218173689678356,0.2809291037734246,0.18311256927455155,0.13458336448865155,0.1327313109929269,0.17679608926650744,0.2713918675260274,0.3831352306171479,0.3760914982085121,0.28135580322270054,0.1886937838812136,0.1083172880921528,0.04015440949619325,-0.015992002818752155,-0.06348651188145112,-0.10891888733773489,-0.16433048655451266,-0.255390098231645,-0.4329957546095072,-0.7143216827049007,-0.8455650479150479,-0.847844860227811,-0.8654834650982437,-0.890161643967836,-0.862234720894501,-0.7058182334486641,-0.4805737159360175,-0.3198463551452903,-0.24718526451289966,-0.24376877945440023,-0.29205167179033537,-0.3753891754336686,-0.47314518776545644,-0.5632000783412809,-0.6350332245888123,-0.6947603596119519,-0.7549622775651492,-0.819160096443254,-0.8636054208394164,-0.8463147280204123,-0.7618086627786975,-0.6638431790650613,-0.5922833023741715,-0.5461547869727545,-0.4986453043000215,-0.4292817529520574,-0.33383347950316195,-0.22238614333675794,-0.10848157655926012,-0.010835009910147417,0.06648216570478804,0.13722692224855526,0.21923345701758543,0.314967356809002,0.3729747140674278,0.39064974538218333,0.4138408819839405,0.4552004355131432,0.5139900183625259,0.5726493525041252,0.5926034908918635,0.5549560254605188,0.48473633919155595,0.4040689487678658,0.3171440534957015,0.2403228504483744,0.1869043648319198,0.14480100660022474,0.10150191972876284,0.051580783368480355,-0.010045741391953569,-0.07934642231237729,-0.14107566128232216,-0.17592918205175753,-0.1534077953998407,-0.05310504824111895,0.09718631256570531,0.26322135514944683,0.3686632232438052,0.29544115236797985,0.20909145899823314,0.16197521257231665,0.14098523281019637,0.1384996207003067,0.15544358808992206,0.20679074314005946,0.3518551960619914,0.5054314088319756,0.27609395470323556,0.1897338147301404,0.169764345591351,0.18535676317866556,0.23912888236409066,0.35087411592615875,0.5470740688832384,0.711650612030549,0.6655721255306001,0.5588001786105482,0.4770339203555978,0.41589557667932353,0.35316775056428806,0.28272922149789337,0.21018790576786175,0.13415757320979502,0.03699162962785492,-0.16785577107432764,-0.4632687372576272,-0.2903725541324969,-0.226865356669627,-0.2150255702524256,-0.23196501622942803,-0.2512839287318065,-0.2413460780830362,-0.22509943423622933,-0.21816985902114575,-0.22145221453996683,-0.23230697392329805,-0.24875216754628945,-0.2654862044132854,-0.28039209363741174,-0.29497945339502407,-0.3162491044197191,-0.3522747967903622,-0.4192958361605943,-0.5624562619451835,-0.5960007219701097,-0.2099113384690052,-0.07686041848917076,-0.03401620841755239,-0.01839361831265648,-0.013462099868953767,-0.013867876917426893,-0.016682437829462302,-0.020587507400202047,-0.022581190468029113,-0.01162540139214682,0.09606380312260053,0.3395850241935692,0.4243752326826029,0.47752626732951386,0.5042327207451932,0.5211455234504507,0.5234693916612262,0.5105651183543662,0.4838142158327174,0.445201084553454,0.40307473707191016,0.3721575103697046,0.3614574682158998,0.3751073392924869,0.41829452209903295,0.4838404514584898,0.5540569069165876,0.613254886766158,0.6615050095128923,0.7022527100749589,0.7336491133092286,0.750378185154906,0.7529167411664859,0.7471466986030333,0.7431141682391477,0.7419909450548371,0.7365775987919465,0.7213351543243696,0.6912007185646746,0.6444341475025187,0.5705092004839866,0.47635950816979555,0.38452414620280034,0.3017424695241599,0.22348539935957032,0.14226900968634232,0.05283927307968372,-0.04863133802358108,-0.1603236584633621,-0.3073329272842782,-0.527825256962385,-0.5716019989942742,-0.4261974871088567,-0.32877391011883295,-0.2706214538180995,-0.23621641624822287,-0.22218702615404382,-0.221837146980008,-0.22660717654255,-0.22724964594446742,-0.22648591047390498,-0.2398587602513119,-0.2799731145675232,-0.36251908197476373,-0.5079832250022819,-0.677269133155121,-0.7131611474246758,-0.6536536577105346,-0.6046055615519015,-0.5806109621634892,-0.5699156869799064,-0.5639602414984453,-0.5634569407413499,-0.5677468116554016,-0.5742427197522041,-0.5749148494180012,-0.559261397866691,-0.5243255371850893,-0.47024174432877325,-0.3939083933374685,-0.3102962319523853,-0.24277382318058752,-0.19491606942965684,-0.16172461189670945,-0.14151193883763155,-0.12855449642896793,-0.11816306338707547,-0.10691764630396106,-0.08705983386242534,-0.05847105596005641,-0.027629703777715255,0.004279486493846311,0.03291790020054712,0.04887812000131153,0.04545010769507229,0.024173500950282707,-0.0022651300733114383,-0.02347567668215099,-0.03595871476868509,-0.042532531080175524,-0.04167336969505703,-0.02805199241281885,-0.001805920853152813,0.03377090369942759,0.07715858251406936,0.13480030585336167,0.2315061402366664,0.3955635076025273,0.3017889731041729,0.14097793275801365,0.0757945047796539,0.04934616681470696,0.042512149720752006,0.05070437822536296,0.075751055147414,0.1179002474445994,0.17069813836308229,0.24200367585524024,0.33670489962950356,0.36721922452374517,0.31174006328408155,0.2664676806794145,0.22345083219759568,0.17025326475503624,0.13199390260990096,0.12913750934403778,0.18001341568835466,0.24333256722911886,0.15971597271801416,0.08339065875285312,0.018986303287734825,-0.03458750804527286,-0.06672116733238341,-0.06584218752681997,-0.025889917996069822,0.06323469128767788,0.20130537755073652,0.3460930003299424,0.4474315104668533,0.48627971066368797,0.4811425726592341,0.4566785296924014,0.4321688597984863,0.4189779534413321,0.41546404695731304,0.2651734203544081,0.04726214460082892,-0.024469192043872934,-0.04833564540838824,-0.05842317601691465,-0.06514445385673505,-0.07252619816436574,-0.0804639291828409,-0.08719973487528745,-0.09095506169955615,-0.09087041276464052,-0.0879363911797726,-0.08409458966967436,-0.08088497928071153,-0.07873183660988532,-0.07614070689968161,-0.0630717247212696,-0.004188148149532206,0.10095199745082396,0.1722435603188171,0.2110645273132882,0.23719192955425245,0.2604072082698821,0.29037863626731614,0.3348411713613991,0.3939045049849998,0.45929691898321495,0.5161149466018089,0.5460791083854344,0.5356889075520307,0.4826590378419143,0.398432405349103,0.3020193873611372,0.20676687241127928,0.11702964284935959,0.03196036427355133,-0.05090950811411371,-0.13711600199886406,-0.22800380833097142,-0.31058769261424823,-0.3683157941586124,-0.408626683465617,-0.4478339756060829,-0.4900800604308905,-0.5301140256210923,-0.561902869822522,-0.5815180626534758,-0.5887220692876882,-0.5858498653704443,-0.5796034469297563,-0.5793111534474494,-0.5940409719803941,-0.6267589859923068,-0.6585627650455215,-0.6658581164515731,-0.6270755293278307,-0.5115946030194829,-0.36921716629363927,-0.2894209167526575,-0.2718972227022481,-0.29263940891067736,-0.33620042663486077,-0.3923944100111955,-0.45829391469953634,-0.5298721519341809,-0.5960643746582017,-0.6500347396044727,-0.6907862332280127,-0.7111558800343176,-0.7093223726911068,-0.6943389966347796,-0.6747185479984005,-0.652247917481546,-0.622986289057991,-0.5728081546984239,-0.4924407334644122,-0.3828778646933338,-0.27120032725409626,-0.18957946014692126,-0.14352580485096675,-0.11504610466682855,-0.09499149699429281,-0.07957400665729604,-0.07016659798722559,-0.06577543972847813,-0.049445503093302826,-0.011509768225281625,0.04107877661190721,0.08387855624583473,0.10839800677240613,0.12296428318175158,0.12565090184187153,0.11761555650905053,0.10826460838063763,0.1012912040652141,0.0869092745058479,0.05339944942211502,-0.020786963040517494,-0.13076107899099176,-0.23904237824812696,-0.29855393642888023,-0.29043802274749847,-0.2158981651485823,-0.07580310961477514,0.11653174774994185,0.3198414586622893,0.47988127924537544,0.5666150247785893,0.6002700998273552,0.6100180603084593,0.6089589701343145,0.5970416839823905,0.5828770848040243,0.5821193507697021,0.6036750977805395,0.6304722728363417,0.6346862472785539,0.5922554353278012,0.49106561429491835,0.356558951617048,0.2377004122597625,0.156573364123799,0.1049336966979208,0.08786246045735106,0.10529438693892769,0.15538555540513735,0.23490952259986286,0.3286617147650973,0.423555704368989,0.505031069584991,0.5583373725780892,0.573168587029079,0.5647935211571478,0.5508596505269716,0.537733434519039,0.528034280251314,0.5241967170025952,0.5244505353632828,0.5170290503011826,0.49356299265736764,0.4684454907640999,0.4634402280638768,0.47517760642504364,0.4781294542118926,0.4395513638380288,0.3709703079780567,0.2989502623651088,0.2404762964872487,0.20921163389909356,0.19427551217029967,0.1745821902246238,0.1353913788427169,0.058953909119909116,-0.07915537484984055,-0.2704732494283165,-0.42586400908394834,-0.4675428675992422,-0.4151955943282918,-0.3410956725563483,-0.2964334509458993,-0.2752081268100271,-0.24307443824740918,-0.19356140554068388,-0.14610638504154347,-0.11004839436334121,-0.08553231641071363,-0.06819081550602722,-0.056535306667495976,-0.05066293621068752,-0.04813818441377007,-0.043235856987769716,-0.005259567792525333,0.1015814027333014,0.08905348886796022,0.0847943743048525,0.07930082209161006,0.07081171242966582,0.05873236050333615,0.0423636903273848,0.02110557476338285,-0.0021990226249824995,-0.022134494954664727,-0.033743692753613906,-0.044099533995268766,-0.06569162207601892,-0.09248315885365993,-0.11486842311761264,-0.12944777413180103,-0.13785734435176766,-0.13163647406518114,-0.10174478257658129,-0.05258347430138136,-0.013876422748354655,-0.0024636481858850844,-0.013156944190145854,-0.03915563548257597,-0.07693539868635677,-0.1282773041545658,-0.20799368300751148,-0.27634450228410445,-0.21507687197774644,-0.14826816873737697,-0.10011530606851969,-0.04899274452273405,0.01877228004193592,0.09634351767915407,0.16712544705160526,0.2145065418088973,0.23217559797457957,0.2246451053961135,0.19672640869148317,0.15346185439513524,0.10244230019409976,0.05292423984309863,0.008297975757294,-0.03305733574131121,-0.07653371960169676,-0.12952078308219875,-0.20262271974241577,-0.30078248078214764,-0.3043128949941318,-0.14442261763783878,-0.05056136752989609,-0.017379118524944493,-0.015838638795685284,-0.02811871155013245,-0.03882728850787443,-0.03234403714900965,0.003210052468691399,0.06801295104615414,0.1494440288988025,0.22993976027670515,0.29759263303632866
