-0.0324108669559029,-0.023901322150600954,-0.013065147434746854,0.0018401519957170623,0.020479453447986955,0.04373329340548273,0.0801961388678497,0.17926253441649379,0.4191290797335485,0.11354785504011354,0.0608433729448318,0.04090280234582775,0.0304136973803846,0.021345155871921956,0.008329543652584018,-0.01606786829683697,-0.06477934199545161,-0.15866835387796374,-0.30603321087429586,-0.45444651188510904,-0.5339242668638169,-0.543055283783449,-0.5021768186428179,-0.4254813852341496,-0.32828565394194326,-0.23510613195117985,-0.16244937016290606,-0.11131765841248555,-0.08582747012793228,-0.08241810562110587,-0.0766181223710111,-0.03228098498887407,0.10040278537171667,0.426274489788363,0.8025984918643847,0.8402664820017577,0.812797591580987,0.7957979508841052,0.7757200269283011,0.7396292540639958,0.6772563450936313,0.5818034454588229,0.4549132472450076,0.30805318297721135,0.1521274115273553,-0.013386857670633263,-0.2161522994750371,-0.27582569799329576,-0.23023296343610586,-0.21773977720989385,-0.24371062912379104,-0.31652419051971586,-0.4599845614756846,-0.6815843391641595,-0.8617992103920654,-0.8935879184399012,-0.8515380808211817,-0.7568196108359938,-0.5569353030295132,-0.30006672889790703,-0.09792565660018432,0.05232684253410654,0.1912439440003229,0.3586366811033805,0.4316221262938385,0.2992351043360178,0.1753218291925648,0.0884657228619131,0.022048056454679926,-0.06140454841409908,-0.22499148357853418,-0.4813034556166505,-0.6984856234437135,-0.7940626555062454,-0.7928384209173466,-0.7367412085352405,-0.6550806545094664,-0.5627389258193572,-0.47035303637520365,-0.39747962711154133,-0.35567810063122285,-0.34103997751082576,-0.34726719157853814,-0.36859612034549705,-0.4066283299880881,-0.46967271811200495,-0.5609770381897197,-0.6311623692877464,-0.5963665965280011,-0.5039105946314778,-0.3928931853119441,-0.21887708219385374,0.06971093559193951,0.4128840748769088,0.6676493168051933,0.8212422907999706,0.9066211352393517,0.9481715003092349,0.9625620461777984,0.954064628391761,0.9051394620422435,0.7791764770809662,0.5782735450076593,0.37561435390352715,0.21951641404802347,0.10801688913873324,0.02853594838571705,-0.027046042990661427,-0.06518895192395849,-0.09613756612599929,-0.13815202711901797,-0.20708240094812333,-0.3147574034684729,-0.46704031313642297,-0.6579505272556522,-0.8385359667758562,-0.847240702321436,-0.6515614021833989,-0.4515759919994512,-0.3232694635987531,-0.24769755885541972,-0.19626248752316394,-0.14947593160992095,-0.10458907471041326,-0.061543546827593235,-0.019859659157394287,0.014268971327248175,0.02785285548127064,0.019943189555582,0.005842195131092282,0.009021698164426238,0.040684423176406595,0.1035290521885041,0.19978391567261783,0.3321702597845016,0.4914638834110444,0.6347901434705243,0.7094763855114342,0.6679630522524127,0.3945023413828055,0.0397792025155978,-0.13694449203542164,-0.2193574612632349,-0.27889235818879027,-0.3679841052926565,-0.5396114508521268,-0.4182342611244367,-0.25258713489249296,-0.20685654571314555,-0.21707066596617097,-0.2663394558423062,-0.3638157568244545,-0.47788064150361564,-0.38240903518088215,-0.20710810982487007,-0.11122252935179217,-0.06288357405843314,-0.036110377305500554,-0.019618873154820287,-0.009073742743327253,-0.002432571269689132,0.0008907113720831966,-0.00017988843252613783,-0.007238280768535762,-0.01863587070938111,0.0038113362621886035,0.010432948643220238,0.008615821083058691,0.0009535950345878196,-0.00801106454575136,-0.013933702352255701,-0.015217949889014572,-0.013096653888465227,-0.010284952797456448,-0.0075304704945493295,-0.004724666846966661,-0.0010563980107476999,0.006925174220077417,0.026002973389032805,0.06498888655092035,0.13561388456085688,0.2669626998818192,0.5290555461018539,0.8777166015606863,0.9214629650169426,0.8461117974012731,0.8030784709386867,0.7828719042420457,0.7637184007139752,0.7234868629885339,0.6126414357549199,0.37399408203189377,0.10908517382021683,-0.08640252024136177,-0.23690006752626047,-0.36647849620336514,-0.47043442474695474,-0.532395220770648,-0.5359663424616499,-0.47256548063137976,-0.3646271164232019,-0.2671364800184919,-0.2072023375970089,-0.18174128160203487,-0.18197610646385817,-0.19217792898811337,-0.1817172151390723,-0.14278200556036383,-0.09954716849214444,-0.05646791373078414,0.002459611607340411,0.11469998731344284,0.26443245506697216,0.27784745726727156,0.27306830476282096,0.30247922959817103,0.38000221984784743,0.5029637400636816,0.6332900359374406,0.729462601652128,0.7871528259109698,0.8152586723427642,0.8211303774622357,0.8149759379461374,0.8050968199823615,0.7908571197430426,0.7601631750017542,0.6976805687483795,0.5977323856867655,0.4651290954138854,0.2793430332939678,0.019167717374444265,-0.19886533401216844,-0.328444606911467,-0.40944822905338807,-0.4587474314239025,-0.48018590730851124,-0.4745108206690257,-0.4468639549677454,-0.4037235205701405,-0.33964044959807754,-0.25478001224438207,-0.16766615687268369,-0.11694145380982518,-0.13051800395014979,-0.2042926964792962,-0.31405928805970396,-0.42560060730738025,-0.5159316057159445,-0.5740734117753276,-0.5927371628856553,-0.5734670888541696,-0.533746534720732,-0.4956670639640586,-0.4182517610984009,-0.33112969584346325,-0.3073834708927638,-0.3019006800421796,-0.29343650532242926,-0.2704550357779459,-0.22973945176639896,-0.17922030985765433,-0.13609983605598922,-0.11401159299883813,-0.11934146209065348,-0.1522806247413362,-0.20812703070026,-0.27204040908432364,-0.33134825934019024,-0.3859001070320138,-0.44158964251927924,-0.5050345009902174,-0.5721356748802744,-0.6233091664319709,-0.6244923726214671,-0.5584764171433486,-0.454771991948731,-0.36045356515668114,-0.30088712490652236,-0.267979502781011,-0.23274350941095753,-0.17709452145743654,-0.11369009204946023,-0.057612951009545166,-0.012030268619112602,0.03279001754435667,0.09308998047723922,0.21014502105425786,0.48283539626179933,0.7445542819168137,0.6392316183281297,0.5226396916060349,0.43703894296209883,0.3495982195176028,0.2523130272713603,0.16128548448567567,0.09561203558633236,0.06016137853436493,0.0506144527031605,0.06434099422403275,0.10320961253018252,0.17033885444553928,0.23761879103462288,0.22576188610596803,0.16873825139701168,0.12029429932341074,0.08677362310418243,0.06562559524890761,0.04750650536103815,0.027375828735480782,-0.004994273487060549,-0.07585701354632451,-0.2667059514129651,-0.31345115398379936,-0.17945908254090445,-0.1141646440261424,-0.07538114896169648,-0.04911227894707065,-0.030105162137698906,-0.014999868913617717,-0.00037062856678840583,0.020407406563659945,0.06214907929645805,0.15658677094827855,0.3178625904600585,0.437565709506872,0.4782324768342628,0.45493564399930236,0.39338367113418204,0.34168255416997684,0.3295552652943743,0.37831621579484326,0.5024339382864973,0.6402004452723803,0.6837770092112341,0.7126581447895332,0.729752712067005,0.6349983064369478,0.48321697530601837,0.3798472506719729,0.3408419534185181,0.34800844444064494,0.36994672720147537,0.3783872111014924,0.3676474836959366,0.3483421879678649,0.3293285430244232,0.30017628262237334,0.24865889606044211,0.18981997204046042,0.15216958004719433,0.145931533407027,0.17436588870421044,0.22912868798492672,0.2871683456523282,0.33505087566422986,0.37085684677457975,0.40350685282631304,0.43658006270967836,0.469769336276532,0.4992056119175684,0.5250777782518772,0.5454374267347973,0.55931776540801,0.5544933242973391,0.49965932814524155,0.39144231149030284,0.2567494770441688,0.11963616022885643,-0.012462406772038664,-0.12932055692824704,-0.22285031553285936,-0.3001260160852259,-0.37217853569576775,-0.4384543704316446,-0.4956839129003946,-0.5446010564835257,-0.5911718243856976,-0.6387247851254318,-0.6791805738621649,-0.7036337387743973,-0.7100849394702606,-0.7109482199111168,-0.7156559615423455,-0.7261025556087886,-0.7419938758590822,-0.7612564609318225,-0.7801361082169326,-0.7936993071481133,-0.8024030850848837,-0.8022080682892233,-0.7903802586600123,-0.7636686354365964,-0.7106656084977585,-0.591120159526104,-0.279885169126996,0.0953921278111007,0.32145518665759865,0.4640988269869396,0.552830053019252,0.548405561117744,0.4514475498476383,0.33165995879146426,0.23461452133186747,0.17547261893911853,0.16428840486061794,0.20720752346865773,0.280653373305497,0.3540545782790441,0.41339411752048194,0.45545326838788047,0.47892562984675696,0.46829070110540966,0.40798084329379536,0.28617220568251467,0.15212072734531148,0.04900165489761832,-0.02767487492746574,-0.08876857923324832,-0.13719386999264924,-0.1723433904922543,-0.2003237533526432,-0.22565299500941471,-0.24688907934256177,-0.25643791879105776,-0.25545280013242067,-0.24929033906970555,-0.23306958361408556,-0.19816576727627763,-0.1365668034732719,-0.07446795503261203,-0.03842445329513889,-0.025138050519653683,-0.020000070184852167,-0.01314863170359719,-0.00044001589274318296,0.01918280407683312,0.04799633218868913,0.08183727393071151,0.10564929456731591,0.1090674755532119,0.08597952212328977,0.026416559893113322,-0.06331559288214217,-0.14170123129317239,-0.1683138240753276,-0.16190930855165422,-0.1466462538122052,-0.12728627617435653,-0.11394290180147221,-0.11520012068662394,-0.12524033189830747,-0.14344922562136078,-0.16397911585648947,-0.17979021581279808,-0.1819110323892157,-0.17068900670392265,-0.15503117425612703,-0.15164274662579807,-0.16144932532493017,-0.1739500550544849,-0.17595699204512555,-0.15715803898207834,-0.12169422542637914,-0.07288221395209482,-0.01493047775305874,0.06542897793006057,0.20461551263921504,0.44047457457502254,0.6683052374196901,0.6805441820452408,0.6031989253854778,0.5186963147826414,0.42535121580375257,0.3056995728571777,0.1399491631758264,-0.06678145507244364,-0.29537351698817127,-0.514212038087539,-0.6751000614634824,-0.7655634191260078,-0.8088110594611934,-0.8200967783729876,-0.800312728220332,-0.7115751426080285,-0.4253249070585027,0.14129784760088268,0.5718760237825629,0.7657666940016911,0.8562864527363168,0.8959216017523077,0.9033858615998496,0.8821528176927014,0.8263194804114422,0.7261828248108633,0.5832265848677527,0.4218173689678356,0.2809291037734246,0.18311256927455155,0.13458336448865155,0.1327313109929269,0.17679608926650744,0.2713918675260274,0.3831352306171479,0.3760914982085121,0.28135580322270054,0.1886937838812136,0.1083172880921528,0.04015440949619325,-0.015992002818752155,-0.06348651188145112,-0.10891888733773489,-0.16433048655451266,-0.255390098231645,-0.4329957546095072,-0.7143216827049007,-0.8455650479150479,-0.847844860227811,-0.8654834650982437,-0.890161643967836,-0.862234720894501,-0.7058182334486641,-0.4805737159360175,-0.3198463551452903,-0.24718526451289966,-0.24376877945440023,-0.29205167179033537,-0.3753891754336686,-0.47314518776545644,-0.5632000783412809,-0.6350332245888123,-0.6947603596119519,-0.7549622775651492,-0.819160096443254,-0.8636054208394164,-0.8463147280204123,-0.7618086627786975,-0.6638431790650613,-0.5922833023741715,-0.5461547869727545,-0.4986453043000215,-0.4292817529520574,-0.33383347950316195,-0.22238614333675794,-0.10848157655926012,-0.010835009910147417,0.06648216570478804,0.13722692224855526,0.21923345701758543,0.314967356809002,0.3729747140674278,0.39064974538218333,0.4138408819839405,0.4552004355131432,0.5139900183625259,0.5726493525041252,0.5926034908918635,0.5549560254605188,0.48473633919155595,0.4040689487678658,0.3171440534957015,0.2403228504483744,0.1869043648319198,0.14480100660022474,0.10150191972876284,0.051580783368480355,-0.010045741391953569,-0.07934642231237729,-0.14107566128232216,-0.17592918205175753,-0.1534077953998407,-0.05310504824111895,0.09718631256570531,0.26322135514944683,0.3686632232438052,0.29544115236797985,0.20909145899823314,0.16197521257231665,0.14098523281019637,0.1384996207003067,0.15544358808992206,0.20679074314005946,0.3518551960619914,0.5054314088319756,0.27609395470323556,0.1897338147301404,0.169764345591351,0.18535676317866556,0.23912888236409066,0.35087411592615875,0.5470740688832384,0.711650612030549,0.6655721255306001,0.5588001786105482,0.4770339203555978,0.41589557667932353,0.35316775056428806,0.28272922149789337,0.21018790576786175,0.13415757320979502,0.03699162962785492,-0.16785577107432764,-0.4632687372576272,-0.2903725541324969,-0.226865356669627,-0.2150255702524256,-0.23196501622942803,-0.2512839287318065,-0.2413460780830362,-0.22509943423622933,-0.21816985902114575,-0.22145221453996683,-0.23230697392329805,-0.24875216754628945,-0.2654862044132854,-0.28039209363741174,-0.29497945339502407,-0.3162491044197191,-0.3522747967903622,-0.4192958361605943,-0.5624562619451835,-0.5960007219701097,-0.2099113384690052,-0.07686041848917076,-0.03401620841755239,-0.01839361831265648,-0.013462099868953767,-0.013867876917426893,-0.016682437829462302,-0.020587507400202047,-0.022581190468029113,-0.01162540139214682,0.09606380312260053,0.3395850241935692,0.4243752326826029,0.47752626732951386,0.5042327207451932,0.5211455234504507,0.5234693916612262,0.5105651183543662,0.4838142158327174,0.445201084553454,0.40307473707191016,0.3721575103697046,0.3614574682158998,0.3751073392924869,0.41829452209903295,0.4838404514584898,0.5540569069165876,0.613254886766158,0.6615050095128923,0.7022527100749589,0.7336491133092286,0.750378185154906,0.7529167411664859,0.7471466986030333,0.7431141682391477,0.7419909450548371,0.7365775987919465,0.7213351543243696,0.6912007185646746,0.6444341475025187,0.5705092004839866,0.47635950816979555,0.38452414620280034,0.3017424695241599,0.22348539935957032,0.14226900968634232,0.05283927307968372,-0.04863133802358108,-0.1603236584633621,-0.3073329272842782,-0.527825256962385,-0.5716019989942742,-0.4261974871088567,-0.32877391011883295,-0.2706214538180995,-0.23621641624822287,-0.22218702615404382,-0.221837146980008,-0.22660717654255,-0.22724964594446742,-0.22648591047390498,-0.2398587602513119,-0.2799731145675232,-0.36251908197476373,-0.5079832250022819,-0.677269133155121,-0.7131611474246758,-0.6536536577105346,-0.6046055615519015,-0.5806109621634892,-0.5699156869799064,-0.5639602414984453,-0.5634569407413499,-0.5677468116554016,-0.5742427197522041,-0.5749148494180012,-0.559261397866691,-0.5243255371850893,-0.47024174432877325,-0.3939083933374685,-0.3102962319523853,-0.24277382318058752,-0.19491606942965684,-0.16172461189670945,-0.14151193883763155,-0.12855449642896793,-0.11816306338707547,-0.10691764630396106,-0.08705983386242534,-0.05847105596005641,-0.027629703777715255,0.004279486493846311,0.03291790020054712,0.04887812000131153,0.04545010769507229,0.024173500950282707,-0.0022651300733114383,-0.02347567668215099,-0.03595871476868509,-0.042532531080175524,-0.04167336969505703,-0.02805199241281885,-0.001805920853152813,0.03377090369942759,0.07715858251406936,0.13480030585336167,0.2315061402366664,0.3955635076025273,0.3017889731041729,0.14097793275801365,0.0757945047796539,0.04934616681470696,0.042512149720752006,0.05070437822536296,0.075751055147414,0.1179002474445994,0.17069813836308229,0.24200367585524024,0.33670489962950356,0.36721922452374517,0.31174006328408155,0.2664676806794145,0.22345083219759568,0.17025326475503624,0.13199390260990096,0.12913750934403778,0.18001341568835466,0.24333256722911886,0.15971597271801416,0.08339065875285312,0.018986303287734825,-0.03458750804527286,-0.06672116733238341,-0.06584218752681997,-0.025889917996069822,0.06323469128767788,0.20130537755073652,0.3460930003299424,0.4474315104668533,0.48627971066368797,0.4811425726592341,0.4566785296924014,0.4321688597984863,0.4189779534413321,0.41546404695731304,0.2651734203544081,0.04726214460082892,-0.024469192043872934,-0.04833564540838824,-0.05842317601691465,-0.06514445385673505,-0.07252619816436574,-0.0804639291828409,-0.08719973487528745,-0.09095506169955615,-0.09087041276464052,-0.0879363911797726,-0.08409458966967436,-0.08088497928071153,-0.07873183660988532,-0.07614070689968161,-0.0630717247212696,-0.004188148149532206,0.10095199745082396,0.1722435603188171,0.2110645273132882,0.23719192955425245,0.2604072082698821,0.29037863626731614,0.3348411713613991,0.3939045049849998,0.45929691898321495,0.5161149466018089,0.5460791083854344,0.5356889075520307,0.4826590378419143,0.398432405349103,0.3020193873611372,0.20676687241127928,0.11702964284935959,0.03196036427355133,-0.05090950811411371,-0.13711600199886406,-0.22800380833097142,-0.31058769261424823,-0.3683157941586124,-0.408626683465617,-0.4478339756060829,-0.4900800604308905,-0.5301140256210923,-0.561902869822522,-0.5815180626534758,-0.5887220692876882,-0.5858498653704443,-0.5796034469297563,-0.5793111534474494,-0.5940409719803941,-0.6267589859923068,-0.6585627650455215,-0.6658581164515731,-0.6270755293278307,-0.5115946030194829,-0.36921716629363927,-0.2894209167526575,-0.2718972227022481,-0.29263940891067736,-0.33620042663486077,-0.3923944100111955,-0.45829391469953634,-0.5298721519341809,-0.5960643746582017,-0.6500347396044727,-0.6907862332280127,-0.7111558800343176,-0.7093223726911068,-0.6943389966347796,-0.6747185479984005,-0.652247917481546,-0.622986289057991,-0.5728081546984239,-0.4924407334644122,-0.3828778646933338,-0.27120032725409626,-0.18957946014692126,-0.14352580485096675,-0.11504610466682855,-0.09499149699429281,-0.07957400665729604,-0.07016659798722559,-0.06577543972847813,-0.049445503093302826,-0.011509768225281625,0.04107877661190721,0.08387855624583473,0.10839800677240613,0.12296428318175158,0.12565090184187153,0.11761555650905053,0.10826460838063763,0.1012912040652141,0.0869092745058479,0.05339944942211502,-0.020786963040517494,-0.13076107899099176,-0.23904237824812696,-0.29855393642888023,-0.29043802274749847,-0.2158981651485823,-0.07580310961477514,0.11653174774994185,0.3198414586622893,0.47988127924537544,0.5666150247785893,0.6002700998273552,0.6100180603084593,0.6089589701343145,0.5970416839823905,0.5828770848040243,0.5821193507697021,0.6036750977805395,0.6304722728363417,0.6346862472785539,0.5922554353278012,0.49106561429491835,0.356558951617048,0.2377004122597625,0.156573364123799,0.1049336966979208,0.08786246045735106,0.10529438693892769,0.15538555540513735,0.23490952259986286,0.3286617147650973,0.423555704368989,0.505031069584991,0.5583373725780892,0.573168587029079,0.5647935211571478,0.5508596505269716,0.537733434519039,0.528034280251314,0.5241967170025952,0.5244505353632828,0.5170290503011826,0.49356299265736764,0.4684454907640999,0.4634402280638768,0.47517760642504364,0.4781294542118926,0.4395513638380288,0.3709703079780567,0.2989502623651088,0.2404762964872487,0.20921163389909356,0.19427551217029967,0.1745821902246238,0.1353913788427169,0.058953909119909116,-0.07915537484984055,-0.2704732494283165,-0.42586400908394834,-0.4675428675992422,-0.4151955943282918,-0.3410956725563483,-0.2964334509458993,-0.2752081268100271,-0.24307443824740918,-0.19356140554068388,-0.14610638504154347,-0.11004839436334121,-0.08553231641071363,-0.06819081550602722,-0.056535306667495976,-0.05066293621068752,-0.04813818441377007,-0.043235856987769716,-0.005259567792525333,0.1015814027333014,0.08905348886796022,0.0847943743048525,0.07930082209161006,0.07081171242966582,0.05873236050333615,0.0423636903273848,0.02110557476338285,-0.0021990226249824995,-0.022134494954664727,-0.033743692753613906,-0.044099533995268766,-0.06569162207601892,-0.09248315885365993,-0.11486842311761264,-0.12944777413180103,-0.13785734435176766,-0.13163647406518114,-0.10174478257658129,-0.05258347430138136,-0.013876422748354655,-0.0024636481858850844,-0.013156944190145854,-0.03915563548257597,-0.07693539868635677,-0.1282773041545658,-0.20799368300751148,-0.27634450228410445,-0.21507687197774644,-0.14826816873737697,-0.10011530606851969,-0.04899274452273405,0.01877228004193592,0.09634351767915407,0.16712544705160526,0.2145065418088973,0.23217559797457957,0.2246451053961135,0.19672640869148317,0.15346185439513524,0.10244230019409976,0.05292423984309863,0.008297975757294,-0.03305733574131121,-0.07653371960169676,-0.12952078308219875,-0.20262271974241577,-0.30078248078214764,-0.3043128949941318,-0.14442261763783878,-0.05056136752989609,-0.017379118524944493,-0.015838638795685284,-0.02811871155013245,-0.03882728850787443,-0.03234403714900965,0.003210052468691399,0.06801295104615414,0.1494440288988025,0.22993976027670515,0.29759263303632866,0.3465662515381337,0.3749304773849659,0.37963954310343584,0.35480715298063814,0.29324755119988394,0.2074560111251564,0.13925665037990453,0.10689243998150393,0.0914570050227247,0.07289134652396198,0.05126105527748686,0.03197392733204651,0.015837336965972695,0.0020252350873692904,-0.010160704231448324,-0.019049229372015895,-0.026027053434449856,-0.0349825599285077,-0.044382525790545364,-0.05114989661336179,-0.06090751717581033,-0.082207505366801,-0.11797798626724196,-0.16488568624562766,-0.21942241697253187,-0.2801662907534432,-0.3502973292230643,-0.4278550239399754,-0.5068811687642968,-0.5813227595517771,-0.6436391777896965,-0.6874210374900962,-0.7092390052166633,-0.7085984527754315,-0.6910539215380772,-0.666958024676746,-0.6462220045140111,-0.6294575242589427,-0.6113267855486617,-0.5903161765888627,-0.5667360478464748,-0.5444436426333421,-0.5301223564058772,-0.5277232989052489,-0.5372897589893297,-0.5562662896291307,-0.5785448954944827,-0.5896804210198617,-0.5713537678124591,-0.5188702206130652,-0.4339058912410944,-0.3089734172200266,-0.129127019596425,0.10384737299566461,0.30716310256027474,0.42528882832343756,0.4756433421715168,0.4985464886997552,0.5070131196367923,0.5085626899882405,0.49732402714927143,0.47273467066877745,0.4445220886057117,0.43627772229568756,0.46711190330305247,0.533627149765566,0.6154674672159413,0.6905713124342684,0.7508646029325038,0.7934318196673452,0.811932790790354,0.8101190306758553,0.7990306735390763,0.7823923196650009,0.7528819880520768,0.7073755149254585,0.6621850105278764,0.623769240744618,0.5888876303719095,0.5525594692477102,0.5118529470528427,0.465665850763565,0.4087623172971873,0.33832440490410254,0.2677175055670969,0.23131929066984575,0.22675341407320498,0.22879421195368105,0.22682110516791915,0.22271234070259713,0.20089634813577698,0.1559768164092028,0.10712713380944716,0.06408540225883269,0.038393298292940324,0.03882537535796913,0.06561719057225852,0.10744669877514033,0.14263372909554187,0.14297317768123827,0.1086599976730505,0.07989416655745912,0.07152325830098086,0.08195322036875498,0.10201435346204919,0.12784261081356493,0.13734674094247776,0.11051656685589309,0.0979665808106411,0.14547555540125606,0.23540249837276772,0.22819704263899096,0.16126660451349387,0.1051093971064885,0.06040292359405577,0.03285730493576437,0.05549869990640275,0.17579736116661243,0.4201547744732625,0.727748456507056,0.7532971652024156,0.47446534694870374,0.2068609353833372,-0.005576159114647854,-0.20984186795894727,-0.33607302143554124,-0.18396094967326015,-0.04099507865017237,0.05850881926521715,0.1283339241292525,0.15736640930647458,0.14758834456317232,0.1279882857756888,0.11689028704195084,0.11431126048284058,0.11378098161695147,0.11344243796674941,0.11458200095767605,0.12138846407858674,0.1405524271063169,0.185265837921323,0.20672789198413655,0.13314206144508356,0.10199143866043549,0.09494213820076691,0.08799067191154561,0.07055279870258833,0.04385331646829466,0.013755858651651872,-0.013677800775229062,-0.03484732772164945,-0.048433235152206155,-0.056203324939054077,-0.06144550578980778,-0.06898222915773077,-0.07746790578127288,-0.07367319501858016,-0.06568364965201919,-0.06804066240637972,-0.08615091764279573,-0.12890481145887273,-0.22177807956932422,-0.4294393158611612,-0.5755322428779688,-0.357365592526638,-0.21319780655810977,-0.1338918563046406,-0.08992876138482535,-0.0665488848421984,-0.05181143631810204,-0.03813509459404053,-0.019745868736428904,0.01368605404616609,0.08338190051272035,0.23407386946455622,0.5276895973571495,0.7850202055618773,0.8334794125883116,0.8699964789129842,0.9072376507763715,0.8023055864431723,0.6107643631888542,0.4849019305149691,0.43473017854362617,0.4400390913825986,0.4895018878394482,0.5764502112731625,0.6866356020631209,0.7889585261578824,0.8574178539649049,0.8882513914580603,0.8857187447336645,0.8392393687620243,0.7212075790848768,0.5213315772342975,0.2770350786125021,0.04239124101077631,-0.14623609757209546,-0.2738351597418971,-0.3477566992745682,-0.3894123550948848,-0.41657824876633504,-0.43578324868137547,-0.4423836760883117,-0.4298200015758886,-0.4026404286257533,-0.36993800021328854,-0.3390190544203869,-0.3129773390110571,-0.2936924900882248,-0.29156842092897595,-0.3861725133634039,-0.12167401811888953,0.0091957246789727,0.018469685585234513,0.0063831130565979955,-0.01657466769175205,-0.052172982362097754,-0.1095703919026169,-0.21174370773236617,-0.4050913852462401,-0.6787667638989567,-0.7464432388312153,-0.6649028002425805,-0.5915595068494859,-0.5401049255321685,-0.5124501120764589,-0.5078391832717017,-0.5151821544577138,-0.5232267715707594,-0.5298015079966799,-0.5337283206405563,-0.5311149007644455,-0.513471602526909,-0.46772680672203987,-0.3637034687085636,-0.14250032102672502,0.2233354987173976,0.5716348127154228,0.7593810989043731,0.8332320524163671,0.8478461164059958,0.8210440218688526,0.7453893067614068,0.5893164512101492,0.3153140602027447,-0.02817495512904646,-0.3062690869945541,-0.467369902374495,-0.5399619018737458,-0.5603447057152215,-0.5483591629441104,-0.5149091518907704,-0.46522334968245366,-0.414422446346117,-0.37773090354596417,-0.37943277735523095,-0.4278895662576691,-0.4970960386306791,-0.5443866818951199,-0.5319658194717106,-0.44571130178431084,-0.3238748480394089,-0.22377211263914612,-0.1612043650225646,-0.1163120728054509,-0.05758011252123661,0.042104280816826684,0.16675358464404036,0.25515117027457407,0.2891492529299292,0.2953327503623434,0.29015217272237626,0.28768909326729436,0.30113873844716194,0.3490701260001082,0.43679559264946405,0.535013456558571,0.613566776399811,0.6512708757318828,0.6550214941781464,0.6327620181342593,0.5957198193732519,0.560799732892743,0.5408178174567387,0.5244889143423255,0.48356208279756613,0.43614787319653275,0.4081463513626511,0.39394530181394954,0.37837064816669147,0.3451622338367748,0.3047337009877823,0.2776569577980539,0.2802176349160857,0.31869343547517354,0.39743180512011916,0.5132216064139532,0.6015237191313163,0.5666399648456972,0.43332708265939845,0.294710019153064,0.19963432873942677,0.15017249738540125,0.1387109751843136,0.16016727183311016,0.20194118699443808,0.23291990705950064,0.22563912473520095,0.17393567531797763,0.08788904542239873,0.0020071958550995053,-0.059094441029266656,-0.08819015206295894,-0.0960259721388709,-0.09341393732552172,-0.08842643787182054,-0.08401967120455407,-0.08238048873397023,-0.08691599941684179,-0.09385430220009688,-0.049855573971301956,0.06387430337952578,0.09825462241517245,0.10753611926854041,0.11200240413810562,0.11712667925827279,0.12698360100253828,0.1436244318239938,0.16806196477990656,0.18908124819205963,0.1798826343382555,0.1546653032643717,0.1423378526970528,0.15688594235746556,0.2079563100270957,0.2908754343536773,0.37513125034465117,0.370819163327021,0.26235199066610143,0.1514459992576075,0.07411275121398056,0.023657231185193583,-0.012053396895573722,-0.043136379336420165,-0.07733255453469613,-0.11911268259352606,-0.16364284986256494,-0.19907454467175453,-0.2190922820456569,-0.224564943554836,-0.21851653058868778,-0.20535340609874697,-0.1889484847777776,-0.16331548901287785,-0.11569683658823347,-0.018953584976743564,0.167063347029619,0.43411896823795343,0.6383052304831679,0.723702533781234,0.7445622703443227,0.7266822546932467,0.6902593629697997,0.6568331703507737,0.6377243901420554,0.6412678243575944,0.6811255619851129,0.7679686872331025,0.8780476971812278,0.9384324767885183,0.8819834972890573,0.7454526689423675,0.606908933304916,0.49720932484470143,0.41452809977476823,0.3475627448995391,0.2876836038807575,0.23427625899609517,0.18823447172801294,0.14649831910685399,0.10427601918165093,0.05678819761893724,-0.001383141833017504,-0.0736837338817998,-0.16117542505284982,-0.2617770114638711,-0.37993059113148875,-0.520229979747488,-0.6615895048989396,-0.7460748476843178,-0.7520377094197506,-0.7282728529224606,-0.7164085706472383,-0.7237911426149238,-0.7343917390637782,-0.7188913991273975,-0.6539336241563346,-0.5554662056239055,-0.4685598089435295,-0.4126991163255439,-0.3893072248973883,-0.39977566811453646,-0.44837541663532343,-0.48313464876338724,-0.40504761830506647,-0.3231982482604967,-0.2948207628974316,-0.3137754987280398,-0.36942131131696915,-0.43731932510273597,-0.4822247419759502,-0.49812141040141006,-0.49837628365081726,-0.4598420727219554,-0.3480882516803076,-0.23665795484129606,-0.17464468466056943,-0.14983342735463404,-0.14594355722092783,-0.1560058113205032,-0.1797509829316229,-0.22307495154910587,-0.2979210481269949,-0.4033644934948381,-0.4761880012355827,-0.47985244005984024,-0.44208488281187824,-0.39818717226707023,-0.37072118101022267,-0.36958981522740825,-0.39309945459259443,-0.43548652654332964,-0.4852297691041919,-0.5141300556195161,-0.501990598478624,-0.44547602129668473,-0.3757865407678607,-0.31917733878768795,-0.27250840481072053,-0.2302026583270442,-0.17599056729179724,-0.0874409949108438,0.05040491654272422,0.26406542888758383,0.5259139455992378,0.7212252744628094,0.8083152412257925,0.7979968646157323,0.6865590551326995,0.5067319496954851,0.35227563028811615,0.2750164706020052,0.27393682738532965,0.35388143873087374,0.5258346619254701,0.716015253708587,0.8061223559441383,0.8000946038559128,0.7283587175342103,0.6078741784849002,0.4792324309181433,0.3928532009460162,0.3714650600917801,0.41541351005020843,0.5016903494403663,0.5841428479004557,0.615633169548417,0.5884606447218449,0.508403895460374,0.38250651620620346,0.21696412093295936,0.09384093575929191,0.04345226497228394,0.037366398839891554,0.08200247623393511,0.30548945205284783,0.2644198301356578,0.21332338474750365,0.21286455003615498,0.24926100152421504,0.3539824362958209,0.596243638472232,0.5618714511531431,0.32011619892623094,0.178790605286358,0.0833231062656677,0.018869418267512605,-0.025362759424698178,-0.0613227059917819,-0.0945656611787164,-0.12905695214302326,-0.16928718200287707,-0.21752755104352872,-0.2764734428534942,-0.3678773640086857,-0.49977782270450766,-0.273836379882362,-0.0962863587660556,-0.02268695809338371,0.02164627209140696,0.05911926377903474,0.09948037975889137,0.15020452761738928,0.21045481854284978,0.2612905449798226,0.27516652358582505,0.25734411760931286,0.22837852957409793,0.1966063754741601,0.17233959320623818,0.17125229052192875,0.2001084060720751,0.24856017640503789,0.28466983780337307,0.2839085136739079,0.25595497290738906,0.2127275706366299,0.15940175494928296,0.09697288944627527,0.012210491528498433,-0.14459260660106418,-0.5974357534302509,-0.5546405572478883,-0.33538810246369366,-0.24735317325195696,-0.20475149969108417,-0.18503913775470887,-0.18210763520583384,-0.1965383161567998,-0.2350200917552145,-0.3160751659937565,-0.5086056753595227,-0.625424209527976,-0.020053267595183284,0.21111706524999035,0.38560374971954603,0.5624101748261754,0.7083452306250023,0.7582570119112193,0.7203878456918995,0.6555102942171507,0.5982853974263002,0.5581332539254017,0.5395525294203952,0.5526294198736019,0.6251042662919986,0.7716806409057171,0.8767676959062625,0.8433664295346209,0.7851261030506833,0.7481571217511283,0.7168290848773409,0.6649083916554873,0.573597676221668,0.44940807220630885,0.31997199724868997,0.21346088890864062,0.1468784479404867,0.1236597809665587,0.13227442306504683,0.15525652392070463,0.1708408385627792,0.16177510063014397,0.11532887306743217,0.03160208991216837,-0.07741320905528014,-0.1982732086892598,-0.32005463884891844,-0.4374357292541749,-0.5398480684195034,-0.6231736277941528,-0.6915237893482764,-0.7586263925958951,-0.8317089122463048,-0.8986197042885585,-0.937727915107928,-0.9397451284379645,-0.9226671848106618,-0.9090613789946292,-0.9088095881103402,-0.9194294248406717,-0.9331964928541587,-0.9430260204250414,-0.9452342182153338,-0.9398768192468193,-0.9320379617342013,-0.9284574409656847,-0.92706748265097,-0.9174419912840066,-0.8981874867074741,-0.8785132135825344,-0.8704338979810743,-0.878967890257916,-0.903819700197476,-0.9366138946949294,-0.9610121743915121,-0.9624097797800678,-0.9565372057049198,-0.9563174240253199,-0.9519728632556462,-0.9337945711325562,-0.9009010560188141,-0.8438494103815073,-0.686476034943424,-0.0810306821664717,0.6753113978359762,0.8378310713218807,0.8469230481575324,0.7987868582619159,0.708874003024282,0.6026897569571912,0.5107234002678995,0.4429543058343107,0.39236810861920607,0.3552571780596541,0.33065328406453326,0.3212692144429425,0.32984277663515116,0.3585177177999734,0.4078600071407976,0.4655776168724121,0.4798793865867588,0.41013365542269103,0.295889374128639,0.17769573717804876,0.07202071136718104,-0.010101225889504274,-0.05908091979793098,-0.07780104339960714,-0.07762967962118346,-0.06827806202631151,-0.05556498080644591,-0.04150506628640258,-0.028584490041712887,-0.01839691477953486,-0.009974321869104436,-0.003363723319781093,-0.0007199008880863909,-0.0001467527756157255,0.005550517915714989,0.03434380798593747,0.0791082234424737,0.07945700178754646,0.08099051608632027,0.0954322214817033,0.12600004812805468,0.17519448515535005,0.23758046025396326,0.30722846743339105,0.3662553300806827,0.39250487684407076,0.3803544110132638,0.36888850277272,0.4026311387461736,0.48549274058989195,0.579336331259338,0.6306976899132954,0.6120481833314477,0.549142032589302,0.48906775602578656,0.46008298607349724,0.46459994900367074,0.46804233868648015,0.36637325204054827,0.18148312672831685,0.0922635322027032,0.07951525752312087,0.09545787775189271,0.11642978531822137,0.1350936183840424,0.15776699078213788,0.19332534482326943,0.25320073664805637,0.3211830893467626,0.23450230382807588,0.12986308918814715,0.08094375966437346,0.06124495511754633,0.060686481505908475,0.07108840150118109,0.03593222723412428,-0.016022440596896833,-0.05569294168370219,-0.09668997229191947,-0.13724912215500673,-0.1722158775938868,-0.1999818679365781,-0.21813521110880893,-0.22924139302710683,-0.23481146578524034,-0.23200400599152632,-0.17361279056232956,-0.06181714169001077,-0.008591381964745046,0.006985507836470158,0.009779817129113225,0.012253614885654756,0.019238777853746284,0.03386378072413667,0.05623636846141874,0.08272138154275742,0.10912277288953012,0.13415192616790955,0.16096063554853815,0.1961583731169853,0.24437432238783025,0.2960227257062904,0.32764240190712446,0.32190870738376537,0.28816688780772537,0.24186748610349232,0.19432346650991802,0.15771447771767821,0.13455257027704542,0.12034131984063474,0.11425681989620323,0.11326005609615311,0.12137687208978071,0.1451170330376843,0.20188537043696547,0.2876377547986527,0.35668257954220534,0.36245562211711707,0.2666184323780825,0.07867070678698379,-0.12011961127690786,-0.2565713943192197,-0.3234668237327342,-0.3441718094075291,-0.3465037990951082,-0.35686701421617906,-0.39693374917069013,-0.48547597092597145,-0.6331169959886723,-0.7706961635046539,-0.8324464948187408,-0.844961428328949,-0.8334462826805538,-0.7979557524447397,-0.6928275159865562,-0.5035001272600987,-0.34910936571838375,-0.2731777648767356,-0.2583698986572741,-0.30368311054119984,-0.43938560654122677,-0.5941075980530851,-0.4574081367165153,-0.2992166456831402,-0.18893419203300688,-0.10424631528246822,-0.056720181208430566,-0.052122592745702606,-0.07740336345705102,-0.11395560230388228,-0.13719003622065085,-0.126640825524129,-0.06611171313697267,0.036482648578633106,0.12651734646053134,0.1681972890889585,0.17003455645967105,0.14531295901256913,0.11020980196940432,0.082157661188159,0.06569371273773329,0.05930095328228443,0.059764534401018775,0.06630474059378713,0.07942089087282647,0.09802189006846398,0.11941458053522566,0.13636316588948277,0.14307369559963753,0.13749211036107678,0.12167448514840241,0.10863511954686178,0.11125940549573587,0.1299678894465566,0.15095990970476195,0.15483155232128465,0.12948006270120477,0.08374483704018892,0.031073208079124726,-0.015575450350344338,-0.047234743287096016,-0.06024947089496274,-0.06050291767801223,-0.0333809778953892,-0.0046882017524862134,-0.001172918034150711,-0.0006291192627259542,0.0004460928498370477,0.0019204507366018884,0.0036351839989172286,0.005002382153867743,0.003848206571617883,-0.004542730387698618,-0.02908750717081569,-0.08217207157709851,-0.13626355874471635,-0.12948808770987402,-0.07815612013297774,-0.01946143216019419,0.0315503137960239,0.06967182498017704,0.09175802791087995,0.09430647888656386,0.08016231908158726,0.06828815965688165,0.08686073955755588,0.15683553213448298,0.2701200203650151,0.3940039400965964,0.4908157290222914,0.5523090175209082,0.578748976061937,0.567105095457109,0.5017847064346208,0.3589697415956815,0.14631574052212573,-0.06520550501353184,-0.23266223400765124,-0.3568811509841889,-0.43805118136902044,-0.47956534636939446,-0.4867721296268096,-0.4488778578907969,-0.3886619357131652,-0.3372364606289743,-0.294079782627143,-0.2502238390240826,-0.19652793679823916,-0.12059576039465075,-0.05054341677356889,-0.024532210979799816,-0.041297734175327644,-0.09457348556753188,-0.17744144987642776,-0.2677657040490868,-0.3435820960238274,-0.40220428468094654,-0.44771599147325375,-0.47879102782080124,-0.48732000635778605,-0.45916102124263514,-0.36167919528845377,-0.0921216812725304,0.5418314954557092,0.9260640208936349,0.9722518168551794,0.9771693980379984,0.9802152010270991,0.9837482321836541,0.9863131231541149,0.9863748300479795,0.9827433791168595,0.9741588283157012,0.9564615037905222,0.9188647855873604,0.8416736764797863,0.7043302791450103,0.5102549058538641,0.3110436448046066,0.16925152628333956,0.10515769066747846,0.09776588518878136,0.09953068008113032,0.07469306838432634,0.03535582674589513,-0.011530179145420382,-0.07009705612375006,-0.14582563098771703,-0.2392164830743992,-0.34579305289948625,-0.47240368564835017,-0.643918178130654,-0.8641864018352149,-0.8947544527855706,-0.7657685104010101,-0.7973384089870162,-0.9023843117833784,-0.857143026297909,-0.7753041278125834,-0.7346437676513811,-0.7180648606767053,-0.6984479772608432,-0.6541785078880952,-0.5842233367215891,-0.5031583824983658,-0.40955701033220593,-0.3010967801737694,-0.1946751546730507,-0.1133885428363139,-0.0650760390255468,-0.04544470273726675,-0.04881933274312331,-0.08547110786888183,-0.18490836209147687,-0.45708510725752594,-0.7330488912243025,-0.5108869638875643,-0.3955735398820658,-0.33091092239491104,-0.28291127235018343,-0.24411963581781432,-0.21108954993951556,-0.18320104601956774,-0.15894879220720326,-0.14075739252236244,-0.13222528449392684,-0.1330068551152713,-0.13628752203894295,-0.12685246087151264,-0.09115687680791389,-0.03721636707571629,0.016632862349535402,-0.017239933064013162,-0.08148014337287711,-0.11847780996709492,-0.14038059507821748,-0.1388010565152824,-0.1070239450688901,-0.048264013866998315,0.0032339633902339227,0.02489489129233985,0.026976442953689016,0.026570823782051375,0.03270310185862692,0.05911988030236835,0.12109818148179277,0.21963412530129311,0.2733199275330082,0.28087563194734727,0.2858884193473809,0.2895329057937477,0.2895733017333149,0.28774909670380966,0.29024617985474876,0.30367845163058804,0.3288075716353604,0.35604767522226227,0.37565850433964165,0.3857849259570909,0.37210269348128777,0.3215071120558027,0.25408751949068253,0.2040032283032729,0.17835809376447231,0.17232470083034807,0.1797396690921257,0.19913042452274513,0.23234484062976515,0.28010555342421894,0.34030887908171803,0.41327864520760393,0.31418738490946324,0.09037955111454032,0.028448203919051306,0.023436496569173532,0.03898627125912031,0.06336539855705418,0.08118885248901692,0.0806549370724493,0.058110148271470694,0.01931543596917028,-0.03413146052163309,-0.10758864210699441,-0.19310196429932147,-0.25712999269364006,-0.2735588207302727,-0.2649931400038889,-0.2600244720858291,-0.26237840082874403,-0.26777535799507635,-0.2696203302614922,-0.2732280853828175,-0.2904745271594931,-0.3240390390292802,-0.36573514151750813,-0.400805469232243,-0.419253024934971,-0.42692837499725045,-0.44375035384127504,-0.4918184860505711,-0.5359522057725117,-0.4767728645512731,-0.41109798215314763,-0.3774991942027609,-0.3445440730305255,-0.28228832442888424,-0.17478908337281135,-0.03344618981531227,0.11520346588967363,0.24917401154780808,0.3646750217264047,0.47148932578116226,0.5690893611879855,0.6342703451291177,0.6509504013996698,0.6433866443173071,0.6511412084307769,0.6921435258587713,0.7484848876966452,0.7630303294579596,0.7319754588039845,0.7162230098351539,0.7351147166369661,0.7676234436624485,0.787270388680707,0.7867930612450628,0.7765012610313445,0.7609430223458875,0.7252647688726219,0.6433320029533016,0.5101621520292224,0.37435503404956594,0.2713922993721133,0.1932479582244621,0.1240783906029962,0.061644122700116454,0.00970118897312306,-0.03144242035682899,-0.06790978011151652,-0.1136946369789708,-0.20339794120616922,-0.513735710811277,-0.166968099037926,-0.0858320927683705,-0.0681060092268627,-0.06870398220710197,-0.079731895145636,-0.10262399987553836,-0.14436318112556248,-0.22021227216129982,-0.36048328931363544,-0.5953864802792452,-0.8248548754783974,-0.8865985924453836,-0.8690093120731752,-0.8333123847674209,-0.763971607306963,-0.629105355772016,-0.4350530648290015,-0.26845740036695576,-0.18600595028574227,-0.1974414732086486,-0.28659491472344456,-0.3936335540953694,-0.45357247422428515,-0.456185278961451,-0.4236961248722266,-0.38090094015072284,-0.3511997349255299,-0.36311107341582494,-0.45062219095134864,-0.5713893807663628,-0.5911078298125969,-0.5993398186521929,-0.6373266537348627,-0.6892416251058402,-0.7448351697957618,-0.7953941755316628,-0.8202247746298508,-0.7856503807028943,-0.6684956611146504,-0.48875205897312224,-0.3093768617163427,-0.16708609334555924,-0.06043579068117686,0.02153021024884615,0.08165495928422084,0.12268698798121935,0.14802905893820734,0.16629808287405448,0.19153770473399118,0.22782086115384045,0.12395714796415895,0.04858014559714547,0.030958363960150084,0.04146415061297864,0.06680336418362137,0.09521145769210704,0.12051401899176653,0.14468944173289428,0.17461451087801313,0.22369903869947586,0.3160645014131882,0.5158264343130128,0.7505731280093074,0.4443473917448231,0.2387250622957432,0.1360416014304941,0.07266382138265016,0.026042080899472665,-0.01306151192535322,-0.04744948986688715,-0.07532351347501752,-0.09520920359826945,-0.10614085912410395,-0.10666379543987459,-0.09662650839734195,-0.07917061519728581,-0.05712559076779158,-0.030985323731658444,0.02849019492870503,0.15347272024876796,0.2919296545592641,0.4524676624114634,0.608155398558089,0.7270439586298211,0.7995592952485421,0.818646777845757,0.7744615549035263,0.6800026075958748,0.5751205912392198,0.5020512440860491,0.48504401395056557,0.527944749985218,0.59949203576372,0.6593052183435695,0.6882919395127128,0.6699505906825901,0.5804941334595767,0.4094354046531026,0.20596573257930012,0.04022564147981648,-0.07205182893400913,-0.15323353686400076,-0.22658166446702013,-0.2953994574376328,-0.3513061368465065,-0.3794461740137958,-0.36806842955794233,-0.32269768678503974,-0.26654832847604304,-0.2200649379287679,-0.20169916242046024,-0.22591266028307566,-0.31286454232089017,-0.4786601800701482,-0.6886628496170399,-0.8343641287126983,-0.8725972067433588,-0.8382449443210118,-0.7515137303198207,-0.6420871371377819,-0.5578808806963458,-0.5220516857934872,-0.5299035358281287,-0.5708731009610094,-0.6368488792293072,-0.7248212687751062,-0.8254008733914355,-0.887810418510924,-0.8158562603449799,-0.6275922700352916,-0.4491990991251896,-0.3234611332886548,-0.23988405947335892,-0.18385321731833815,-0.1450482722580712,-0.11734419825645642,-0.09650325090988665,-0.08000167412955346,-0.06434635333370124,-0.04406712408657781,-0.01387294027455664,0.035789240479519986,0.11625132307566803,0.24579726437218602,0.4350575271671989,0.5322248333110906,0.4536465718035259,0.3857276696922109,0.36594757932494604,0.38772007959310845,0.4387915577268156,0.49525960968091404,0.5254243812142272,0.5222782871910263,0.5001178269834841,0.4733803089968434,0.44848896013208006,0.4240272477849995,0.3980346617524634,0.3772727194579559,0.3759377044014284,0.4002434201507983,0.4274714940315979,0.3945678036037708,0.31778497174590115,0.26271811092273034,0.24360131854488756,0.25573489499124247,0.28735388802485656,0.30927084416229783,0.2830573546773752,0.1882708459196292,0.025891684721147258,-0.17018360502118002,-0.3603508030999233,-0.5206618987653044,-0.6373239990887691,-0.7025642582927811,-0.7101594247443349,-0.658953202162162,-0.5744219929481483,-0.5023581237725733,-0.4735959700048478,-0.5037301968410528,-0.5990804811307534,-0.7391103902155389,-0.7981191102783002,-0.6409080473023909,-0.41216819650346626,-0.23337634205791416,-0.11471297137759767,-0.04002165622948564,0.014989359054184625,0.06508265494948817,0.11317809773406794,0.15904317596974699,0.21001100246449222,0.28558088497230094,0.43828854730702416,0.7210064467832573,0.8322170505809041,0.7892105663028552,0.7714439809562635,0.7550878384879989,0.7236624045759199,0.6834984911563448,0.6435358776688946,0.6097794144437061,0.5824086694314733,0.5517432566848521,0.4935356538017688,0.39050615169598646,0.27483989716245955,0.1717747621977739,0.072749881587831,-0.014720666234657414,-0.062084536331866204,-0.0904813039356111,-0.11589680878939977,-0.14131214639660875,-0.16044251857658223,-0.1431141499747402,-0.10789631797850614,-0.09075369557190195,-0.09091827934440384,-0.1007621094768519,-0.11871636028472687,-0.14261444549171223,-0.16857109447522636,-0.1952753801011438,-0.24087990557435973,-0.3154069998565386,-0.2821530889506314,-0.2333050103056254,-0.2239359256106956,-0.24146750793466415,-0.27179432825020056,-0.28716033673060054,-0.2494825457130025,-0.21622997394116353,-0.2227738002514875,-0.25847999048306675,-0.3158473601113475,-0.3864134672352879,-0.449952151544464,-0.4791874324720544,-0.46264990920952626,-0.39951519267475244,-0.31545529300753217,-0.23775939074189684,-0.17886790786513487,-0.13416956308984448,-0.09218127934146263,-0.039764046033598476,0.032765631610452,0.12601930507163897,0.23131090333921075,0.3288643696763786,0.314398471087185,0.2435896328924126,0.23110394510439652,0.2588090951237092,0.30409043874977204,0.3555087287014999,0.4033384697046125,0.4210238584398102,0.3524876160769437,0.18218598790589627,0.011025301284477049,-0.12712507271536383,-0.25577489446649004,-0.3899457761475882,-0.48588061679482747,-0.4553654894475409,-0.34034363429417613,-0.22469799415702932,-0.13132517795918802,-0.07618066712043685,-0.07399856359500573,-0.11960895665969591,-0.19029332098236212,-0.26283868375442976,-0.32218157022783206,-0.3605872910713132,-0.39025253133140037,-0.459357152065704,-0.6563723405383154,-0.5227423696259785,-0.2137383825067337,-0.10581057053760982,-0.05769300326357037,-0.03006888976384603,-0.010584541111550692,0.00801436627930281,0.033540635825577376,0.07760555384409634,0.1682146387940309,0.37268534442111256,0.7274572261130106,0.7974506097846694,0.5678377479124992,0.3289118586633471,0.1597241299220144,0.0414223477448637,-0.049319125266283854,-0.11496128502633908,-0.15022130456169572,-0.15306185708318373,-0.12355548650449766,-0.055528346143508336,0.058843281465425966,0.19658838337581738,0.32281530552286736,0.42423157580554005,0.4919546615798573,0.5226432896959585,0.5240564398769023,0.511390301371348,0.48806972293155526,0.450356654329574,0.3940183140863964,0.3162492975228214,0.23047414992208368,0.15982936967000996,0.13062427338881635,0.14904996225542272,0.2002047696796643,0.26119858590422934,0.3198412703338897,0.37692462656761844,0.44037185600757667,0.5127493144066659,0.594250965734503,0.6767496878992741,0.7484904683853868,0.8033527536051427,0.8393026990324326,0.8568906754137744,0.852143318777287,0.8026912758912427,0.6547380067687227,0.3559464651886402,0.00014829825527920535,-0.2675317841610053,-0.45640141172813425,-0.5916920426582268,-0.6511747627694028,-0.62612586704962,-0.5659849813996858,-0.513233390047498,-0.4781205230422687,-0.4583829452512654,-0.4514156744129755,-0.4605072157910411,-0.48928742483134874,-0.5361095815239988,-0.5823763712441435,-0.5912865050692565,-0.545692242917134,-0.46829476988564217,-0.3893981939004144,-0.32803892881482394,-0.2920899179471598,-0.2801447038628071,-0.2904448224049463,-0.3195199216765921,-0.3540894667294675,-0.36798688472122776,-0.3439509863368258,-0.3111912429148197,-0.28889442552955846,-0.25062482893537225,-0.1733447587657562,-0.13101204900418656,-0.13699540414315164,-0.1802550169211766,-0.27773550796260876,-0.5039078548256919,-0.6586984720912208,-0.4020108956636991,-0.26003112935660755,-0.18607977723839253,-0.13989255379392856,-0.10792012526654864,-0.08557520701619434,-0.07266345964381501,-0.07181671908810844,-0.08658034977962455,-0.1194784509208096,-0.1669251326326983,-0.21596511613787853,-0.23696617561745276,-0.20768651380057535,-0.12587341476493363,-0.002386834556832983,0.13040929660990694,0.21707487688394764,0.22296185657834922,0.1815434038764163,0.13979241601362008,0.11105077967636648,0.0984196321521563,0.09871571178134245,0.101870106589439,0.10740486257480635,0.12108358193312431,0.14918084617611643,0.20740317660219845,0.3360846024213743,0.4482579186162156,0.3681126720198389,0.29942164736792964,0.2624842697428106,0.24717073075931037,0.252181380667833,0.26835434906006006,0.2743107466762902,0.2326807673652831,0.13071007649639502,0.03629324601222164,-0.016923739368604505,-0.030666733498331645,-0.00889691605360368,0.04877581721563503,0.13898811813614467,0.2632070650673409,0.3956908925093986,0.5095059627565187,0.6025173667913324,0.6757375142002905,0.7268679233425104,0.7615107712715639,0.7803739857094875,0.7805121471948034,0.7439318190681372,0.6432231606895569,0.4793283320257879,0.30059035829861286,0.16448152705837127,0.0839584623815471,0.04188697166229112,0.02462260289954981,0.02611782116605309,0.04260852143326446,0.06626465220188857,0.09025500814569291,0.1138385894638904,0.13964491191919037,0.17109047991004617,0.20018656734932871,0.21876249346041374,0.23110342170148354,0.24973834114093543,0.2850736306941642,0.3428999166704466,0.42921762358609983,0.5047916001843026,0.4579550724983415,0.35028377220260465,0.2543868378782955,0.16216875325437097,0.05915881438875186,-0.054917652870048836,-0.16474302192889612,-0.24171913399841696,-0.26299645091880275,-0.2319930522123412,-0.1702954426386876,-0.09806425441601495,-0.034299793083046294,-0.005585258836425377,-0.039704844400234744,-0.15807158024730789,-0.32392660964923864,-0.4512438586484515,-0.5125545408847827,-0.514947678600261,-0.4819840937702939,-0.44140751571227943,-0.41307269933541585,-0.4063807512895049,-0.42645319962077854,-0.4629013421807302,-0.45799957789079715,-0.3465183384247387,-0.18484360527594337,-0.04957988047685796,0.04735798270157118,0.11330461903828311,0.15688542292050697,0.18762646495092986,0.21297860193600318,0.24172532775470154,0.28219128693690726,0.3368895342634767,0.4036690623446811,0.46725269404653236,0.4936790040212299,0.4411736925015438,0.31822007824217285,0.18143449913945756,0.05680947880194607,-0.06618917702864248,-0.2025201150575335,-0.3382898093309229,-0.45977222903758064,-0.5104891591562668,-0.43924499722066845,-0.3786803852309136,-0.3820602012207854,-0.45128030467198654,-0.5829504900199717,-0.7125190391746045,-0.711357284004746,-0.6496100778758805,-0.6193761546501648,-0.6228893179942285,-0.6411794993167459,-0.6389534787476016,-0.5565862826827414,-0.4177452355565913,-0.3234264873180213,-0.28262665408371923,-0.2733607483393902,-0.2796588725683577,-0.2962541569923208,-0.3272093795965028,-0.3839920099907544,-0.47502837193583436,-0.5863125775735885,-0.6644654752349426,-0.6567481143078786,-0.5517588491787151,-0.3677139009778081,-0.14790565868018524,0.04814246897972628,0.195685407342338,0.3137508855426017,0.4339609290821215,0.5695771077362785,0.7138834818683235,0.8533998293444283,0.9651168264273444,0.9575153351936049,0.7475122598885882,0.5111385012733803,0.36169598113170737,0.28326911324213566,0.2500810624858039,0.2495551534388191,0.2781173197670617,0.33619614389152574,0.41796573706008155,0.4904842967065977,0.4931464755331097,0.40305756472169163,0.2653689720816643,0.10972085064482759,-0.13319007768713303,-0.39719692922098215,-0.4072797773492277,-0.40494601399017294,-0.43045424517763103,-0.47540988577503984,-0.5296884638538789,-0.5866995510865848,-0.6405370104758819,-0.6877638182896534,-0.7203594912229926,-0.7263008173020354,-0.7066045507751629,-0.6770215838322655,-0.636007012066637,-0.5831053033857185,-0.5394344567657186,-0.5178660197754801,-0.5185758516741181,-0.5484025116790191,-0.6069609489295266,-0.6622029331744176,-0.6819341456857988,-0.6758203540961455,-0.6453469905021273,-0.5657892322546519,-0.4502445582118713,-0.3407437226564899,-0.2553731971130156,-0.19133830003841576,-0.14368351381524305,-0.10714289914702929,-0.07913148069151689,-0.058327042822254295,-0.03501212056389504,0.02427919636954914,0.1640823001278675,0.19691782164298638,0.18782841692347377,0.1830553696833091,0.18060913758033073,0.17887928217077004,0.17783697180815664,0.17908153827382797,0.18390571547124784,0.19533896264325906,0.21255853938222696,0.22631169215656596,0.22947878789643938,0.22565105946353378,0.21936304079539545,0.2124623962922274,0.20023116192528517,0.16049960973224714,0.09783593438871646,0.04874450813653669,0.01926609131511771,0.003614253981276297,0.0009136324546851285,0.017724490878237145,0.07208226128162307,0.05466066805250072,0.04859440190210279,0.051048231224702256,0.060158251016219626,0.07947838663542467,0.11753652586068557,0.19238987587349207,0.30618828016631366,0.3612101646907397,0.3106410753686915,0.25286981660493885,0.2152768057741435,0.18616734926752734,0.1576046072914059,0.1259332901247181,0.09581517599209671,0.07468112298810545,0.06552985084098874,0.06816405946781383,0.08209949143105638,0.10658077788730465,0.1363481708875335,0.1612718602322584,0.1712810214805441,0.1600016003347298,0.1249304895306355,0.07548125749544579,0.023491066647531686,-0.013242681537399416,-0.01076223972989156,0.07454381647416769,0.3200889564482481,0.5049184153000735,0.41265687062194956,0.2879059509838863,0.1655881384526774,0.0519079956633922,-0.044655001446463345,-0.11677152051469902,-0.16493485271298203,-0.19725733249027844,-0.2294246055215065,-0.2839399879976979,-0.4041574400703234,-0.6483980942122889,-0.6521382907366678,-0.4735624739856869,-0.41042126740210094,-0.427056885109369,-0.5079484269003562,-0.6230608625167848,-0.6512289438569691,-0.5891031624692197,-0.5426356042074109,-0.5286607881750305,-0.5307689197513756,-0.5329759547842203,-0.5279304392607002,-0.5127059953833263,-0.48617798514226906,-0.4527362025992312,-0.4246842717906464,-0.42382876355599436,-0.48350248916822114,-0.533190662302712,-0.17471818169302222,-0.00904778681200141,0.06440354274494711,0.1199937393730709,0.18501688327108945,0.282821346893612,0.4228360238754456,0.5659571946190088,0.6629017148100527,0.7177110749523361,0.7554803858958368,0.789769980972105,0.819187710406563,0.8383803542283859,0.8436739240841787,0.8328279574663472,0.8072703141009121,0.7722803089282226,0.7372133094718875,0.7146503612243519,0.7058677741279548,0.7021183978290075,0.6972790818891708,0.6850220525876144,0.6612479032295063,0.6233808848716457,0.5764060280899592,0.5297321509253238,0.48453018257809677,0.42445756153166114,0.30631203063047296,0.09408153794531207,-0.18823137049438995,-0.43445011213408435,-0.591039233800242,-0.6761188597654353,-0.7301561545095521,-0.7942086121029613,-0.8784089061101811,-0.9351916820509891,-0.9186039432498287,-0.8434208526824455,-0.7598993821733538,-0.6974399326852903,-0.6572162589308337,-0.6285228093749179,-0.5950015283919927,-0.5499377523112001,-0.5061200716370803,-0.46801052678112415,-0.4028372085112141,-0.10191831538122309,0.5972309857064805,0.829849746717432,0.8906225092508265,0.9068831146580109,0.8894935720517773,0.8256189978768045,0.6827535146645847,0.4506496984578247,0.20075712839538262,0.012409847230817258,-0.10159405249840282,-0.16199476762273424,-0.19491927559279792,-0.2176598761854979,-0.24644885480096768,-0.2911471670121692,-0.35446096350517337,-0.4411165740843011,-0.5711141125515606,-0.7201407227484458,-0.6705279778558586,-0.4824858250670834,-0.35942229773786505,-0.29265864050908075,-0.25537777869864065,-0.23538126114014202,-0.23073103145913024,-0.2485367131825056,-0.295446943555222,-0.35664466505069026,-0.39778811239074874,-0.41003692635208644,-0.40082110165159046,-0.3656231721894963,-0.2985385071608515,-0.2238062697029649,-0.17330558196611004,-0.1528170206129995,-0.14935075497079633,-0.13721708692047252,-0.08741954522270592,-0.004268837203117572,0.08727771709260368,0.19138150366033505,0.2930271848672783,0.35292005014937633,0.3448534464545307,0.27178380671176955,0.16749103874507235,0.08034435204454213,0.03585641534319566,0.035520179093492886,0.06195543547905453,0.09406941936424017,0.12107631837010438,0.1384832674785715,0.1461337975466819,0.14222791971021304,0.12903565414825707,0.11377593723854756,0.10920569203602216,0.14457643799540137,0.23749428745439075,0.3542417072433011,0.44821869758275895,0.5093305890979278,0.5542583750110962,0.6011845269631434,0.6170637232850473,0.5069481065802851,0.3114060545969224,0.15868990016471515,0.05823842257028418,-0.010858247962207936,-0.054927262040865524,-0.07300396951257314,-0.07041305094776042,-0.05581336827152894,-0.03832517577079288,-0.02521410141230464,-0.019775470576139768,-0.02091008925844126,-0.02685844677912087,-0.04172161954244432,-0.0849485452149422,-0.23907147546552154,-0.10753673682425072,-0.05114846472078871,-0.024745942667397283,-0.005791474203593511,0.011747470649409173,0.03100089367090227,0.05377387917939473,0.07962512329640087,0.10646573293073323,0.13375761580565818,0.15915960410462526,0.17411453489083692,0.16943218358919074,0.15294131927741436,0.13431265462768868,0.11465215502935006,0.09355632857992226,0.07057807932779825,0.04446555046999975,0.012827507736098332,-0.024065824202725926,-0.05023718390235708,-0.048525777470153166,-0.03146421436126074,-0.015761873348149543,-0.004649706708034611,0.0028535073917696843,0.00994208804978374,0.018649185293649707,0.03452247129541692,0.06433928014541254,0.11188311736723143,0.17836033552582622,0.2573151074974507,0.33769421071812267,0.4082762342267389,0.46187460301446176,0.49068367015633707,0.4931308228484703,0.4865007952930674,0.48904572207660546,0.5061667638071429,0.5328136923301166,0.5605915183108717,0.580426862980057,0.583310318083729,0.5551438523146667,0.4631495628157266,0.26187285328925564,-0.05769404040904603,-0.3745683615271227,-0.5693886078724897,-0.6659709340178336,-0.70855905950695,-0.7257080020851656,-0.7319001893137747,-0.7304901455314136,-0.7232784328726596,-0.7141729726421858,-0.7074200045069675,-0.7106205995747481,-0.7261383101185268,-0.7491964013572561,-0.7759295696661621,-0.8032118376383782,-0.8272980025994108,-0.8416898602570422,-0.8298835447048836,-0.7363196461411503,-0.4758386215120306,-0.1452611484910249,0.0823110477931087,0.1974775114641557,0.24492439224007986,0.2582866270713144,0.25862628947632355,0.25893395645042144,0.271964952040013,0.30755205739174873,0.3712742902391844,0.4573425054786886,0.5464907856810345,0.6151833113459676,0.6546920899190602,0.6740230710989321,0.6862231677091025,0.7037470462463986,0.7337225596334581,0.7621248396035784,0.5621317970319131,0.13716138457239857,-0.0637830214216305,-0.13603547786984885,-0.15692863762735246,-0.15020188350697153,-0.13253448761806216,-0.11628275882521212,-0.10920003656005607,-0.11472850610913812,-0.1313509328750494,-0.14903798782823863,-0.16146571717371186,-0.17202996885104085,-0.18637973360619248,-0.20504792295470442,-0.23241540427611698,-0.27712517554045707,-0.3463555091997339,-0.44143088831175675,-0.5496222521011584,-0.6225462663357353,-0.5646343614914505,-0.4083694605599826,-0.26782629301181504,-0.1703702685768848,-0.10534948612836692,-0.06416892287541923,-0.04045089503059812,-0.023352948923304175,-0.0034125411438257736,0.024536334188455404,0.07425570416313373,0.17689977391259332,0.3317450928543458,0.34536497520263054,0.27115295926775446,0.20256995985917886,0.1491840089609305,0.11079923548166436,0.08455543378887433,0.06704705112324996,0.056111633456368444,0.04887173405788296,0.04696153138755371,0.05762258044092678,0.10223518157563109,0.25741663809542165,0.42813766388018726,0.2757287188914545,0.22265927842040728,0.20873332737720637,0.20994897859820413,0.20515643232310465,0.16969956740611108,0.10886095295677822,0.06316554090724759,0.049281615126222325,0.05496140684182485,0.06573079025705704,0.07522808805578558,0.08457533390840069,0.09751009722248291,0.11434596741908719,0.13672271155241933,0.16381295447770317,0.1904942203989406,0.2092412465693539,0.21276078500331808,0.20399016740932716,0.1815234082098445,0.14424655151009014,0.09613131305941235,0.023414392329359608,-0.11716520290970028,-0.200076912121868,-0.20547761286620056,-0.20862598405359614,-0.22090162539139496,-0.24512971425739855,-0.2559386615611121,-0.17156588804643763,-0.026299915786131285,0.11743689705988275,0.28787368672826363,0.5081813556893363,0.7181502359890739,0.8030239290491962,0.7562662426430684,0.6203196267158897,0.433953888407076,0.2320038274740929,0.003978074263402578,-0.28892558802869056,-0.42566806886012964,-0.3708438796406142,-0.32466545728452134,-0.30633083673045786,-0.306816844151992,-0.31345265428034186,-0.3140295075629219,-0.310641096580973,-0.3334484278944901,-0.41697612645531423,-0.5301001604990455,-0.5960735805326057,-0.6169264710500877,-0.6071034429913382,-0.5578864343239349,-0.45334154062901894,-0.30488274787420866,-0.11935918698141727,0.14966623390304487,0.4138937896638591,0.4532124035176555,0.45593753999587694,0.47684318895122835,0.5039613846560249,0.5144949482331254,0.4976263593551904,0.45610433609502193,0.39218968180801644,0.29736970705315274,0.15057746947659095,-0.0705510905722441,-0.3161560103617555,-0.43275674745705883,-0.3911850947896827,-0.286193920256756,-0.19257303717325616,-0.12128930543714017,-0.05791969957397864,0.0022465168850423706,0.05202749878456902,0.08215823887318542,0.09359979598498626,0.09900876755807597,0.10790954641890621,0.05601675206575406,-0.020258840593537577,-0.045593767703827226,-0.06034081467511942,-0.07789004687875122,-0.10938561701263473,-0.1908557260486218,-0.29834953480499543,-0.13514054931895725,-0.08221161021284246,-0.05908184623538997,-0.0463561662526222,-0.0453401233660785,-0.06690872609192414,-0.15798122104517334,-0.3179197812977586,-0.14242359280018474,-0.06608446089407519,-0.022658729288970014,0.000567740169050539,0.004045528840093484,-0.006306262321987707,-0.00944464742036773,0.011103497288883154,0.0676136764856554,0.14902531314273235,0.23029792630312337,0.3003398643387285,0.3593081652890822,0.4049756666796859,0.40113727546357786,0.26093463031300934,0.06858787244626809,-0.06901497861470623,-0.16297821881847865,-0.22809019076908887,-0.2723186113849191,-0.29532389934108033,-0.29689775366894894,-0.2877838528776772,-0.28572782014158454,-0.30896086069163986,-0.39087899965919104,-0.49921998150359737,-0.48975738009726394,-0.4600340404737272,-0.4765614269795978,-0.5274111203847688,-0.5925110856188749,-0.6326877809584496,-0.6101798128162744,-0.5210093454406878,-0.3741716541293656,-0.16982018156781853,0.05288169106781748,0.23896326957592728,0.35271431621356675,0.39733567647620954,0.38546034369910187,0.3316022411272162,0.25410717663285143,0.1731300345769991,0.1019895662527798,0.046243274670226424,0.013265717480821053,0.003163793472812033,0.005587808837894018,0.006803247965182991,-0.008689632292714059,-0.07191891450010851,-0.2083191165536853,-0.10902987517320861,-0.07217187211761898,-0.05375990086717439,-0.04295179312863043,-0.03953414001670527,-0.03663578505212806,-0.038374449573054976,-0.043824615334162806,-0.05013070110679166,-0.052655976911179916,-0.042220950175858,-0.003128509724910842,0.0875200199653124,0.20288935524931825,0.24667123866505827,0.2519258023820276,0.2630210085616779,0.28287072613978526,0.30634772206504873,0.32831469420887704,0.33903504049797006,0.3324910441161149,0.30320933256892996,0.25933046448878244,0.22285266189484984,0.20675974346632509,0.20520128758964948,0.2078601268677326,0.20998096009102657,0.2131428011324667,0.22416127542010347,0.24778464048483023,0.2842700603908393,0.30908776339886745,0.2931863690178382,0.2496430063007535,0.1965358932420669,0.14570635025664752,0.10670133235896556,0.08496497085914453,0.08148232591174596,0.09293849154330766,0.11370703566564734,0.13195908975024512,0.12333141270280558,0.07389346117286744,0.014536810317099401,-0.03610643231011701,-0.0827738898627784,-0.1354762837896915,-0.18647804603446586,-0.1844186911427341,-0.14574232771406057,-0.11809352825950127,-0.10855312473597613,-0.11597036363672909,-0.13504346977436235,-0.16037680353367612,-0.1951109223117581,-0.24948948405619686,-0.337550761071435,-0.4729712312163251,-0.602269451947288,-0.5375248301619723,-0.4011006951200633,-0.31356350100238933,-0.26786831612191725,-0.25110917982509595,-0.25647487989175727,-0.2798222222962021,-0.32380609266292476,-0.40424328139434873,-0.5462067625035069,-0.7313257217680766,-0.769716924249932,-0.6274444921614183,-0.4702936410248736,-0.34257069015393565,-0.2515137456057462,-0.1926302214370822,-0.15378081057632606,-0.12522319124347278,-0.10089943527366245,-0.07570506180662608,-0.047199912343929416,-0.018788026699639727,0.0037368865841835145,0.017072096837470286,0.02363224955150109,0.03777193531053421,0.0885739409119061,0.24258378415560855,0.5712816569856539,0.7565535919210848,0.720848652143391,0.6602445903617896,0.5530492045365795,0.3707690539547479,0.18781558682576416,0.06985602201342357,0.006458428163029691,-0.031190311609039206,-0.05902233928491551,-0.08447134028736945,-0.10810235345019252,-0.13016561056450984,-0.15670337636994597,-0.2099064368285063,-0.33797439990033457,-0.47616893137145466,-0.4211666188515836,-0.37301518537740236,-0.34500463522098557,-0.3144120896846689,-0.27190790581552915,-0.21185563742395522,-0.13197761075680756,-0.030301259342459346,0.10665408785519422,0.3129281442440769,0.5796664534774868,0.7385434550169901,0.7671584399891227,0.752282400425661,0.7085933119659017,0.6239712907461548,0.48500876541884036,0.2572497790675863,-0.11981610769239884,-0.5440489234441656,-0.7284538752047838,-0.712469565486415,-0.5918520793344817,-0.4344105163553187,-0.3061904887653525,-0.2187295009754984,-0.15528567499840598,-0.10211599666150632,-0.05223412983079559,-0.005641922203684223,0.04084767640259419,0.0907972999510759,0.15803454411449666,0.25862546926286634,0.37590873029975647,0.42658380115214867,0.4075137723292825,0.37010501453725003,0.3326805958792784,0.28723419835843034,0.23135806482755106,0.17752225470853228,0.1519596205855885,0.17190311561140154,0.23695858973674397,0.320861476921819,0.3984212721322899,0.4595348061311189,0.5040357051625767,0.5327924717119921,0.5432753562644214,0.5317372113675334,0.5053095916982075,0.47216691721437665,0.43673800497660575,0.39175696657968107,0.314629731356754,0.1663980483651307,-0.051849112752263046,-0.2551730751397657,-0.3801850398244222,-0.44111921624927897,-0.4525647046789999,-0.421445413048712,-0.34228962336367,-0.22900416289661554,-0.12215035587710575,-0.058656764767495415,-0.04795698401721646,-0.07105647119467844,-0.1041311765361085,-0.12700819610664554,-0.11801434966440179,-0.08866276957590513,-0.05779410587489891,-0.026164408237559875,0.019145288241275628,0.08090066639267803,0.15319409182082247,0.2173351713909917,0.23461704377032871,0.2046756715462493,0.15249535772937756,0.09865089173777873,0.051998677850173466,0.010228367567431163,-0.04948673009708759,-0.1939264954076756,-0.3663804427050338,-0.4128310596970779,-0.4283706722763585,-0.43485664015767067,-0.419643909934944,-0.36901062139208185,-0.29400609513457415,-0.21693275657165165,-0.15929335452504714,-0.12349365899624258,-0.10546087812506394,-0.10211025035107477,-0.12146125057087004,-0.20004397827436673,-0.4084146452936305,-0.6753810791889612,-0.7219035175775563,-0.6471493749503082,-0.5536146773246787,-0.46042509616103744,-0.37965785931155266,-0.31453921460094475,-0.27127483558140947,-0.25796189849614637,-0.2839059219712927,-0.3489594471435632,-0.41442036459716414,-0.32360078322331276,-0.19394885945720047,-0.1253389957878191,-0.09361427645861894,-0.08116158072180228,-0.08066616606557155,-0.08450445225634824,-0.08566559188068805,-0.061328902605176816,0.11562464481562586,0.30536542219272056,0.29602389463989437,0.30350145069585427,0.3278572668609617,0.3695285134985625,0.43400973219936023,0.5339932744852793,0.6726822623965354,0.7873322117322108,0.7732512182135197,0.6740386245495836,0.5795169310770771,0.5205755792740764,0.4956588577731247,0.4995026629239038,0.5268875026237445,0.5748635703889694,0.6363911574066199,0.7027811519056021,0.7644409553920816,0.812548923829942,0.8419353648348612,0.8502192738853784,0.8322301520793816,0.7710783821966846,0.6371436212908658,0.4237372128390892,0.19557902456484846,0.02801014653512296,-0.06600592650843908,-0.11112529529502892,-0.12791903998398035,-0.12946155230048095,-0.12278702154679783,-0.11505378885337134,-0.11349534238858798,-0.1219259793808928,-0.14742304257340197,-0.18680109957164134,-0.24375205824457105,-0.3438987260766269,-0.5646815211402302,-0.5075300313637678,-0.2964700045812411,-0.2126993469586352,-0.1729758132978562,-0.14847843704296212,-0.12987427184171954,-0.11522739707533239,-0.1061381655690207,-0.10804674939367628,-0.12618759532653331,-0.16405804216217548,-0.22256258946267357,-0.29409499602691946,-0.37309759712121254,-0.4671039976608472,-0.5861538286853568,-0.5850832095161485,-0.4229338545828876,-0.3505179054769077,-0.40448428943688175,-0.6562825710992969,-0.5656153561791956,-0.37765006674515944,-0.335233315080115,-0.354611228847224,-0.42775765826562206,-0.5238388588239227,-0.3273487907688005,-0.13839843780198555,-0.04775919278672462,0.006651123927014778,0.0539456254923398,0.10953350255731399,0.1753048742756045,0.23487434765202192,0.3081465111526066,0.41426359230889453,0.5203935875499448,0.5941938666273885,0.6284428461511857,0.6238570964436743,0.5934294147220851,0.5558726343027416,0.5111866101161284,0.46239297010279096,0.420069287770632,0.39588642710169003,0.40305567239153367,0.4518996254404211,0.44066206832272187,0.23943692420656393,0.1104225692386296,0.05544802235355317,0.03357748216494078,0.026384237129203486,0.026997472225359875,0.03341678352952099,0.043907909080594804,0.053597297071624084,0.043851604222942986,-0.04126125236994819,-0.2751425114641977,-0.5213928323377599,-0.6532114519345469,-0.7213073933226878,-0.7599929440422288,-0.7756870453759649,-0.7522015545095074,-0.6619900617952678,-0.5258172061090004,-0.41654411001612807,-0.3549999262810451,-0.32578965575203445,-0.313380213739899,-0.3046530422747054,-0.2954926932190972,-0.2919336170522785,-0.312305189639975,-0.3978566093379184,-0.28103248704830064,-0.11118349742084804,-0.03335054729480217,0.017371579080491212,0.05294379848728686,0.0763508089412917,0.09026314486153776,0.09832206924349589,0.10707980346808983,0.12009195139229698,0.13915155256172612,0.16516265902954416,0.19995965572840022,0.2442751386425376,0.3024111027879279,0.3852958573345119,0.5047129758682392,0.6263182307388768,0.6404847759991273,0.5778312090056958,0.5303750230657904,0.5134355883174966,0.5156438702351183,0.5161932046572175,0.4873006315946897,0.39935009332026605,0.23572182601827932,0.012790206136553966,-0.20534055974848825,-0.3602949714654239,-0.448143923251744,-0.4950785757865718,-0.5167108533920897,-0.5168234713019995,-0.49297967464908715,-0.4411907834983688,-0.35178684011251415,-0.21443204942018668,-0.02272105114636109,0.1988830271131091,0.4062644593113115,0.5750813988936146,0.6999535862721552,0.7800371663220913,0.804906709341254,0.7296627806277282,0.46049439428829353,0.033553616609033575,-0.3174976269141278,-0.5375380008711765,-0.6794777923485736,-0.7743640873935959,-0.8281244863350852,-0.8443907379366703,-0.8366983155402067,-0.8291594180266137,-0.8312213630731581,-0.8300482851921367,-0.8101835293946237,-0.7523665047115649,-0.6545269238285005,-0.5537116245087824,-0.48917317576822783,-0.4632950264095265,-0.46328179771478895,-0.47655631054778325,-0.4901657656723375,-0.49841322049106596,-0.5056832275487361,-0.5127730132650757,-0.5192498854994889,-0.5282266212210172,-0.5536356805522593,-0.6090001994698093,-0.692283049209385,-0.7395545354984508,-0.6817005558262578,-0.5774417606686882,-0.484519749365816,-0.4163728832835377,-0.37985781684912684,-0.3869437934803604,-0.4604640503477858,-0.5736637462846716,-0.397863419965296,-0.2198600420209265,-0.14556772250881306,-0.11506267613943344,-0.10488866044783623,-0.11067133762276347,-0.13764564351314532,-0.1982639262444115,-0.31371545951554564,-0.4770727578045428,-0.5018334730423221,-0.36068949801236677,-0.2288983197195201,-0.1293842919695798,-0.05731416161454431,-0.011195525682286203,0.016158260144491437,0.030334557507509467,0.0359983733832642,0.03969980466538055,0.04856464572441197,0.0951904875229852,0.15005293399911185,0.11098931859776257,0.09700167250553011,0.08559328987817881,0.07273098718298383,0.05931145120760874,0.04458032541007985,0.026590620890270183,0.006220980628212073,-0.011259430962567573,-0.019358714085711073,-0.013429518028012283,0.0036641950670551313,0.025639502227416035,0.052950562922419085,0.09229473434477646,0.1533417970363076,0.23270731560037503,0.3154016607742968,0.39524270295782543,0.47775561276488676,0.57096965607327,0.6637267188893514,0.7381562467546277,0.7966548683938764,0.847935656002642,0.8864317996301969,0.880432247056862,0.8018153537944945,0.6893402623174811,0.6028616441623452,0.560714329989885,0.5595159722222651,0.5954566037485804,0.6637955178066669,0.7520996610726987,0.8381291643580413,0.8967353227371233,0.8994535939857634,0.8520160487391585,0.8007491505481478,0.7625020648022114,0.7213906948448275,0.6490906425589872,0.5025738725838942,0.2379791945865633,-0.12135981751238217,-0.41486206964007166,-0.5716882778162967,-0.6468811898578264,-0.6857070416549385,-0.7130334128733186,-0.7485544187019295,-0.792428069170196,-0.7973061862392313,-0.7596693314720716,-0.7419491459116743,-0.7607302674983701,-0.7915671143242557,-0.8057732257559814,-0.7997960412746333,-0.782849183995255,-0.7529526649912718,-0.7063425540587525,-0.633815860218427,-0.5227573204687763,-0.3853159819725317,-0.24518384131278448,-0.1144173306379534,0.0010491503316521938,0.09732655238409235,0.17041702172264062,0.21274280715071997,0.18853711369776283,0.029872413574627055,-0.13094158058043434,-0.17742893288285752,-0.17214538703905793,-0.16153103620218984,-0.17112925009832583,-0.20565222291038215,-0.26113418612653183,-0.3366076846007582,-0.434709576462851,-0.5414296633436501,-0.5391740290925356,-0.3829782240391839,-0.22589998716540127,-0.11618718555560334,-0.0372416888776378,0.02390982626395915,0.06921805488967418,0.09740169624743802,0.11862855092385738,0.137996508475048,0.15472068583475468,0.1711899315560474,0.18890939430042114,0.2116360213375483,0.24123942812794938,0.28218389357084156,0.345765295705093,0.4403968184076692,0.4734099342980851,0.2899265303867638,0.16005199827958638,0.09907214555272907,0.05613023997233368,0.022262000992979973,-0.00783383136883059,-0.04416663598286277,-0.08951061049266619,-0.14941038682858113,-0.21565377155761037,-0.27325413606728993,-0.2877085083748365,-0.20982430772341915,-0.01689749565356279,0.18794010593636018,0.28894686639293465,0.2828277829090672,0.22271780565524063,0.1495327067315601,0.0854015436160228,0.03329453428626317,-0.0063681405592247034,-0.04078548277353581,-0.08710985156891245,-0.18790850104855059,-0.46900430139835514,-0.6790652937971003,-0.5278906942525854,-0.455574312590238,-0.4167195057692604,-0.37192496210106313,-0.28356756299529556,-0.10663016140608239,0.1674142755890583,0.410483070232074,0.5248689961106611,0.5361703911396044,0.4793697435190552,0.3992697226840219,0.34127713691933725,0.33020633410182804,0.3614806435891894,0.4184109264125739,0.4737430206588514,0.5037494402777786,0.5029434212974784,0.4551336632438823,0.3166013734169799,0.07707778583235811,-0.14222810962758323,-0.27608523815255304,-0.34346097851115653,-0.3675965764381863,-0.350583721489415,-0.3109858641681829,-0.2823029559018734,-0.26417385918820074,-0.26336186142089413,-0.2920173687020547,-0.3612900835447572,-0.4480258660916769,-0.5288939225569977,-0.6806798694607458,-0.816532469067499,-0.5673445870395584,-0.3707853999538537,-0.2732137767852801,-0.2156233531729334,-0.16667440379898132,-0.11010295124264446,-0.03767394398644905,0.028191859207658963,0.05850914225947011,0.07016395363358124,0.09382834284781288,0.15808768965016928,0.26348356717217125,0.3464946317558001,0.3579166063697115,0.3298690366873757,0.2994415427771287,0.27497411246517167,0.26024512339638445,0.25871767398097545,0.2781561553925912,0.33711238067278215,0.47191578720156035,0.47546187634525905,0.272388949126234,0.1773792083646588,0.13773107177098304,0.12097113240523417,0.11534218466727468,0.11462215314918901,0.1132905083065468,0.09869628472241847,0.036417371109330354,-0.1282363918144784,-0.26724446576155586,-0.2934021184633017,-0.2707354901242037,-0.2230768271714287,-0.154434136364881,-0.07913257536622886,-0.022790493855807472,0.00681960414046913,0.023215431069241736,0.03840798172385086,0.05508322488766701,0.0413351445686613,0.0020287175999248773,-0.036056184150790586,-0.07187700891821416,-0.10830465528952785,-0.14486066807247286,-0.18173511335610504,-0.2199573782799245,-0.2587761071541255,-0.2960567657075128,-0.33304187011157466,-0.3768852266692907,-0.43581938013405963,-0.49720766174588793,-0.4203956023986636,-0.1551152817611714,0.0732184867934934,0.2692932012359664,0.4648618155876017,0.6505619327757545,0.7905422127778629,0.8470403216671432,0.8103546100685984,0.6971816274854894,0.5427750868737267,0.3866661017696926,0.2537239585694205,0.14254333026838692,0.02077934730084866,-0.21976720033792607,-0.3629710744893104,-0.2821823884041373,-0.23809029542804472,-0.21787013694194132,-0.21154181151135243,-0.21728314470396295,-0.24103216159618213,-0.28882085847968975,-0.36248087507988297,-0.45256534380832497,-0.5365487828224104,-0.5798425972238516,-0.5654711900072693,-0.5149255493160455,-0.4646824582905394,-0.4310968866746487,-0.416340137326159,-0.40734942762961357,-0.38438197906589355,-0.33429089153354036,-0.26144102781835504,-0.18763878133672215,-0.14105793866346789,-0.13627299686878516,-0.16784275626250386,-0.22156208386391563,-0.2836584662979032,-0.33795033766558086,-0.3706891131915089,-0.3687941003234861,-0.32657092324218107,-0.2658155564620352,-0.21902397218804695,-0.22360991104648906,-0.27740953008406694,-0.31312327334081413,-0.3151030537612124,-0.3228954595250987,-0.34643383337050404,-0.3867641726470771,-0.43218800374554733,-0.4071345356699534,-0.1730137916920464,0.10115122245962767,0.3066830008097843,0.4676648476267343,0.587419854543176,0.6527063190333833,0.6750016816230958,0.6679203766668663,0.6426507666446177,0.6144913915901721,0.5965724444678745,0.5998722471657343,0.6223629613058503,0.6503564552723132,0.6552212287322996,0.6156408759028217,0.5338840632853268,0.4259435011957539,0.3016373761413347,0.1861705740902142,0.10683599958338591,0.06788675719817341,0.06029662860475879,0.08275575961309688,0.1411777459965167,0.15917785053031777,0.14991020464550245,0.15291887495415918,0.17395545872875612,0.21568431216461256,0.27303359110927083,0.3143824834948345,0.3279115690134842,0.34298599632602045,0.3692778071403549,0.440020883932999,0.5203195588382318,0.4328105385452401,0.3067447822514472,0.24397915533233894,0.22780819855285658,0.26869098503179106,0.4748962886111106,0.5774884864240295,0.2759682731730999,0.2110946722275239,0.22037377630834898,0.2833518215995009,0.4206356142278161,0.6781448768631617,0.7812332104184603,0.548996388816889,0.4030302171164418,0.3186271222828847,0.2431693647492839,0.16559924729905323,0.09934705410175448,0.03879767053447026,-0.007922803082256527,-0.018015804540418658,-0.007695708407945524,0.03938011432601088,0.1383060305787534,0.18642811740184884,0.21185239112982354,0.2386389077435632,0.2170628057250735,0.17034769585158158,0.12977628407666206,0.09200997648022739,0.047252647315571564,-0.020234202412710855,-0.11766450848980937,-0.2049568135110977,-0.2556524824531004,-0.296410971711882,-0.3573640687480007,-0.45930886567812834,-0.6112839853012222,-0.7801996983237285,-0.8396220442366085,-0.7363827332889904,-0.6066235582657664,-0.5170060465787998,-0.46667473154444855,-0.4396910953376407,-0.4233636561547893,-0.41110672430900447,-0.4020022532985189,-0.3925936664675618,-0.319056255744103,-0.18797715016480285,-0.11008932818000898,-0.07397671026369443,-0.05513667215013379,-0.04032135103308718,-0.01912415689945964,0.014341583240717624,0.0600145659330178,0.13064046526916648,0.2530643165104438,0.4270770455899103,0.5781474387707214,0.6891376851263177,0.8058881186085568
