-0.002951604529536748,-0.003623637624433565,-0.004236951280543247,-0.004452260720515742,-0.0042565252319866805,-0.0038519986467146715,-0.003264784934497993,-0.002488358102887075,-0.0013335042273066244,0.00015410356182892564,0.0014068260271140152,0.0019222691208254739,0.0011784650048329087,-0.0007397661330024861,-0.0032908828654383587,-0.005724559512528376,-0.00758406879603347,-0.008693249984049068,-0.009365282273764831,-0.009932922839719131,-0.01087898642373769,-0.012405742558609687,-0.014408791468763112,-0.01646404026670254,-0.01786683072636964,-0.01774286102525947,-0.015074301791934579,-0.009267412516547663,-0.0011051436076160452,0.007213717718044095,0.013170676638434185,0.015043233880933142,0.012563888169593017,0.006822242715080698,-0.0004135361586852666,-0.007303507483375831,-0.012529712259719857,-0.015413580933017245,-0.01578548198453721,-0.013886824798145247,-0.010533185316110728,-0.006527083469898606,-0.0027428170561085473,-8.07819230577458e-05,0.0011719406227454492,0.0013024322903999151,0.0008196123148973364,0.00027807088765498467,0.0002193495164333168,0.0008130879328098769,0.0017200064320752606,0.002516007617720139,0.0031684667611735235,0.003625188805735736,0.0035795165207614093,0.002516007617720139,0.00029112005442043123,-0.0026840960069593016,-0.005704981535179668,-0.0080864615152079,-0.009339182329871827,-0.008993381222244867,-0.007407903233042569,-0.005496198087656743,-0.004315243060411707,-0.004563178436726774,-0.006207378280259373,-0.008373544794409835,-0.009698035422397928,-0.0091042989384559,-0.00618780432881594,-0.0010790452740851522,0.005576043866961066,0.013072806881217017,0.020700061563127436,0.02774010575354539,0.03353395109584372,0.037840192232062184,0.04076321686005699,0.0425509603561432,0.043594877593757825,0.04432565991914081,0.04474322681418666,0.04443005164290227,0.042740177904033234,0.03932779643814204,0.034199461419015184,0.027798827607875692,0.021293802072974734,0.015839235871759078,0.012518214274256582,0.012022347547531722,0.014495167266422276,0.018651338757637574,0.0218483906540299,0.021646129173051268,0.01671352964245347,0.00765086661634393,-0.0031473420310184465,-0.01262757799103175,-0.018591058877966134,-0.020254828647036895,-0.01832355357611291,-0.014487087274536846,-0.010572333218997594,-0.0078059042284555355,-0.00674891890232067,-0.007153441864277932,-0.008497510469614732,-0.01023305407791493,-0.011857675944098822,-0.012927713255132825,-0.013116922751212316,-0.01249056435683299,-0.01177938416423036,-0.011831580026111092,-0.013169122638998323,-0.015335285127243511,-0.017194794410748605,-0.017834204790027067,-0.016770697497347907,-0.014128234182010745,-0.010396167656006693,-0.00624652618314624,-0.002488358102887075,0.00011495598101448042,0.0006238744108251103,-0.0015683900342657175,-0.006409639761238004,-0.012738495707242782,-0.018604110862865276,-0.021931650401006794,-0.021664145099153563,-0.01810171411778557,-0.01262757799103175,-0.007094724035852906,-0.0031734403645493395,-0.0018619964877835296,-0.00291898100873734,-0.00505252319690734,-0.006624953227115774,-0.0064553136565744405,-0.004217377329099813,-0.0005570773956957065,0.003449024450516416,0.006548207394872627,0.008048863585851622,0.00806191557075076,0.007265913579924827,0.006626503200646362,0.006796142771187695,0.00759214476201363,0.008316372913610122,0.008544734338481758,0.008094537481188059,0.007004930244615895,0.005615191769847934,0.004173253407293965,0.0028030896891504914,0.001550367264124455,0.0005129562920235507,-0.00017865087509385887,-0.0004331101101287002,-0.0002504214533400261,0.000284595471037708,0.0008000387660444303,0.0006825958625648836,-0.0004853067771904865,-0.0026906203890467613,-0.005483146102757605,-0.008308296947629966,-0.01093770827806799,-0.013306136273197084,-0.015413580933017245,-0.016979484970776112,-0.017286138175516202,-0.015674564268326176,-0.012210007070080625,-0.0078059042284555355,-0.003440948887126786,0.00027154626401320865,0.0031097457120242778,0.005510796020181196,0.008101063473637628,0.01085444047928055,0.013014085026886715,0.013992774547247847,0.01369916930150162,0.012439922494388122,0.010665230983201057,0.00871437390902309,0.006672177095982799,0.004616928298043369,0.0025616799026944664,0.0006825958625648836,-0.0009159300856312787,-0.0026188497705415415,-0.0053526544351031385,-0.009639313568067626,-0.01525046735492548,-0.021161752379979137,-0.026153065713096682,-0.029571953041911073,-0.0314184143664223,-0.03182946332082913,-0.030609364416602503,-0.027164377143895115,-0.02101168676088123,-0.011857675944098822,0.0006369235775905569,0.016113267166061873,0.033051128302207446,0.04867754274345352,0.05973026308339646,0.0637559268033362,0.0605262650742224,0.051665811192322914,0.04009118054443595,0.028842764975016692,0.019995407362974373,0.014234183931113345,0.01106975394515832,0.009347258295851986,0.00820545519739909,0.007207191725594526,0.00636551986533743,0.005758731396496264,0.005256338677321834,0.00460387631314423,0.0038926973283131823,0.0031880407126169573,0.0022289251436992596,0.0011654158380674622,0.0005194810767015376,0.001041448552500456,0.0028748603076557116,0.005425978247863167,0.007683488526781228,0.00880571767379069,0.008486012484151456,0.007154995863713795,0.0054912220687377625,0.0039318448286095225,0.0026921715703489323,0.0019679414057998004,0.0018961707872945806,0.002516007617720139,0.0037622056606587168,0.005184568863997669,0.005908797015594163,0.005138894968661233,0.0027508930220887053,-0.0004135361586852666,-0.0031669159824618803,-0.004641474242500509,-0.004452260720515742,-0.0029842272451551005,-0.0010986188229380584,0.00031721846846942994,0.0005260054587889972,-0.0008050119668297189,-0.003643211173286472,-0.007525346941703171,-0.011551022739358726,-0.014793744505182213,-0.016979484970776112,-0.018180009923559302,-0.0186628286912903,-0.018414897340880507,-0.01733181207085264,-0.01545925482835368,-0.013032104978894288,-0.010755020748532794,-0.00930003442698496,-0.008921607383015426,-0.009437052087088995,-0.010363545745569394,-0.011153021743945758,-0.011244365508713359,-0.010226528085465359,-0.0078189521874494,-0.004387016899641146,-0.0009289792523967253,0.0013024322903999151,0.0016808593343694482,0.0005129562920235507,-0.0012943567270102844,-0.002638423721984975,-0.0029842272451551005,-0.002436161033234762,-0.0013269798452191647,-8.730650644046908e-05,0.0007282681475392105,0.0010023010522041162,0.001041448552500456,0.0011327931224491094,0.0013154814571653614,0.0013285310265213355,0.0010544977192659024,0.0006369235775905569,0.0001345297311626503,-0.0007071430147936059,-0.0019337671062887494,-0.003630162006521025,-0.005841999195283705,-0.00823000114185623,-0.009893774936832264,-0.010082988458817029,-0.008464888559177434,-0.005189540857011375,-0.000883307370012926,0.0037817792095116228,0.008322898906059693,0.012433396501938553,0.015760940065985343,0.018135894053564004,0.019538684513231104,0.020099799086735835,0.020197668843953003,0.020517374033592235,0.021600459303620107,0.023368620796452327,0.025234656072406988,0.02654610276730649,0.02685928599040143,0.02626554548055413,0.02482361114390543,0.022670492588748835,0.020054125191399402,0.01690274719034351,0.012583462121036452,0.006730894924407825,-0.00015907708468663627,-0.006624953227115774,-0.010624529080878327,-0.010833316554306527,-0.007303507483375831,-0.0014444227486987114,0.004590828354150366,0.00855778229747562,0.008929687374900859,0.005536895964074199,-0.00031566740794441723,-0.006305248037476541,-0.010343971794125962,-0.011590170642245594,-0.010474463461780428,-0.008203905223868503,-0.006155182418378641,-0.0052678366627851095,-0.005855051180182843,-0.007544920893146604,-0.009671935478504924,-0.011714136317450491,-0.013775911107839491,-0.016287878729616914,-0.0194131567867798,-0.022942965857710496,-0.026316179291188447,-0.02871722919675484,-0.029069560322736644,-0.02668808034270841,-0.021820732684795757,-0.01609213921518258,-0.011394431127811258,-0.00894770732690843,-0.009045577084125598,-0.011309609329587956,-0.014650204878533883,-0.017853778741470504,-0.019850305685079634,-0.0201895848261623,-0.019047781727709403,-0.017103450645981007,-0.014643678886084316,-0.011466200941135422,-0.0069577063757488705,-0.0006875694659406998,0.007246339628481394,0.017007138914104977,0.028842764975016692,0.04251178829782468,0.056670212743487075,0.06869506843000465,0.07519356394655077,0.07408438678444045,0.06569375604804667,0.052722812622078875,0.03898199533051508,0.02769443588411423,0.020406456317381205,0.016622185877685873,0.014495167266422276,0.012211557043611213,0.009047131083561461,0.005288960587759131,0.0017722035017275744,-0.0008376350850385992,-0.0026840960069593016,-0.004289147142423978,-0.006050786668711904,-0.008008165709434167,-0.009684987463404062,-0.010454889510336993,-0.009802431172064665,-0.007740656381675665,-0.004889409618815576,-0.0024165874843818554,-0.0013204550605411776,-0.002018586891559416,-0.004295669108968273,-0.0072252157035073705,-0.009756757276728228,-0.010983382173404426,-0.010676724942759059,-0.009136920848893197,-0.007075150084409472,-0.005665837658198077,-0.005985542847837308,-0.00832134490662383,-0.012196959111086762,-0.016672827740130743,-0.02030050254237333,-0.021899028490569492,-0.021129130469541835,-0.01876722444095704,-0.015942073596084676,-0.013397480037964682,-0.011387905135361689,-0.009730661358740499,-0.0079690178065473,-0.0059463949449504415,-0.004054259725102775,-0.0026318989373069874,-0.0019207179395233029,-0.002116455843595529,-0.0030298995301294273,-0.004582752388170208,-0.006377017850800706,-0.007173019841626639,-0.005718033520078808,-0.001209536941739618,0.0066786990625270935,0.01726159625696434,0.0279749931708666,0.034623558332415885,0.033547003080742856,0.02391669143686847,0.008133685384074926,-0.009750235310183934,-0.025957326198662346,-0.03818441921072692,-0.04515922360617555,-0.04618357494415729,-0.041414084965745994,-0.0315097581311899,-0.017233942313635474,-4.815896588507658e-05,0.017666123244826873,0.03325991980154092,0.044175574170516534,0.04907554373886648,0.04811645232538044,0.04292939545192328,0.03564792174811345,0.028092436879527196,0.021593933311170536,0.016811399399670638,0.014110218255908448,0.013425133981293547,0.014397297509205109,0.016693959716915313,0.0197539939532036,0.022846658151739738,0.02529990391918686,0.026898433893288293,0.027570466183004058,0.027661813973676935,0.028079384894628058,0.029306009791304256,0.030421716971769423,0.02935820565318499,0.024118952917847096,0.014240709923562914,0.001211088123041789,-0.011890297854536117,-0.02199689824778666,-0.02746450838209091,-0.028358376104228738,-0.02627050539585201,-0.023308340916780888,-0.021044308671318533,-0.02009171506894513,-0.020757225392116597,-0.023125653387245693,-0.026785950099925578,-0.031085661217789207,-0.035189628795313226,-0.038497598407916576,-0.040702908799048636,-0.04179904202807036,-0.041988259575960404,-0.04131621520852882,-0.039437140025390845,-0.035541959921295024,-0.028508441723326637,-0.01698601096322568,0.0002454478902232627,0.022161573877124835,0.04412992040470647,0.06038922325868672,0.06721397813865855,0.0642909293552321,0.054308294637186456,0.04154617491779434,0.029945420170582722,0.02173095097127457,0.016922321141786944,0.013907952749024543,0.010743522763069517,0.0061763063433526635,0.00025849705698870927,-0.0060377387097180395,-0.011459678974591127,-0.015165645556702178,-0.01703168083265684,-0.017514499600387836,-0.017449255779513242,-0.017618895350054575,-0.018480141161755104,-0.019778535871755466,-0.02097906082453866,-0.02176853682291503,-0.02222525967265829,-0.02255801282129139,-0.02262326066807126,-0.021833780643789623,-0.01952407450299083,-0.015622368406445444,-0.010852890505749961,-0.006527083469898606,-0.0037476049100005717,-0.0025601283188017676,-0.0021686525106573156,-0.00178370148719085,-0.0012030125596521584,-0.00035481498875886245,0.0007804648146009967,0.002111482240219713,0.0035599429719085033,0.004747419965697834,0.005191090830541963,0.0048061418200281356,0.003847025043338856,0.002783515737707058,0.0021832532613154606,0.0023855155474751463,0.0031815159279389702,0.0038405002586608685,0.0036839102574755095,0.002555155118016479,0.0011001700042402292,0.00015410356182892564,0.00036941521604932177,0.0017656787170495874,0.003938369613287509,0.006398141775774729,0.00862955613670506,0.009967098749592292,0.009601719664616622,0.006920112472297867,0.0020723347399233733,-0.0039824903143691375,-0.009835053082501963,-0.01416086011835332,-0.016248730826730045,-0.016294400696161206,-0.015165645556702178,-0.013906398749588681,-0.013410532022863821,-0.014049942402142284,-0.015374433030130379,-0.016346600583947213,-0.01605299131229571,-0.01400426850680585,-0.009998166660593727,-0.004497934615852179,0.0017200064320752606,0.007781358283998396,0.012903167310675683,0.016524316120468705,0.01850779510508397,0.0193364190063472,0.019714850076222007,0.020386878340032496,0.02192668645980363,0.02428206649593886,0.026878859941844864,0.029084174358882192,0.030500012777543155,0.030539160680430024,0.02840561607671686,0.023427342650782626,0.015995827483306545,0.008453390573714158,0.004414666817064738,0.00636551986533743,0.014442971404541547,0.026722268330297394,0.04046308562186119,0.05326437739957183,0.06301866277046166,0.0679838922633073,0.06718789027248137,0.06080026818718827,0.04993680565418811,0.03639825386950822,0.022409505227534626,0.009510375899849023,-0.001685832535154737,-0.01109429988961546,-0.018591058877966134,-0.023960799255053216,-0.027294868811549577,-0.029089134274180077,-0.029806836433327,-0.0296567708142291,-0.02820831451103611,-0.024515391862013656,-0.01789292664435737,-0.008765019797373232,0.0008326614816627831,0.008179359279411363,0.011258967467143085,0.009725689365726794,0.0047278460142544014,-0.0016466850348583971,-0.007518820949253601,-0.011909871805979551,-0.01457190907276015,-0.01574633408165034,-0.01574633408165034,-0.014702400740414614,-0.012731973740698488,-0.010187380182578493,-0.007479673046366734,-0.00532003252466584,-0.004289147142423978,-0.004543604485283341,-0.0056854075837362355,-0.0070555761329660375,-0.008008165709434167,-0.008223479175311936,-0.007694986512244504,-0.006820688715644834,-0.006305248037476541,-0.006912032480412434,-0.008628002137269199,-0.010872464457193394,-0.012855939415903387,-0.013984694555362415,-0.014017320491704989,-0.013149548687554889,-0.011674988414563622,-0.009815479131058529,-0.008119083425645199,-0.00710777199484677,-0.007062098099510333,-0.007923347937116137,-0.00909777294600633,-0.009900300929281833,-0.01023305407791493,-0.010513611364667295,-0.01142053107170426,-0.013214792508429484,-0.015648468350338448,-0.017997322394024108,-0.019478404633559668,-0.019595848342220272,-0.018160435972115873,-0.015054727840491144,-0.010755020748532794,-0.006083412605054476,-0.00171193086868563,0.00215063014310658,0.005452074165850896,0.008114111432631493,0.010012768619023454,0.010893588382167417,0.01055430924108475,0.009060179042555325,0.007031030188508898,0.005275912628765267,0.004355944962734437,0.0046365022494868026,0.006032766716704334,0.007898801992658997,0.009425554101625721,0.01005844251435989,0.009575619720723618,0.00815978532796793,0.006482963573998032,0.0053998783039701645,0.005478174109743898,0.006763520860750397,0.008623030144255492,0.010678278942194922,0.012687853844797915,0.014390775542660815,0.015402086973459244,0.015565200551551006,0.014912742213278679,0.01359477355183488,0.011820082040647818,0.009712637380827656,0.007461653094359163,0.005308534539202566,0.003664336306032076,0.002757417404176165,0.0025421059512510326,0.0026986959524363916,0.002607351785078266,0.0017395803835186941,-0.0001068802968476917,-0.002990752029833087,-0.006487935567011738,-0.009698035422397928,-0.011257413467707223,-0.010043840555930163,-0.00562016376286164,0.0011262683377711224,0.008342472857503126,0.014090644304465015,0.016778777489233343,0.01604149735273771,0.012661757926810185,0.007663914575337795,0.0022550238798206804,-0.002331767699111189,-0.005293932580772838,-0.006514031484999467,-0.006220426239253238,-0.004491408623402609,-0.0016662585837113034,0.0014459735274103551,0.003847025043338856,0.0047278460142544014,0.0033185327828619505,-0.0002634706201054727,-0.005085149133249912,-0.009547969803300029,-0.012210007070080625,-0.012059941450982726,-0.008360492809510697,-0.0016793081530672774,0.0059153230080437325,0.011944051741757986,0.014619136967532448,0.013836182935700379,0.010599983136421187,0.006026240724254764,0.0012567604080161157,-0.002840686410735188,-0.0057702293819595395,-0.0071273459462902035,-0.0067097709994338025,-0.00463494825005094,-0.0013465537966625984,0.0022680726439955994,0.005230238733428831,0.006730894924407825,0.0064242417196677315,0.004264601197966838,0.0007347925296266701,-0.0033300307683252262,-0.0066184272346662045,-0.0079690178065473,-0.006651049145103503,-0.002638423721984975,0.003122794878789724,0.009477753989411725,0.015434708883896541,0.020080225135292406,0.0228336061668406,0.023564364336791935,0.022553048880088234,0.020328160511607473,0.01747038775629781,0.014606089008538584,0.012446444460932416,0.011676542413999487,0.012231130995054646,0.013372938119412816,0.014299431777893216,0.014155888125339612,0.012511688281807013,0.009445128053069154,0.005673913624178234,0.0022941709775264924,0.00042813650675288414,0.0006108252440596637,0.002346368047178806,0.0043885668731717346,0.005347682442089432,0.004081909642526367,0.0001345297311626503,-0.006174756369822075,-0.013632367455285885,-0.02106388262276197,-0.027581952090751514,-0.03242972579722073,-0.034719857986576085,-0.034308809032169256,-0.0319338550445906,-0.028704181237760973,-0.025507129341368652,-0.022799422205156888,-0.020326602486266332,-0.017455781771962813,-0.013743285171496917,-0.009463152030981999,-0.005235214752347812,-0.0017706523204254034,0.0007086941960957769,0.002587778236225359,0.004316797059847569,0.006039288683248629,0.0077748322915488265,0.009347258295851986,0.010606509128870754,0.01143513303013399,0.012087591368406316,0.012720475755235213,0.013353364167969383,0.013307690272632946,0.011409033086240986,0.006802668763637265,0.0003955135898392676,-0.005287410614228543,-0.007375281322605271,-0.003623637624433565,0.00666565110353323,0.021469963610060365,0.03637867991806479,0.04691592737259724,0.05049141436476964,0.047189930485563115,0.039086391080181825,0.029168992131200222,0.01980618981508433,0.012211557043611213,0.006496011532991897,0.00230069576220448,-0.0007332413483244991,-0.0031734403645493395,-0.005887673090620141,-0.009691513455853633,-0.015002531978610413,-0.021481453543713093,-0.02803867494049478,-0.03319962784415366,-0.036063922566007614,-0.036272710039435815,-0.03440667878938643,-0.031764215474049264,-0.029578475008455368,-0.02849539376433277,-0.028775951051085137,-0.030061293776186365,-0.031255296762425264,-0.031320544609205136,-0.029115230192167805,-0.023269193013894022,-0.012621056024487456,0.0030510242602845043,0.021293802072974734,0.03689412059623308,0.044978098127886765,0.04364709358516493,0.034519166608654415,0.021626555221607835,0.009249392564540092,0.0002454478902232627,-0.004302195101417843,-0.004869835667372143,-0.002638423721984975,0.001139317504536569,0.005517322012630766,0.009934472813249719,0.014240709923562914,0.018436025291759806,0.022318161462767033,0.025332525829624156,0.026422137092101596,0.024680071517257103,0.020119373038179268,0.013575199600391448,0.006476437581548462,0.0003367922588766525,-0.003930293647307351,-0.006168230377372506,-0.006853314651987408,-0.00674891890232067,-0.0067945927976571065,-0.0076362646579142025,-0.00951534789286273,-0.012059941450982726,-0.014930762165286248,-0.01801037035301797,-0.020894239026315358,-0.02283204411559419,-0.023197423200569858,-0.021735914912477727,-0.018838994254281205,-0.015615842413995877,-0.013019057019900424,-0.011368331183918255,-0.010539707282655023,-0.010135184320697762,-0.009795905179615096,-0.009417478135645562,-0.008941181334458861,-0.008314822940079535,-0.007440525143479866,-0.0061943303212655095,-0.00463494825005094,-0.0031016697460441198,-0.0018619964877835296,-0.0011508158925903722,-0.000974651537371052,-0.0013269798452191647,-0.0018228489874871899,-0.0019207179395233029,-0.0013922256790463976,-0.0004592084436595934,0.00046728400704922383,0.0008848581487245694,0.0007543664810701036,0.0006630223137119775,0.0012698095747815622,0.002757417404176165,0.004995355342012902,0.007722636429668094,0.01055430924108475,0.013111954784103885,0.014977990060058548,0.015617400439337013,0.014658284870419315,0.012479066371369715,0.010064964480904184,0.008303324954616258,0.0074420791429157295,0.007004930244615895,0.006313324003456699,0.005119321017217798,0.0037230581603623766,0.0024442369992149194,0.0014263999785574487,0.0004607596249617643,-0.0003874379459315317,-0.0004265857280412406,0.0011523666713020156,0.004486436630388903,0.009203718669203656,0.014690906780856612,0.020478226130705372,0.026356889245321723,0.032476965769708856,0.039066817128738385,0.045669708394951235,0.05106554871593132,0.05406690135694205,0.05380590191801203,0.0502630247585611,0.04447570540871234,0.038192515306233445,0.03248349176215842,0.027720531802101957,0.023714429955889838,0.020034551239955966,0.01615894106139831,0.011748312227323652,0.006378567824331295,-0.0007201921815590525,-0.009991644694049432,-0.020535385933789257,-0.030191785443840827,-0.03650107146430745,-0.03800172765528645,-0.03494821538554245,-0.02925877384472141,-0.02295601381670436,-0.017344860029846504,-0.012542760218713723,-0.007982065765541163,-0.002925505793415327,0.0028683359255682523,0.008727421868016954,0.013359886134513678,0.015447760868795679,0.014031922450134715,0.009001457188225025,0.001354629360052229,-0.007186067800620504,-0.014669778829977316,-0.01952407450299083,-0.020887717059771067,-0.01897601191438524,-0.015270041306368914,-0.011746758227887788,-0.009763283269177797,-0.009561017762293893,-0.010363545745569394,-0.011022530076291295,-0.010467937469330857,-0.008197379231418934,-0.0045958043730693465,-0.0005244546800773537,0.002927056974717498,0.004956207439126035,0.005425978247863167,0.004721320021804832,0.0035925660901173833,0.0024181386656840264,0.0012698095747815622,-9.383113008224511e-05,-0.0017249800354510766,-0.003545342623840886,-0.005254784677885971,-0.0061160345154917745,-0.005633211721855503,-0.004126033564332215,-0.002860259959588094,-0.0031277684821655405,-0.00496117943213974,-0.0073818032891495656,-0.009228264613660796,-0.009743709317734365,-0.008484462510620868,-0.005639737714305073,-0.0018946196059924098,0.0017200064320752606,0.0044603366864959,0.005987092821367898,0.006071914619591201,0.004858337681908867,0.0028748603076557116,0.0007152189807737637,-0.0012225861085050646,-0.002840686410735188,-0.004452260720515742,-0.006422687720231868,-0.009319608378428395,-0.013534497698068717,-0.018538863016085406,-0.023034309622478093,-0.025487555389925216,-0.025252671998509287,-0.02301473567103466,-0.020705029530235865,-0.020209158777605735,-0.021957750344899794,-0.024946014767863917,-0.027157851151445544,-0.02664241047327725,-0.02193817639345636,-0.013188692564536482,-0.0026906203890467613,0.0065808333312152,0.012335526744721385,0.01353605169750458,0.01053473931554659,0.00466259816747453,-0.002233898747075076,-0.00832134490662383,-0.011988167611753286,-0.012314398793842088,-0.008765019797373232,-0.0010007498709019454,0.010874018456629256,0.026095905910012797,0.04263578618027177,0.05759669432425165,0.06808828398706877,0.07217268566495989,0.06945846058810912,0.06117218131642406,0.04928436744544215,0.03581756534456006,0.022553048880088234,0.011089327896601752,0.002320269713647913,-0.003564916172693792,-0.007029476189073036,-0.008556232323945033,-0.008458362566727865,-0.0071208199538406345,-0.004974227391133606,-0.002657997270837881,-0.0007397661330024861,0.0002258740998160401,-0.00017865087509385887,-0.0019076687727578561,-0.004321769052861277,-0.006657575137553071,-0.008425740656290566,-0.009234790606110365,-0.008810689666804395,-0.007075150084409472,-0.004615374298607506,-0.0021817016774227623,-0.0004526840615721338,0.00027154626401320865,0.00010190677398998108,-0.0005244546800773537,-0.0012552092267139447,-0.0017510783689819699,-0.0018750460571395036,-0.0015096685825259442,-0.0008572090364820328,-0.0004135361586852666,-0.0005505530136082469,-0.0012682583934793914,-0.0024165874843818554,-0.0034148505535958927,-0.0034474732692142455,-0.00214255457971695,0.000284595471037708,0.0030444998781970446,0.005354208434539001,0.007096274009383494,0.00859693020036249,0.010241130043895088,0.012205035077066918,0.014410349494104248,0.01671352964245347,0.018546943007970836,0.019153731476812003,0.017868384725805507,0.014560415113202146,0.009888802943818558,0.004943155454226896,0.00042161212466542455,-0.0034083257689179053,-0.006429213712681438,-0.008504036462064301,-0.009717609373841361,-0.010578855185541889,-0.011661940455569758,-0.013169122638998323,-0.01483289240806908,-0.016274826744717776,-0.017162172500311306,-0.017344860029846504,-0.017090402686987142,-0.01682941935167821,-0.01671850163546718,-0.016183482979950176,-0.014447943397555252,-0.01085941649819953,-0.005581015859974772,2.361161236109061e-05,0.004323319026391865,0.006195880294796097,0.00573915744505283,0.0037883035915990825,0.0014524983120883417,-0.000641897180966373,-0.002383964366172975,-0.004119507571882645,-0.0061160345154917745,-0.008262627078198803,-0.010115610369254327,-0.011329183281031387,-0.012027315514640152,-0.012399216566160116,-0.012647151942475184,-0.01278416960257922,-0.012594956080594454,-0.012053415458533156,-0.010924660319074127,-0.009202168695673066,-0.0072121637186082325,-0.005280884621778973,-0.0035975388883121447,-0.002162128128569856,-0.0007658644665333792,0.0007086941960957769,0.002705221139704906,0.005895749056600299,0.010528213323097021,0.016485172243487112,0.02351216444900593,0.031119849205378188,0.038577472368557825,0.04484761853794812,0.048821106525533495,0.04970193434048801,0.04766623533856036,0.04396026875644932,0.03988239307100775,0.036143792500743586,0.032757523056461214,0.029201614041637517,0.024901902923773894,0.019662654214341276,0.013823134976706515,0.008101063473637628,0.0028748603076557116,-0.0018750460571395036,-0.006298722045026971,-0.010330923835132096,-0.013867254872607088,-0.016992532929769974,-0.020013423289076668,-0.02264935658605899,-0.024189164705830126,-0.023862929497836048,-0.021076930581755828,-0.015681090260775746,-0.008367018801960266,-0.0005114051107213797,0.006345945913893997,0.011011032090828017,0.012850971448794954,0.01196362569320142,0.009536471817836753,0.00723329166948753,0.006117584489022364,0.006469911589098894,0.007918371918197156,0.009529949851292458,0.009940998805699288,0.00829679896216669,0.004597354346599935,-0.0001264540872549143,-0.004530556526289476,-0.0078124261949998304,-0.009959018757706859,-0.011537970754459587,-0.013280040355209355,-0.015563646552115144,-0.01796470048358681,-0.01994164944984723,-0.020966008839639522,-0.020763747358660895,-0.019302239070568765,-0.016953385026883108,-0.014304399745001648,-0.011838101992655387,-0.009567543754743462,-0.008053839604770604,-0.007910295952217,-0.009626265609073762,-0.012882039359796389,-0.01671197564301761,-0.020078667109951265,-0.02214043787443499,-0.02238184725830049,-0.02065935563489943,-0.01742968182806981,-0.013599745544848586,-0.010069940499823165,-0.007296985516831536,-0.005548393949537475,-0.005019901286470042,-0.0056984595686353735,-0.0071338719387397725,-0.008471410525721729,-0.008634528129718768,-0.007146919897733637,-0.0038585234313926586,0.001047973337178443,0.006626503200646362,0.01157867265678232,0.014775724553174644,0.015930579636526675,0.015349891111578511,0.013875330838587245,0.012329000752271814,0.011167623702375487,0.010697852893638355,0.01104365802717059,0.01211369131229932,0.013255494410752213,0.01384270892814995,0.013960152636810549,0.014456019363535409,0.016224184882272907,0.019023239809157537,0.021561311400733238,0.022637866652406264,0.021874490597922902,0.019643076236992567,0.016850547302557507,0.014319005729336651,0.012244182979953786,0.010515165364103157,0.00937335823974499,0.009301588426420824,0.01092621431850999,0.014351627639773946,0.018592616903307272,0.022050652135008533,0.02310764148704867,0.02100019280132323,0.016387302486269944,0.010684804934644491,0.005295486580208701,0.0007152189807737637,-0.0032908828654383587,-0.006820688715644834,-0.0093718082662144,-0.009991644694049432,-0.008210427190412798,-0.004400064858635011,0.0002193495164333168,0.004062335691082933,0.005974044862374033,0.0055629959079672026,0.003116270496702265,-0.0006223232295229394,-0.004661048193943943,-0.008079935522758331,-0.010552755241648887,-0.012484038364383422,-0.014539287162322851,-0.017090402686987142,-0.019778535871755466,-0.021703293002040432,-0.022257881583095593,-0.021364013860957765,-0.019354438958354772,-0.016581483975363142,-0.013404006030414252,-0.010252628029358363,-0.00758406879603347,-0.005920295001057438,-0.0052613106703355405,-0.0051960668494609435,-0.005091671099794207,-0.004478360664408745,-0.0032908828654383587,-0.0016988817019201836,1.0562421440212377e-05,0.0016482358135700408,0.0032206642334163646,0.0048191897790219995,0.006574307338765631,0.00836857280139613,0.010012768619023454,0.011343789265366389,0.012041917473069881,0.012061491424513316,0.011826608033097385,0.012087591368406316,0.013379460085957112,0.015225921410468342,0.01693536910078081,0.017907532628692373,0.017587827439053138,0.015747892106991478,0.012576936128586883,0.008694799957579656,0.004917059536239167,0.0016547605982480276,-0.001046422155876272,-0.0034670472206576788,-0.00618780432881594,-0.009632791601523331,-0.013619315470386747,-0.01759932139861114,-0.020992108783532526,-0.023184375241575992,-0.02375201580753029,-0.022460143064074223,-0.019158699443920436,-0.013939024685931252,-0.0069642323681984395,0.001954892239034354,0.012707427796241347,0.0247126934276944,0.03637867991806479,0.045330445357489674,0.049773675972475256,0.04946050080119086,0.04559140453736695,0.039712749474561146,0.03289454071656525,0.025678334989061666,0.01826638572121847,0.010900114374616986,0.0039644679468184025,-0.002025111676237403,-0.006592327290773201,-0.00951534789286273,-0.010970330188505288,-0.011733710268893924,-0.012516660274820719,-0.01335181016853352,-0.013619315470386747,-0.012327446752835952,-0.009110820905000193,-0.004576230421625913,-3.510975483467198e-05,0.0031554179969986045,0.004055813724538638,0.002450761381302379,-0.001144291107912385,-0.005665837658198077,-0.010082988458817029,-0.013743285171496917,-0.016163909028506743,-0.01739705991763251,-0.01821915782644617,-0.019661092163094866,-0.022244829598196455,-0.025370111681264615,-0.02779073956417971,-0.02829313228335414,-0.026355327194075313,-0.022283981526988596,-0.01724046830608504,-0.012601482073044021,-0.009482725982425432,-0.008243049100850096,-0.008536658372501598,-0.00957406974719303,-0.010604955129434893,-0.011087773897165889,-0.010552755241648887,-0.008921607383015426,-0.0066967230404399395,-0.004510982574846043,-0.0027297678893431006,-0.0012617340113919317,0.00015410356182892564,0.001778727883815034,0.0033446311163928435,0.0040427617396395,0.0031358440455551704,0.0005455794102324308,-0.002860259959588094,-0.005802851292396837,-0.0071338719387397725,-0.005724559512528376,-0.000713667799471593,0.007559522851576331,0.017503009666735108,0.027302956855245558,0.035850187254997355,0.04225735108449169,0.04543483708125113,0.04488675033721389,0.04118078375510285,0.035484808170021684,0.028784043120686394,0.0218483906540299,0.015252021354361345,0.008910113423457426,0.002496433666276706,-0.003591014506224685,-0.008249575093299665,-0.010454889510336993,-0.009835053082501963,-0.007029476189073036,-0.003003801196598534,0.0012698095747815622,0.004766993917141268,0.006476437581548462,0.0060849625785850655,0.003957943162140415,0.0008522354331062166,-0.0022469479138405224,-0.004615374298607506,-0.0057767553744091085,-0.005548393949537475,-0.0044261648025280135,-0.0030625222457477796,-0.001985963773350536,-0.0016010127498840704,-0.002109931058917542,-0.0033496047197686596,-0.0047523919587115415,-0.005659311665748507,-0.005848525187733274,-0.00547009814376374,-0.0045892783806197775,-0.0034344241024487987,-0.002090357510064636,-0.0005570773956957065,0.0011001700042402292,0.002790040522385045,0.004499484589382767,0.006411189734768593,0.008407716678377721,0.010097590417246758,0.011167623702375487,0.011565624697788452,0.011298115370029954,0.010476017461216292,0.009034079098662322,0.007168043822707659,0.005556469915517633,0.0044668626789454696,0.0037817792095116228,0.0028813850923336986,0.0012763343594595492,-0.0010072746555799322,-0.003623637624433565,-0.006089934571598772,-0.008099509474201766,-0.009580591713737326,-0.010709350879101631,-0.01140747908680512,-0.011544496746909157,-0.011172595695389193,-0.010513611364667295,-0.009717609373841361,-0.00894770732690843,-0.008060361571314897,-0.006677149088996505,-0.004654522201494373,-0.0019207179395233029,0.0010740716707093362,0.003847025043338856,0.005974044862374033,0.0073507353781481315,0.008238077107836389,0.008916635390001721,0.009464702004512587,0.00969958942183379,0.009660441518946924,0.009164570766316788,0.00793794586964059,0.005634765721291367,0.0021702036919594866,-0.002233898747075076,-0.006990328286186168,-0.011427053038248555,-0.015217845444488181,-0.01855191097507927,-0.02167719305814743,-0.024424048097246055,-0.026113917810209813,-0.025820312564463585,-0.02316480129013256,-0.018545389008534974,-0.012666725893918618,-0.006644527178559207,-0.001216061726417605,0.003325057567539937,0.006639551159640227,0.008583882241368624,0.00963434157505392,0.010841392520286685,0.013438185966192687,0.018214189859337742,0.024836659102899297,0.032105064718188886,0.038349110943686184,0.04200939557865025,0.042022479770791585,0.03817946734723958,0.03128296278346995,0.023368620796452327,0.016693959716915313,0.012733527740134351,0.011506902843458153,0.011141523758482484,0.009268966515983525,0.0046691241599241,-0.0022208495803096293,-0.010265675988352227,-0.0184540412178621,-0.02672070225314571,-0.03502651119131618,-0.04236669467174049,-0.04746240375452477,-0.0494654526646782,-0.04790605851574781,-0.04264069778470636,-0.03351280704134332,-0.019987323345183664,-0.0008050119668297189,0.025234656072406988,0.05633090944697276,0.08637024190988805,0.10781668215543094,0.11547008911800292,0.1086388122714868,0.09061125130294775,0.06681597714324558,0.04253139445651031,0.02161350726261397,0.005967518869924464,-0.0041717034337633765,-0.00984157907495153,-0.012386168607166253,-0.01313649670265575,-0.013156070654099183,-0.01313649670265575,-0.01313649670265575,-0.012901613311239821,-0.012373120648172389,-0.011544496746909157,-0.010467937469330857,-0.00930003442698496,-0.008243049100850096,-0.007427477184486002,-0.006807640756650971,-0.0063704918583511365,-0.006207378280259373,-0.006474887608017874,-0.007420951192036433,-0.009195642703223497,-0.011622792552682892,-0.01451318721842985,-0.01786683072636964,-0.02179463676680803,-0.026179165656989686,-0.030498446700391472,-0.03420441328250252,-0.036488023505313584,-0.03700999017593145,-0.035979104793689584,-0.03381946427198869,-0.03106608726634577,-0.028103918761369376,-0.025076506435518384,-0.02208171602010469,-0.019158699443920436,-0.01649666217713984,-0.01432397369644508,-0.012745021699692351,-0.011551022739358726,-0.010402693648456264,-0.009326134370877964,-0.008471410525721729,-0.007923347937116137,-0.00788420003422927,-0.00838006676095413,-0.008993381222244867,-0.008999903188789161,-0.008047313612321035,-0.006416165753687573,-0.0047523919587115415,-0.0036627851247299052,-0.0035583917906063327,-0.004471834671959176,-0.0059333429600513035,-0.007257837613944669,-0.008406166704847133,-0.009959018757706859,-0.01226872489850565,-0.014963384075723547,-0.017292664167965772,-0.01847361919521081,-0.01792555258069994,-0.015792007976986776,-0.012333972745285523,-0.0080864615152079,-0.003943342814072798,-0.0007658644665333792,0.001145842289214556,0.0021180070248977,0.0028944342590991453,0.004623450264587664,0.008211981189848661,0.014273331834000213,0.023218555177354428,0.03503461131272798,0.04919954162131358,0.06462371068520212,0.07978039860266907,0.09306451719992125,0.10264919118160667,0.10668793909368775,0.1038628003265312,0.09399099878068583,0.07839717806854013,0.05926048019694351,0.03909943903917568,0.02044560422026807,0.005406404296419733,-0.005150392954124508,-0.011381383168817394,-0.01435659560688238,-0.01540053297402338,-0.01557669451110901,-0.01540053297402338,-0.015100401735827582,-0.014460991356549116,-0.013358336160983088,-0.011949019708866419,-0.010546233275104594,-0.009502299933868866,-0.00924783856510423,-0.009913348888275697,-0.011270465452606362,-0.01263410398348132,-0.013103874792218452,-0.012131707238401616,-0.009789379187165527,-0.006781540812757968,-0.004028163807115046,-0.00214255457971695,-0.001353078178750058,-0.0018228489874871899,-0.003669309909407892,-0.0066836710555408,-0.009893774936832264,-0.012405742558609687,-0.013965120603918982,-0.01489814025484895,-0.01569413821976961,-0.016588005941907437,-0.01742968182806981,-0.01793207454724424,-0.017762434976702903,-0.01703820682510641,-0.01626177878572391,-0.016000795450414978,-0.016640205829693444,-0.018088666158791705,-0.020104763027938996,-0.02229702948598246,-0.02407824296371382,-0.024867718962090182,-0.024273982478148156,-0.022257881583095593,-0.01944578272312237,-0.016607583919256146,-0.014017320491704989,-0.011466200941135422,-0.008941181334458861,-0.006781540812757968,-0.005574489867525204,-0.005541867957087905,-0.006344395940363408,-0.007218689711057802,-0.006996854278635737,-0.0047523919587115415,-0.0005179298953993667,0.004858337681908867,0.010130212327684057,0.014058022394027718,0.015813139953771347,0.015728318155548045,0.015010611970495847,0.014893168261835244,0.015878383774645944,0.017666123244826873,0.01925160123402917,0.019917107531295365,0.019355992957790634,0.01761392738294614,0.015101955735263444,0.012524740266706151,0.01086096647173012,0.010756574747968655,0.012165887174180053,0.014364675598767812,0.016622185877685873,0.01835772948598607,0.019310323088359473,0.019297271103460332,0.018259863754674175,0.01627638477005891,0.01389490479003068,0.011891855879877256,0.01057388721843346,0.010130212327684057,0.01041729560688599,0.011180671661369351,0.011813560074103523,0.011526476794901586,0.009608245657066191,0.00558909182595493,-0.00038091336254880833,-0.007512294956804032,-0.014695874747965045,-0.020887717059771067,-0.025454929453582645,-0.027738539676393704,-0.027529756228870782,-0.024828571059203317,-0.0193805348763425,-0.010611477095979188,0.0008457106484282298,0.012811823545908086,0.022859706110733603,0.030056337886793752,0.035530482065358124,0.04142873926094428,0.048547063153514876,0.055561035581376754,0.0598672646398794,0.05917565437281493,0.052383549584617314,0.04006508060054295,0.02447128001792363,0.008766569770903822,-0.004139081523326079,-0.01278416960257922,-0.01733181207085264,-0.019054303694253698,-0.019321813022012198,-0.01876069844850747,-0.01724699429853461,-0.014682826788971181,-0.01136180921737396,-0.008066887563764467,-0.005757181422965675,-0.00496770542458931,-0.00562016376286164,-0.007159967856727501,-0.008928133375464997,-0.01052665932366116,-0.011661940455569758,-0.012177381133738053,-0.012059941450982726,-0.011381383168817394,-0.010467937469330857,-0.009828527090052393,-0.009802431172064665,-0.010239576044459225,-0.010918134326624557,-0.011812006074667657,-0.012979909117013555,-0.01441531746121268,-0.01585072983131708,-0.01674460157936018,-0.01656843601636928,-0.014943810124280112,-0.012255676939511786,-0.009039051091676029,-0.00582242524384027,-0.0031016697460441198,-0.0012225861085050646,-0.00043963489480668724,-0.0009877007041364987,-0.0025601283188017676,-0.004400064858635011,-0.005744129438066537,-0.0058680991391767065,-0.004432686769072308,-0.0015618652495877309,0.0024377122145369324,0.006965782341729028,0.011011032090828017,0.013516477746061146,0.01384270892814995,0.01190490383887112,0.008231555141292094,0.00371653337568439,-0.0008506842518040458,-0.004824161772035707,-0.007407903233042569,-0.008203905223868503,-0.007694986512244504,-0.007401377240592999,-0.008725871894486365,-0.01207298940997659,-0.016437944348714813,-0.019869879636523067,-0.020665877601443727,-0.01804299226345527,-0.012862465408352954,-0.007453577128379006,-0.004347868996754279,-0.004732818007268107,-0.0078189521874494,-0.011603218601239458,-0.013984694555362415,-0.01397164659636855,-0.011896823846985689,-0.008732397886935936,-0.005515772039100177,-0.002801538507848321,-0.0006875694659406998,0.0007869891966884563,0.0016090887158642284,0.001778727883815034,0.0013024322903999151,3.0136207821529724e-05,-0.002025111676237403,-0.004510982574846043,-0.006840262667088269,-0.008438788615284432,-0.008621476144819628,-0.007166493849177071,-0.004465308679509607,-0.001183438608208725,0.0022289251436992596,0.005615191769847934,0.009158048799772493,0.012935789221112982,0.01671352964245347,0.02021071680294687,0.02338819474789576,0.0265656807446552,0.030102011782130192,0.03365139480450432,0.03643739774648981,0.037696648579508586,0.03662008930193029,0.033279493752984356,0.028483907856585323,0.023564364336791935,0.020014977288512533,0.01857956894431341,0.01892537005194037,0.0202629126648276,0.021665703124494704,0.022533474928644798,0.02275531036106686,0.02254652691354394,0.02201150825802694,0.0210393407042101,0.019760519945653168,0.01863829079864371,0.01791405862114194,0.017333370096193776,0.016374254527276078,0.014390775542660815,0.011024080049821881,0.006300272018557561,0.0006043008619722041,-0.005202588816005239,-0.010109088402710032,-0.013632367455285885,-0.01605299131229571,-0.01804299226345527,-0.020326602486266332,-0.023230045111007153,-0.02643362299984905,-0.029056512363742775,-0.03020483742873997,-0.029539331131473775,-0.027431886471653615,-0.024476243959126787,-0.0211421784285357,-0.017638469301498007,-0.014095612271573448,-0.01078764265897009,-0.007988591757990732,-0.005737607471522241,-0.003989014696456597,-0.0023970135329384216,-0.000713667799471593,0.0012241372898072354,0.0032663361158001636,0.00496272940567033,0.005902275049049868,0.005987092821367898,0.005673913624178234,0.0055695178745114975,0.006195880294796097,0.00778788025054269,0.010025820603922592,0.01226375693139722,0.013855756887143814,0.014717002698844342,0.015252021354361345,0.015924053644077108,0.017007138914104977,0.01826638572121847,0.01928422314446647,0.01943428876356437,0.018194615907894306,0.015454282835339974,0.011467754940571284,0.00687443857696143,0.0021049578581322534,-0.0025275052005928876,-0.006892458528969001,-0.010898564401086398,-0.014408791468763112,-0.017201320403198175,-0.01893686401149837,-0.01961541826775843,-0.01943273073822323,-0.019106503582039705,-0.0192304692572446,-0.020248306680492597,-0.022016472199230096,-0.02404562105327652,-0.025950804232118055,-0.02750365628497778,-0.02871722919675484,-0.029389265512375876,-0.029023886427400204,-0.027386212576317178,-0.02448929594402592,-0.020646307675905567,-0.016313974647604642,-0.012105611320413889,-0.0088041677002601,-0.006761966861314535,-0.00582895123628984,-0.005398328330439575,-0.004576230421625913,-0.002599276221688635,0.001308957075077902,0.007552996859126761,0.016185041005291313,0.027178991180040663,0.039817145224227884,0.05235742145938739,0.061929051507984216,0.0655241043997895,0.06143318075535408,0.05056315599675689,0.035700117609994184,0.020132420997173137,0.006770042827294692,-0.002592751437010648,-0.0073100334758254,-0.0080277396608776,-0.006155182418378641,-0.0035518670059283453,-0.0019729150091756164,-0.002534029985270875,-0.005346132468558844,-0.009391378191752559,-0.013182170597992187,-0.015524498649228276,-0.016079091256188713,-0.015296141250261918,-0.013893350790594818,-0.01222958102152406,-0.010487511420774292,-0.008817215659253965,-0.007662360575901931,-0.0071338719387397725,-0.006846788659537838,-0.006383539817345001,-0.005483146102757605,-0.004028163807115046,-0.002090357510064636,-2.4867706884374362e-06,0.0018439741202327944,0.0035273198536996233,0.0051649949125542344,0.006672177095982799,0.007690014519230797,0.008127159391625356,0.007885750007759857,0.006920112472297867,0.005184568863997669,0.002516007617720139,-0.001052946940554259,-0.005032949245463907,-0.0085953802268319,-0.011016004083841725,-0.011975119652759422,-0.011609740567783753,-0.010507085372217725,-0.009397904184202128,-0.008758493804923663,-0.008308296947629966,-0.0072252157035073705,-0.004974227391133606,-0.0015096685825259442,0.0026138765697562524,0.006372045857787,0.00883834361013326,0.009660441518946924,0.00907322700154919,0.007533422907683328,0.005380304352526731,0.0027247946885578123,-0.0003874379459315317,-0.003878096980245565,-0.007440525143479866,-0.01037006771211369,-0.01151187483647186,-0.009410952143195993,-0.0028080628899357805,0.008962309285338158,0.02520856015441926,0.04370579128406358,0.0607089203965154,0.07209438180737561,0.0751479101807407,0.06996085330728355,0.05936487192070497,0.04807075830051763,0.040306477906692624,0.037220351778321885,0.03728559962510175,0.03772927048994588,0.035987204915101385,0.03076752210530166,0.022507374984751794,0.01312500274309775,0.004512532548376631,-0.002357866032642082,-0.0073818032891495656,-0.010748494756083223,-0.012608004039588316,-0.013462727884744551,-0.013886824798145247,-0.014369647591781519,-0.015224367411032478,-0.016620631878250008,-0.01848666715420467,-0.02039184630714093,-0.021918602442012925,-0.022929913872811358,-0.023641094065413985,-0.02435227828392189,-0.025644147001472682,-0.02742536047920404,-0.02862588543198724,-0.027771165612736282,-0.024097816915157253,-0.01836922344554407,-0.012882039359796389,-0.010128658328248191,-0.011250887475257654,-0.015061253832940715,-0.01914565148492657,-0.02134443990951433,-0.02083551717198506,-0.01819305788255317,-0.014637152893634745,-0.01142053107170426,-0.009476199989975863,-0.009182594744229633,-0.010324397842682527,-0.012203481077631056,-0.013997746540261554,-0.01525699334737505,-0.015909451685647377,-0.01605299131229571,-0.015805055935980642,-0.015113449694821446,-0.01397164659636855,-0.012484038364383422,-0.010944234270517559,-0.009776331228171661,-0.0091630207927862,-0.00909777294600633,-0.009260886524098092,-0.00879764170781053,-0.006918558472862003,-0.003630162006521025,0.00023892330684053946,0.0037100085910064026,0.006293750052013265,0.007931423903096294,0.008792669714796824,0.009112374904436057,0.009295062433971255,0.009758311276164092,0.010684804934644491,0.012015821555082152,0.013209820515415778,0.013849230894694245,0.013836182935700379,0.013470807876629985,0.012922741262119118,0.012381200640057821,0.012041917473069881,0.011787460130210519,0.011559098705338885,0.011324215313922954,0.011024080049821881,0.010358573752555689,0.009203718669203656,0.00773568438866196,0.006332897954900133,0.005093225099230069,0.003879648161547736,0.002653023667462065,0.001622137882629675,0.0009435796004643428,0.0006043008619722041,0.0004411856735183307,0.0003498414256420991,0.00030416926144493056,0.0004020382134810437,0.0010023010522041162,0.0022289251436992596,0.003664336306032076,0.00466259816747453,0.004936633487682601,0.0046365022494868026,0.003938369613287509,0.0033576802831582903,0.0035860413054393967,0.004858337681908867,0.006619977208196793,0.007996667723970891,0.008133685384074926,0.00671784696541396,0.0040427617396395,0.0011001700042402292,-0.000955077988518146,-0.0016597342016238437,-0.0011703894414432784,7.580840020003517e-05,0.001543842479446468,0.002829188022681385,0.0035403690204650696,0.003618664423648277,0.003161942379086064,0.0022354495257867193,0.0009566287672297893,-0.0004592084436595934,-0.0018293737721651769,-0.003193014315992773,-0.004615374298607506,-0.005881147098170571,-0.006533605436442901,-0.006279148093583538,-0.005019901286470042,-0.0029972764119205473,-0.00054402822893026,0.0018504985023202539,0.004029713780645635,0.005941418926031461,0.007833554145879126,0.009738737324720657,0.011441654996678284,0.012426870509488982,0.012518214274256582,0.012335526744721385,0.012498640322813148,0.013262020403201784,0.014364675598767812,0.015310743208691644,0.01574136611454191,0.015826187912765213,0.01595015358797011,0.01624375883371634,0.016622185877685873,0.016981038970211974,0.01728769620085734,0.017307270152300772,0.016811399399670638,0.015676122293667313,0.014188514061682185,0.012818345512452381,0.01219850908461735,0.012603036072479886,0.01353605169750458,0.014025396457685146,0.013111954784103885,0.010345521767656551,0.006235028197682965,0.001615613097951688,-0.002657997270837881,-0.0064487876641248715,-0.010278723947346092,-0.014552335121316715,-0.019315291055467903,-0.023973847214047085,-0.027484082333534346,-0.02950018322858691,-0.030289655201057995,-0.030394050950724737,-0.03012001965642194,-0.02940231347136974,-0.027732017709849413,-0.024273982478148156,-0.018088666158791705,-0.008575806275388467,0.003338106734305384,0.014964938075159409,0.02303586764781923,0.0255804652318445,0.023159837348929402,0.01826638572121847,0.013144576694541181,0.009027553106212753,0.005673913624178234,0.002163679309872027,-0.002136029795038963,-0.006872888603430841,-0.010931186311523695,-0.013214792508429484,-0.013384432078970818,-0.011805480082218088,-0.009130394856443628,-0.00582242524384027,-0.0023382920811986486,0.0006043008619722041,0.002144105358428593,0.0016678101676040017,-0.0008767825853349389,-0.004889409618815576,-0.009215216654666932,-0.01262757799103175,-0.014121712215466452,-0.013462727884744551,-0.010970330188505288,-0.0073818032891495656,-0.0034083257689179053,0.00014757893818714962,0.0025616799026944664,0.0037361073271278233,0.004225453295079971,0.0046691241599241,0.0050279772524502,0.004284175149410272,0.0014263999785574487,-0.003193014315992773,-0.008164757320981635,-0.012092563361420025,-0.014363121599331948,-0.01483289240806908,-0.013658463373273614,-0.011296561370594089,-0.0082365271343058,-0.004863309674922573,-0.0018424229389306232,4.0378259797732615e-06,0.00027807088765498467,-0.0010072746555799322,-0.0033691786712120933,-0.005841999195283705,-0.007388329281599135,-0.007296985516831536,-0.00562016376286164,-0.0029972764119205473,-0.0002504214533400261,0.0018504985023202539,0.002992302808544731,0.003435975686341497,0.0035990904722048426,0.003794828376277069,0.0042189273026304016,0.005014929293456336,0.005967518869924464,0.006900538520854433,0.007781358283998396,0.00872089990147266,0.009790933186601389,0.010978410180390719,0.012191983092167779,0.013262020403201784,0.014084118312015448,0.014442971404541547,0.014084118312015448,0.013014085026886715,0.011585194623326614,0.010241130043895088,0.009105848911986488,0.00794447186209016,0.006287224059563696,0.003794828376277069,0.0006434483622685439,-0.002455734984678195,-0.0046740961529378065,-0.005515772039100177,-0.005209114808454808,-0.004432686769072308,-0.003923768862629364,-0.003923768862629364,-0.004315243060411707,-0.004661048193943943,-0.004563178436726774,-0.0033430803376812003,-0.0006614711324098065,0.002790040522385045,0.005778305347939697,0.007513848956239895,0.007781358283998396,0.006646077152089795,0.004382040880722166,0.0015307933126810214,-0.001209536941739618,-0.002899407459884434,-0.002945079342268233,-0.0013204550605411776,0.001139317504536569,0.002829188022681385,0.0027704665709416113,0.0017330560014312344,0.0017461051681966812,0.004434240768508171,0.010462965476317152,0.019245075241579604,0.029260335895967823,0.038910225517190915,0.046472232352321466,0.05023693689238392,0.04910167186409641,0.04316426676562338,0.034003725930486124,0.02372095192243413,0.014358149606318241,0.006998404252166327,0.0020788595246013604,-0.0006223232295229394,-0.0015422917007348247,-0.0012617340113919317,-0.0004461592768941468,0.00021282493305059351,0.00027807088765498467,-0.0005766513471391401,-0.0022534722959279816,-0.004308721093867412,-0.006279148093583538,-0.008066887563764467,-0.009893774936832264,-0.011733710268893924,-0.013377906086521249,-0.014408791468763112,-0.014591483024203582,-0.013939024685931252,-0.013019057019900424,-0.012431842502502689,-0.012503612315826853,-0.013064726889331586,-0.01381505498482108,-0.014186956036341045,-0.013527971705619148,-0.011727184276444355,-0.00914996880788706,-0.006396591802244139,-0.004119507571882645,-0.002644948104072434,-0.00171193086868563,-0.0008767825853349389,0.00018020193561887155,0.0012241372898072354,0.0018765968358511469,0.0020723347399233733,0.0019157447387380144,0.0011001700042402292,-0.0007984875847422593,-0.003923768862629364,-0.008001639716984596,-0.012333972745285523,-0.01609213921518258,-0.018597584870415705,-0.019458830682116235,-0.0188128943103882,-0.017012106881213407,-0.014878566303405519,-0.01349534979518185,-0.013371384119976954,-0.014121712215466452,-0.014878566303405519,-0.014885088269949814,-0.013664989365723183,-0.011087773897165889,-0.007440525143479866,-0.003264784934497993,0.0009696779339952359,0.0046691241599241,0.007396405247579293,0.008884013479564423,0.008955783292888589,0.0076965364857750915,0.005654339672734801,0.0035795165207614093,0.001883121620529134,0.0006043008619722041,-0.0005962248959920463,-0.001985963773350536,-0.003421374935683352,-0.004393538866185442,-0.004530556526289476,-0.0037280313611476653,-0.0018815704392269631,0.0011980389562763422,0.005549943923068063,0.01091316233361085,0.01717025249219674,0.02413200087684096,0.031106801246384323,0.03686149868579579,0.03987586305265291,0.038805829767524176,0.03328601974543393,0.0241776747721774,0.013294642313639082,0.0025355811665730456,-0.006898984521418569,-0.014402269502218817,-0.019876405628972634,-0.023236571103456723,-0.024012999142839223,-0.021468405584719227,-0.014695874747965045,-0.0035518670059283453,0.010684804934644491,0.02494105082666076,0.03496936749185339,0.03768360062051472,0.03287496676512182,0.023355572837458462,0.013164150645984616,0.005680435590722529,0.0022028268101683666,0.0020658103578359136,0.003383779019279711,0.0043885668731717346,0.004055813724538638,0.002281121810761046,-0.0004787823951030269,-0.0034605224359796917,-0.006161704384922937,-0.008008165709434167,-0.008406166704847133,-0.007205641752063938,-0.005006853327476177,-0.0027493418407865348,-0.0013335042273066244,-0.0013008815116882714,-0.0025079316517399816,-0.004308721093867412,-0.006050786668711904,-0.007277411565388103,-0.007936395896110001,-0.007962495840003005,-0.007531868908247466,-0.006768492853764104,-0.00582895123628984,-0.004830687764485276,-0.003910719695863918,-0.0033691786712120933,-0.0032843584833508995,-0.0037606540767660184,-0.004615374298607506,-0.005704981535179668,-0.006585805324228906,-0.006853314651987408,-0.006344395940363408,-0.005169966905567942,-0.003930293647307351,-0.0031473420310184465,-0.002834161626057201,-0.002834161626057201,-0.0027754401743174274,-0.002299144580902309,-0.0012813075602448381,-0.0001982246655010815,0.00014105435480442634,-0.0005309790621648132,-0.0016793081530672774,-0.002534029985270875,-0.0026318989373069874,-0.0017576031536599569,4.970998615103652e-05,0.0026791224035834856,0.005797879299383131,0.008825291625234122,0.01112194980703905,0.012270278897941515,0.012335526744721385,0.011767886178767084,0.011174149694825056,0.010945788269953422,0.010997984131834154,0.011167623702375487,0.011337263272916821,0.011448180989127853,0.011500376851008583,0.011572146664332749,0.011728738275880217,0.011970147659745715,0.01240729655804555,0.01276614965057165,0.012870545400238385,0.01275962365812208,0.012492118356268853,0.01195057370830228,0.010821818568843252,0.009007983180674594,0.006633029193095932,0.0042189273026304016,0.002020138072861587,0.0002323986831987634,-0.001046422155876272,-0.0019468166756447236,-0.002481833318209088,-0.002592751437010648,-0.002155603343891869,-0.001307405893775731,-0.00025694603672274933,0.0008522354331062166,0.0017395803835186941,0.0022941709775264924,0.0026921715703489323,0.0036317135904137235,0.005797879299383131,0.009353784288301555,0.013359886134513678,0.016165463027942605,0.01603497538619341,0.012355100696164818,0.005908797015594163,-0.0014117996304898314,-0.007871148049330132,-0.012144759223300754,-0.013704137268610049,-0.012927713255132825,-0.010781120692425797,-0.008438788615284432,-0.006775018846213673,-0.00624652618314624,-0.006807640756650971,-0.008119083425645199,-0.009737183325284794,-0.011387905135361689,-0.012862465408352954,-0.014141286166909885,-0.014937288157735817,-0.014937288157735817,-0.014115186223016881,-0.012764595651135786,-0.011107347848609323,-0.009463152030981999,-0.008164757320981635,-0.007492721005360597,-0.007492721005360597,-0.007995117750440301,-0.009019477140232594,-0.01072892080463979,-0.013188692564536482,-0.016020369401858414,-0.018480141161755104,-0.019706766058431302,-0.019041255735259832,-0.016281352737167343,-0.011590170642245594,-0.005496198087656743,0.0011066947889182162,0.0070245041960593285,0.011141523758482484,0.01282487150490195,0.01204844346551945,0.009595193672167053,0.006991882285622032,0.005549943923068063,0.0056608616392790955,0.0068483386330684265,0.008225029148842525,0.00928854046742696,0.010064964480904184,0.010919688326060419,0.012342052737170954,0.014142840166345746,0.01538903901446538,0.014860546351397946,0.012028869514076017,0.0075268969152337585,0.0029857784264572715,-1.553596442744936e-05,-0.0009224548703092657,-0.0002634706201054727,0.0008652845998716633,0.0015242689305935617,0.0013350554086087952,0.00048685795849265747,-0.000393962529314255,-0.0007267169662370395,-0.0001982246655010815,0.0009892518854386695,0.002320269713647913,0.003449024450516416,0.004551680451263499,0.005921849000493302,0.007552996859126761,0.009086274960543053,0.01000624665247916,0.009777885227607525,0.008244603100285958,0.0057522094299519684,0.0031358440455551704,0.0013220062418433484,0.0009174812669334496,0.0018961707872945806,0.00371653337568439,0.005497748061187332,0.0061697803509030945,0.005269386636315698,0.0028422371894468315,-0.000276519827129972,-0.002964653696302194,-0.00419127738520681,-0.003669309909407892,-0.0018228489874871899,0.0005455794102324308,0.002483384499511259,0.0036904346395629692,0.004336371011291003,0.004838763730465433,0.005471648117294329,0.0064242417196677315,0.007389883281034998,0.007807454201986124,0.007311587475261263,0.005889223064150729,0.003814401925129975,0.0016482358135700408,1.7087016900651493e-05,-0.0007071430147936059,-0.0006027496806700332,0.00015410356182892564,0.0013611537421396884,0.002705221139704906,0.0038926973283131823,0.004564732436162637,0.004264601197966838,0.002927056974717498,0.0009501043851423297,-0.001111667989703505,-0.0029972764119205473,-0.004517508567295612,-0.005293932580772838,-0.00490898357025901,-0.0033691786712120933,-0.0014966194157604977,-0.0003352411983516398,-0.0005375038468428004,-0.002325242914433202,-0.00553534599054361,-0.009489247948969728,-0.013410532022863821,-0.016633679837243873,-0.018773746407501332,-0.020072141117501698,-0.020815943220541627,-0.021148700395079996,-0.02107040458930626,-0.020339650445260198,-0.018949911970492235,-0.017090402686987142,-0.01498295802716698,-0.012347020704279387,-0.008106035466651333,-0.0008180611335951657,0.010482539427760586,0.025410821635397894,0.04187239402216732,0.05637008150529128,0.06516523520364231,0.06598084335315388,0.05898643682492489,0.04651140441063998,0.031968047058084856,0.01837078147088521,0.007807454201986124,0.001041448552500456,-0.002383964366172975,-0.003741080527913112,-0.004563178436726774,-0.005757181422965675,-0.007140393905284067,-0.008190853238969363,-0.008484462510620868,-0.008001639716984596,-0.0070425241480668995,-0.0060377387097180395,-0.005313506532216272,-0.00505252319690734,-0.005046001230363045,-0.005176492898017511,-0.00546357215131417,-0.006044260676262335,-0.006918558472862003,-0.007975543798996869,-0.00909777294600633,-0.009945970798712995,-0.01016780623113506,-0.009835053082501963,-0.009286986467991096,-0.008980329237345729,-0.009176068751780064,-0.00984157907495153,-0.010441841551343131,-0.010357019753119825,-0.00945010004608286,-0.007747182374125235,-0.005450524192320306,-0.002781964958995415,-0.00021127383226652807,0.0015634164308899016,0.0017591543349621279,0.00019977572602609422,-0.002657997270837881,-0.005796329325852541,-0.008112561459100904,-0.008575806275388467,-0.006735870943326806,-0.0030755714125132263,0.0013350554086087952,0.005726109486058966,0.009738737324720657,0.013209820515415778,0.015911005685083243,0.017633501334389574,0.01822071585178731,0.017744419050600608,0.01646559829204368,0.014814872456061511,0.013066280888767448,0.011376411175803687,0.009725689365726794,0.007905323959203292,0.005647813680285231,0.002705221139704906,-0.0005244546800773537,-0.0033300307683252262,-0.004817639805491411,-0.004393538866185442,-0.001790226271868837,0.0026008274029908057,0.007768306299099257,0.012648705941911049,0.01631553267294578,0.01823376381078117,0.01797930646792181,0.015291169257248213,0.010528213323097021,0.0043950928656213036,-0.0022599970806059686,-0.008477936518171298,-0.013377906086521249,-0.016437944348714813,-0.017403581884176806,-0.01626177878572391,-0.013527971705619148,-0.010024266604486728,-0.006553183413791608,-0.003675834291495352,-0.0016793081530672774,-0.0007201921815590525,-0.0007397661330024861,-0.0014966194157604977,-0.0028733091263535406,-0.00463494825005094,-0.006468361615568304,-0.008119083425645199,-0.009136920848893197,-0.008895511465027699,-0.007440525143479866,-0.00547009814376374,-0.0041717034337633765,-0.0044261648025280135,-0.006207378280259373,-0.008464888559177434,-0.009547969803300029,-0.007975543798996869,-0.0032778341012634398,0.0037883035915990825,0.011656968462556053,0.01854042104142654,0.022846658151739738,0.023290329016583865,0.019532158520781537,0.012250708972403355,0.0033707298525142643,-0.0046740961529378065,-0.010141710313147331,-0.012470990405389558,-0.012405742558609687,-0.011087773897165889,-0.009410952143195993,-0.007988591757990732,-0.006892458528969001,-0.0059333429600513035,-0.004765439917705405,-0.0029777028630676404,-0.0004787823951030269,0.002346368047178806,0.0050279772524502,0.00701797820360976,0.008074963529744624,0.008257651059279822,0.0076965364857750915,0.0067569948683008285,0.005673913624178234,0.004421188783609033,0.003096696545258831,0.0020462364063924803,0.0018896460026165936,0.003103221329936818,0.005941418926031461,0.010221556092451654,0.014991038019052412,0.019218979323591873,0.022448653130421495,0.025352099781067592,0.028320794278493558,0.03051958672898659,0.03034342116599569,0.027087643389367786,0.0213981937967362,0.014860546351397946,0.00887749151302013,0.004055813724538638,0.0002258740998160401,-0.002958128911624207,-0.0059463949449504415,-0.009019477140232594,-0.011674988414563622,-0.012921187262683256,-0.012053415458533156,-0.00914996880788706,-0.005000327335026609,-0.0006484219656443601,0.002992302808544731,0.005602143810854069,0.00708322605038963,0.007396405247579293,0.006469911589098894,0.004355944962734437,0.0016417114314825811,-0.0010855696561726117,-0.0035714405547812517,-0.005887673090620141,-0.008112561459100904,-0.010220002093015792,-0.012190433118637191,-0.014128234182010745,-0.01620958292384318,-0.018584532885516567,-0.021135652436086134,-0.023425784625441492,-0.02482204909265902,-0.02484814501064675,-0.023543224308196817,-0.021533649405593824,-0.01952407450299083,-0.017990796401574537,-0.016953385026883108,-0.016268304778173478,-0.01578548198453721,-0.014761122594744915,-0.01192292379087869,-0.005646263706754643,0.005360730401083296,0.020902323044106063,0.03835563693613576,0.053492726746727635,0.062457532093335835,0.06333835990829034,0.056637602910765604,0.04462579115733661,0.030212929498341225,0.01600887544230041,0.003879648161547736,-0.0053657064200022765,-0.011544496746909157,-0.01483941840051865,-0.015524498649228276,-0.013952072644925118,-0.01058538117799146,-0.0062856740860331075,-0.0022078004135441826,0.0007869891966884563,0.0024050890963280523,0.002633450118609159,0.0014329243606449084,-0.0013400290119846114,-0.005457050184769876,-0.00996554475015643,-0.013312662265646653,-0.014082564312579583,-0.011981645645208991,-0.007753708366574804,-0.002592751437010648,0.002352892429266266,0.006150206399459661,0.008257651059279822,0.008381620760389993,0.006685225054976663,0.0037230581603623766,0.00042813650675288414,-0.0022273739623970886,-0.0034996703388665592,-0.0032256374342016537,-0.0020055377247939696,-0.0012225861085050646,-0.0022273739623970886,-0.005587541852424342,-0.010826790561856958,-0.016483614218145974,-0.020698503537786298,-0.02199689824778666,-0.019804631789743194,-0.014721974691858049,-0.007871148049330132,-0.0006484219656443601,0.005354208434539001,0.009092800952992624,0.010391195662992986,0.009477753989411725,0.006854864625517996,0.003383779019279711,-4.815896588507658e-05,-0.0026123253884540814
