0.9308700159262729,0.9145462610202524,0.9194948879707889,0.9448943592062261,0.970317125967994,0.958487930457609,0.8398520113386624,0.5861103511322051,0.30076675991102064,0.04751261827862437,-0.18535360343614937,-0.38113230897590145,-0.5049791567895514,-0.5278352130557836,-0.3032419412139541,0.13603363002599994,0.2628915918470279,0.17961197924918668,0.02893017045588978,-0.10210395502857052,-0.17022477150011237,-0.15403014440362986,-0.039493517732739375,0.1767150863057824,0.41414134696858096,0.5619355231477523,0.5750518534728761,0.4294160409982312,0.09333707802336297,-0.31904426856043183,-0.6023095659403215,-0.7425180314384171,-0.8011675770004496,-0.8233005949305763,-0.8049551045823309,-0.4454551518381975,-0.029642977547225408,0.05924201960152068,0.05789209004795088,0.030884777186362764,-0.014156766356562009,-0.07973521567943866,-0.16054366194380354,-0.2348613220771211,-0.2875424226834599,-0.337193588921954,-0.4444641779664848,-0.7026923353999559,-0.8795659987318746,-0.758661340982173,-0.654884429703282,-0.5780921635543036,-0.5124311987048629,-0.4596718665325939,-0.42470199794941127,-0.41012290614019337,-0.4140473093255098,-0.4199318999848185,-0.407574436446478,-0.3783926144855026,-0.33790428027635794,-0.28874140505560053,-0.24054211566308004,-0.17203675715181144,0.09440858566183528,0.13611611562759215,0.16244892017179804,0.199932955372639,0.25840227388934883,0.3548910052842847,0.4926708611243948,0.5045559081487394,0.35789332405737706,0.2629181309050718,0.21132912661491454,0.17051266830980416,0.1274202466177224,0.0911001714089419,0.08947541893514896,0.12156098150561104,0.1710126377242128,0.22618946730746903,0.28554944813115907,0.3584369908943547,0.45138016624228633,0.5588525915347379,0.6450780321291713,0.6730539081651827,0.647995564185403,0.6046780696580393,0.5572701226938755,0.5076625491033552,0.4729255180641485,0.46491637119247803,0.4844827675220924,0.5274295227608666,0.5960843602921093,0.6908757311718668,0.7909564216806485,0.8440577751228513,0.7961144426716336,0.6858560477104069,0.578454407932772,0.47603717135227713,0.3511608809930458,0.20089788925034896,0.03985628258798701,-0.13822458259812537,-0.37001874107509763,-0.6268893577186712,-0.6854199409232227,-0.5719354661596187,-0.42406563762174,-0.2741264130450129,-0.1504132513421275,-0.07755190270125238,-0.049220427991969566,-0.05628766886423181,-0.08248596035288167,-0.11324686849413045,-0.13281144201497716,-0.10947860917240078,0.03165075929887852,0.37989273780513627,0.7279166159927594,0.8359268528285492,0.8317870440679039,0.7862566352397655,0.7155461911506025,0.6352319799521964,0.5625140174389818,0.5017495200923359,0.4397317088541705,0.3655012056965095,0.2908976899459262,0.2375503617558894,0.2181804688785674,0.2404708502977522,0.31159373947729724,0.4301685365404381,0.568865232889887,0.6716013692858511,0.6052634428952574,-0.2376509434276599,-0.701259802680378,-0.7723114013389124,-0.7596218873827898,-0.7047192166346454,-0.6196047437829114,-0.5168743572923719,-0.4123357178445853,-0.3233609682539849,-0.26498253410320755,-0.24476120479001753,-0.26546471544577877,-0.3294785730935406,-0.4443820376580656,-0.6129937122334379,-0.804404651280981,-0.9403879396336725,-0.9420953864011288,-0.8175404264936851,-0.6640144316663572,-0.5413801251646421,-0.44870288204982384,-0.36106723435910093,-0.27204558633262027,-0.20425981914250632,-0.1735132620338049,-0.18086562496462633,-0.21627112135243423,-0.24020929591222104,-0.21192978417777858,-0.1685064108858229,-0.13449691032451286,-0.09079801876845425,0.03961682152460091,0.37667387859837453,0.6968798316675702,0.8165811078581449,0.8651292559966415,0.8899030223877505,0.8990003975453978,0.8906712561227212,0.8532316578586031,0.7611677934064376,0.592696151175879,0.39162399928639097,0.24077440352584364,0.1520095623441087,0.07700912675602045,-0.015879307894954467,-0.09673144264258715,-0.10558024021979957,-0.028911951008007756,0.10144676264006494,0.24027300997095613,0.33580729161855916,0.32716388610381875,0.13247942928644502,-0.22966801095415615,-0.4878842768683744,-0.587307528783233,-0.6064187525378999,-0.5891911162374586,-0.550122242685549,-0.49047127271687824,-0.39453054416201344,-0.19499424647233754,0.2376590275568642,0.6945075136112883,0.8733409426483882,0.9282681792149733,0.9489609303598395,0.9550096350309248,0.9235267959715787,0.7143653676939314,0.1507382894270695,-0.31624922520346793,-0.5429851307186319,-0.6524944843504773,-0.6951352229479286,-0.6910852588595292,-0.6784561292823151,-0.6923487646604116,-0.7318064240257277,-0.7687100336971476,-0.7742414369190976,-0.7422119636249539,-0.6839032221988638,-0.6106995476305689,-0.5295930934351284,-0.44853752327263297,-0.38678292668288683,-0.3735287785449861,-0.4350436862057451,-0.574431324429839,-0.739300058965232,-0.8461656701267324,-0.8789150853472991,-0.8679544681313753,-0.8298816694009433,-0.7579633585752701,-0.6275362614125867,-0.4070813672497604,-0.08009768030845595,0.28706262521875975,0.5761376094257129,0.7431984809769985,0.8235536118499703,0.8588393127137208,0.8754059841954805,0.8883578656551318,0.8997133748926586,0.891768826753055,0.7986978643700399,0.31381499219153985,-0.5951129721330457,-0.895507979174074,-0.9672120730253909,-0.9864834353449518,-0.988808288309977,-0.9862861603724095,-0.9828289078405419,-0.9761510212542747,-0.9620870279664103,-0.9294492855217062,-0.7744120026354778,0.44623707977276633,0.9206361711190912,0.9695505940442664,0.9820906710194613,0.9870141491233865,0.9889496266085694,0.9889137147091867,0.9871558757357601,0.9818639362242199,0.9551921879699142,0.7824180445053788,0.18513232826410128,-0.23269702189807653,-0.32172639277840637,-0.2634197418758847,-0.1636952612841836,-0.10515043990945278,-0.13468488614268484,-0.26775790860306936,-0.49201139861875,-0.7378264214884858,-0.9035959645396194,-0.9719970638548867,-0.9801234178116855,-0.94665791365878,-0.8737917416779939,-0.7892294772078217,-0.7295728397689142,-0.6921650038848945,-0.6588815192357248,-0.6184100432889206,-0.5840450242780163,-0.5752699936884064,-0.5934858084952352,-0.6272691818991565,-0.6703030479039629,-0.7165439057177894,-0.759399845522429,-0.7905189925680699,-0.8142291851223523,-0.8251593693196498,-0.7191913009216847,-0.3349428502821068,-0.007902804328811788,0.16350763529472861,0.2573382928773575,0.31249176601375933,0.33489097583675365,0.27745132517480736,0.07175688859741909,-0.18836221221075186,-0.3650971860680728,-0.44446457172138737,-0.43776383660286494,-0.28874408108919447,0.09300109998758173,0.3381799367421664,0.47142387467871927,0.5688956550522929,0.613915598128287,0.6008219588135023,0.5642399034673972,0.5373261755286152,0.5287750925732662,0.5378993610607815,0.5676125124468838,0.6124796874330922,0.5082483105908093,0.23253403022364846,0.06877391843897464,-0.016809978038207322,-0.0580249519223283,0.005603690708501681,0.5750496535354307,0.814035122302491,0.840719505709053,0.8837592887718694,0.9175158310727595,0.9349057629092962,0.9342188141508734,0.9092698989207444,0.8351129575431271,0.5817983240099075,-0.01884878698533087,-0.3884067019820079,-0.5013005180220694,-0.5655325277007877,-0.6503080910418841,-0.7500072655989578,-0.8352239751182003,-0.8924301723704609,-0.9233361616220969,-0.9312987626269261,-0.9166284746976608,-0.8680776709966553,-0.7403604260888937,-0.46621180527525524,-0.10825159137803908,0.1585987107558929,0.2811955344786926,0.2835092788280324,0.20379100751293955,0.08898890971881916,-0.022795882768504767,-0.11279360732060803,-0.17628473576711287,-0.21738298948879156,-0.259945238548203,-0.36093704352392275,-0.4356286212313479,-0.5214757703530526,-0.6431113558877166,-0.7451207944267795,-0.7967018932513767,-0.7641188722967353,-0.6832091598558461,-0.6308155369884433,-0.60395344175802,-0.5711072610570346,-0.49855511897970034,-0.3433582119240394,-0.08827692118208592,0.20143178714865312,0.44079890592825455,0.6274504657243577,0.7720755928322858,0.8675950632517064,0.9160652804792523,0.9341470272050187,0.9361770194930935,0.9285619058714435,0.9107094769746251,0.8633144756724108,0.6855788885595222,0.13808501933940026,-0.41493481920346253,-0.6926409131981226,-0.8281349688350492,-0.8763971869656442,-0.8974334312181317,-0.9292949689175101,-0.962792463891065,-0.984661415559965,-0.9941060028315076,-0.9966402231261869,-0.9963417366620699,-0.9951985091967746,-0.9936799692761142,-0.9912552280475191,-0.985208442543969,-0.9621634405055329,-0.8346679320584752,0.3671375299361743,0.9539119410613908,0.9925793857690489,0.9974115584834864,0.998000417596757,0.9979848796819148,0.9980400274465147,0.9982589309233704,0.9984566799262007,0.9974205278229523,0.9737563068874434,-0.6645031444748866,-0.9402688480408153,-0.9457918681562251,-0.9174837931454142,-0.8568771142107879,-0.7777870778057633,-0.696927990226454,-0.5063807563564916,-0.17259877584235056,0.09021970660364412,0.2550556196179032,0.28228504746771466,0.06824090165659398,-0.19369651125335957,-0.374586774362101,-0.5054763043469732,-0.5914079793636743,-0.6231498618262283,-0.6149157829817398,-0.5950099579093368,-0.5761401080667622,-0.5609241920935195,-0.5580885275819149,-0.5854954793586017,-0.6520060057011319,-0.7412195781801197,-0.8210617640540006,-0.873959041814315,-0.880674245468683,-0.7940243155936169,-0.580224983270722,-0.3305713574040857,-0.1609791820995242,-0.08747995070884786,-0.0775293671927598,-0.09990603200998772,-0.13353084406407112,-0.15681254338267378,-0.14502871239527743,-0.06864732359575922,0.09668399522857905,0.3408421472559626,0.5795761365181596,0.7348177999877062,0.8065253555816799,0.8254717001465359,0.8218775073074535,0.8167384978698543,0.8215359410799119,0.8398117760682865,0.8664893368461434,0.8892055373993388,0.8889014462622312,0.8072360557967618,0.5806479023258829,0.28584096190959135,-0.0019498169562411967,-0.2524958928042868,-0.44051350992308624,-0.5633996230965231,-0.6392098271081013,-0.6842550904103655,-0.7190693170634133,-0.7593406449202733,-0.8095986650243344,-0.8219244830202805,-0.7409309444485171,-0.6392542455472155,-0.5749290424042889,-0.5504127389227197,-0.5488987927300386,-0.5562402588906945,-0.558788170784878,-0.5501263895976494,-0.5331762963121879,-0.5095660843934523,-0.47832143567526075,-0.4254613477952531,-0.32146815434773646,-0.1512273508226177,0.041119481051843085,0.1913928100844951,0.2881331022096567,0.34568757139965167,0.3805782744056318,0.4072888052555746,0.42414525035058764,0.33333631229501354,-0.16260815261938333,-0.5864952281758752,-0.7967890189287331,-0.9176262103248065,-0.9724093491308581,-0.9860037106961878,-0.9679816866134658,-0.8650970220582939,-0.6307991142154348,-0.301406528571408,0.07459892767935694,0.49220365684730916,0.8637136638630789,0.9913816009832803,0.9222092708749287,0.8079536844718731,0.7008838042406511,0.6026573255701163,0.4956033706937811,0.3378699658950884,0.14693158145060253,0.04498497753798423,0.014072986226354736,0.01724821152003966,0.03778490018187369,0.058208127132171154,0.04679949965451596,-0.07336560640797787,-0.3438614541705374,-0.284939060365407,-0.10763477409286586,0.11160440849758527,0.3434188848496538,0.5231770352693809,0.6210373304700328,0.6482035000415408,0.6151129400473553,0.5131364949414126,0.31604792363389084,0.026218116539867237,-0.2625059226355027,-0.45830318240133444,-0.5636227997757607,-0.6076805475881624,-0.6026635032486467,-0.5457004618968914,-0.4407264155328693,-0.3204497504895703,-0.2333522203528873,-0.22011981254533924,-0.2076918114252282,-0.09416132103478117,-0.019450341140165268,0.05031484969447766,0.11783304566468462,0.17616358529381881,0.2237432609186008,0.25475155452452936,0.22528743630608514,0.12101402672627372,0.008316577731679228,-0.11347281062551907,-0.26706624465558976,-0.4426906392643341,-0.5983304922154863,-0.7014675416363207,-0.7533780039776027,-0.7624382770033495,-0.7344318697420416,-0.6727579755047656,-0.5873658700575825,-0.5049550927774059,-0.4608435839341986,-0.4663109131284743,-0.49911452990690164,-0.537754159598026,-0.5872529769946015,-0.673692759336311,-0.7170339273671194,-0.5553540411497897,-0.38721688231779333,-0.2812356360446239,-0.1983931171803791,-0.10671194964673858,0.06649146018656568,0.36751035254953246,0.18430209082922813,0.09786042328254746,0.030368659569877884,-0.04036757008711973,-0.14593566248721637,-0.4035595844918722,-0.2444481415246462,-0.061682160198574,0.047205499211723644,0.17104032142512893,0.32863051923143194,0.445538813524152,0.512868579272236,0.5639976049387323,0.6071878840347728,0.6472717476941272,0.6952198726467871,0.7425176019977455,0.5577578576366333,0.18228381130397311,0.047178259049564054,0.03222581130843659,0.053177068988653826,0.07528754037737324,0.08605019970442988,0.08160084825521725,0.06733578168387737,0.053814477352633255,0.05195635601805509,0.07371001199908764,0.12845829459325278,0.21960180025261586,0.3326932379582974,0.43286826171431125,0.48771453603607956,0.4960349511984012,0.46806895110301544,0.4263029486984017,0.41256882740328826,0.48224840032441135,0.5911498842003139,0.6868246915036936,0.7762630926432503,0.8602878425749854,0.9142641480967121,0.901963298716318,0.748593983948749,0.2967691012125358,-0.2942444731173974,-0.6540779513479187,-0.8387447132709818,-0.9214101427494225,-0.9431685298226725,-0.9457458400563704,-0.944977558407027,-0.9408354501189088,-0.929636099729518,-0.9053270395836674,-0.8512091979341789,-0.7180993418181687,-0.3711619685702852,0.2378545439547932,0.6638439708857711,0.8217936254614624,0.8717883879144788,0.8839599032943544,0.8829579367971413,0.8799832435478493,0.8779578103490931,0.8754146481531316,0.8704034936548556,0.8622166265204997,0.8688315230422299,0.9101562476874341,0.9552915810215753,0.9544239095514988,0.9298834993250605,0.9073088218685023,0.7843923420886308,0.48936682979366725,0.2607845530383471,0.18892721267984464,0.3608272386715603,0.7985020610994144,0.7705599686790985,0.7437265661230931,0.7742515034659421,0.8552180638293461,0.9542628991040858,0.6747545264456783,0.11662850948505887,-0.21224486897175038,-0.4654484252405416,-0.7363816931834707,-0.8660074946741805,-0.7884270459695878,-0.7371659012404151,-0.7504072629216685,-0.7992026733515519,-0.8576031667323529,-0.9109202164680841,-0.9531556495661113,-0.9812878597525,-0.9927037781313787,-0.9903449468598714,-0.9806105073309865,-0.969413148540885,-0.960505415517541,-0.9555135920656501,-0.9470109879283904,-0.9063118374898007,-0.8219675536130818,-0.7997130449771169,-0.848255363396998,-0.8759350139013193,-0.8731116561331764,-0.8570213979334746,-0.8399820356057013,-0.8235407793490321,-0.7893636152597999,-0.6691786109195641,-0.26968174604377554,0.404696291858544,0.7720547412993942,0.901790358261378,0.9526377043325474,0.969676379720986,0.9606656725549304,0.9151800005082884,0.760035617138244,-0.05098362127007472,-0.8994385533698749,-0.982563415588172,-0.972168817252454,-0.9239971125854063,-0.7687705407917109,-0.22492131297549323,0.5018402184380759,0.7871646387946032,0.8865423465198023,0.9268808751830809,0.9365277312520821,0.9285084187313527,0.9142227279621095,0.9001006978153901,0.882114588956597,0.8449745652021816,0.757874748867211,0.5639224112009823,0.19989560754524427,-0.19531045895905214,-0.3322609050025654,-0.18711486101004682,0.13393830184166775,0.47270785458337455,0.7074309249778123,0.8269002051900757,0.8597304689661878,0.8137858344995318,0.6382571512332154,0.16386287837313254,-0.4834128808142685,-0.7882485559078428,-0.8864123956386132,-0.9249145480141528,-0.9453897268456598,-0.954690358994044,-0.9492195539243277,-0.9332436322245568,-0.9247857109026211,-0.9331469685608698,-0.95146092522029,-0.971067938751524,-0.9856197525414435,-0.9917586066080912,-0.988600169471222,-0.9751919782317295,-0.9508786439966963,-0.9212764381847718,-0.8985803890301536,-0.893968521471718,-0.9067364083647824,-0.8962589693753438,-0.652556103699196,0.1323154288270619,0.7448682888849343,0.9253822006769706,0.9652740362784967,0.9759145144097325,0.9806575777010841,0.983362609728529,0.9833094277073696,0.9767161300363586,0.9505509315320224,0.8356118849870395,0.17846848363525608,-0.6529399647600777,-0.8189396306220471,-0.8327121219548501,-0.8080034737045823,-0.7801677679793502,-0.7610639580887366,-0.7492018390290736,-0.7417656111042128,-0.7339352764186705,-0.7105436292285802,-0.6282270473757883,-0.290936671098373,0.31910932503346073,0.537374864599212,0.5098344919994012,0.38489518154430163,0.23455110940973273,0.11466199529877547,0.03438350279553485,-0.013243541852982387,-0.02471158925618907,0.007507814217354273,0.08987207270026684,0.18603576072178038,0.25635436338695455,0.2901870121914927,0.2646677318498272,0.08540395408810886,-0.140615274333804,-0.190004526149073,-0.16267019773543137,-0.09210348322587923,0.0014143836944235562,0.07847378753280547,0.11281782010964692,0.1217497203946256,0.12882939899920115,0.15169051097054057,0.21941381033944168,0.47933027991918725,0.2186948299719556,0.08847798896985408,0.051514073593964434,0.0332688864621008,0.012386127335495423,-0.03051990221846637,-0.12956882294813413,-0.22057695157893892,0.03954252678393941,0.3876160134534544,0.6723353795420173,0.7881125064248451,0.7849819913287636,0.7143840785939868,0.5950035882387769,0.44133783960116824,0.2826398884525816,0.1479494743151093,0.05018977879007325,-0.018458737518111674,-0.07387444568260547,-0.13362797994128303,-0.18555426376006826,-0.19045737558406609,-0.148888271073821,-0.07626627427169547,0.005958408398453768,0.06473148314350559,0.06556279372278695,-0.009295412500915546,-0.16865513781990357,-0.39582108077695444,-0.6287369934536852,-0.787784977947172,-0.8453378730405853,-0.8406363844090184,-0.8144403610147828,-0.7816325348019957,-0.7355380378948537,-0.6547613867256546,-0.513738305727664,-0.3454524730532175,-0.2070612387202843,-0.08982806823649539,0.0864713090011587,0.29625381721792016,0.3801317692573567,0.4150930265951987,0.4363573164334743,0.4431167536056456,0.43301111807978837,0.40423544002476075,0.3511590335635878,0.26611829087499567,0.1416114385320728,-0.010602688311257817,-0.14480899292310626,-0.22371541726517755,-0.2517522076607844,-0.25410998036941035,-0.2555534954301034,-0.264062214956019,-0.2742663111928208,-0.27777421056690166,-0.26653943691295856,-0.23827386345303184,-0.20611364595898476,-0.19742653777421532,-0.24329748807970306,-0.3540098250090516,-0.5057679210452614,-0.6558897398161945,-0.7676623798277663,-0.8078287451102144,-0.7545469965223165,-0.6061356889065819,-0.3516934151660918,0.026007543783828295,0.44630421108668533,0.7325282186998395,0.8614701387625439,0.9073672067797508,0.9187398117929338,0.9134189560524243,0.8919818496929843,0.842745454958536,0.7373272387797225,0.5113389124632899,0.10521290060027626,-0.3091414852161829,-0.5353298772751437,-0.6280959414447614,-0.6527932934077642,-0.6416494316791662,-0.6115939244783342,-0.5840105142920371,-0.5783148232023643,-0.5895443726096964,-0.587947143091218,-0.5227323016526445,-0.3691081561451587,-0.16820002025723882,0.017793671077833154,0.1566466752758922,0.25404293284214857,0.36870405863272454,0.5757242539631687,0.8267583590176057,0.9512375819009886,0.9776114817653982,0.9712289442760629,0.9413941211410114,0.843059537945576,0.527603654884025,0.02370732939822414,-0.2779294366498575,-0.38967985693422746,-0.4226647849954684,-0.43036539179457284,-0.44199308421211153,-0.4663087200739226,-0.49555469349424713,-0.515786142285491,-0.5205833327452305,-0.5106427185258628,-0.48515217761656904,-0.4541017263866765,-0.4265635912987585,-0.405288839319139,-0.37843604248101187,-0.33850322639755287,-0.27921598366687805,-0.18253055477369756,-0.016039306045444207,0.2388585864053478,0.45894161683287027,0.5558029626110531,0.6035484014661572,0.5537950486997396,-0.11352343549114567,-0.34226605198236804,-0.5011491785729474,-0.7562056434784642,-0.8922274166265647,-0.6644940806410289,-0.5246108281946453,-0.4821884073144821,-0.4958426172864904,-0.5318016283515078,-0.5397331587749066,-0.46229167915370556,-0.29455788147036194,-0.040765791972649124,0.2769870954127049,0.5114421449611174,0.6168128351054118,0.6909953851431467,0.7802204756529915,0.8752228372929005,0.9417741016244833,0.9669966741171554,0.9651602967088675,0.9539116222185794,0.9379507244976099,0.9024989445606265,0.8023873064530381,0.5298479726097796,0.004961361258766942,-0.3650247683464839,-0.4340152015100845,-0.417453117657767,-0.4060567181980611,-0.4129711921432286,-0.4135880999198597,-0.29290708560809353,0.3116373184464923,0.8209325008559528,0.9348015691672296,0.9646760882126554,0.971507560929726,0.9690055292869867,0.9624101550978752,0.9534896533634398,0.9409499097874531,0.9183521447567414,0.8583846972688979,0.5739022812855437,-0.5538668310338652,-0.9126795111476529,-0.9350053544707282,-0.8914124041243244,-0.8126135008221188,-0.7250041349152251,-0.6627247622987831,-0.6457984019134961,-0.6703542438554014,-0.7146955462668414,-0.75159512496549,-0.7534521577890123,-0.707994288840626,-0.6362494406283655,-0.575044513937294,-0.5487603738608754,-0.5608963786632166,-0.6042916164154656,-0.6633777768663834,-0.7253361524598452,-0.791755483951135,-0.8580981008352556,-0.8791162933970469,-0.8048681797219689,-0.6971102136838757,-0.6323246321780823,-0.6208009474404101,-0.6499174134514827,-0.6965096348085769,-0.7191611177321093,-0.6666708890037369,-0.5510444269225916,-0.4697651218839849,-0.47423934300928067,-0.5487077083857675,-0.6396629567526225,-0.6988951429721028,-0.7189048403760565,-0.7096258270404275,-0.6644127174985396,-0.5562322926526093,-0.3395373540472034,-0.029056354174965934,0.25203775004783757,0.4262840565107645,0.5131371003846278,0.5412742335427169,0.5233350485178844,0.4568909687213434,0.335050219855132,0.1696378853617577,0.031024614844326184,0.027042118268266163,0.24950860202647518,0.6605768185211417,0.9078762276269386,0.9764502220967315,0.9904982908081106,0.9911227070052304,0.988735036972718,0.9862386499330548,0.9848537658127505,0.9847897180752001,0.9861306558618445,0.9886020565389797,0.9915079855240027,0.9925414325259513,0.9864820911006537,0.960264795416171,0.8674266572504555,0.5018268354831578,-0.27230028725403843,-0.6725972231389455,-0.7980946826673602,-0.8498629852549521,-0.881267046442595,-0.9051291952688834,-0.9235386870295405,-0.9359350149383772,-0.9415562583912045,-0.9380859369694564,-0.9199954377655152,-0.8701619963862754,-0.7502774675483681,-0.5400812290450601,-0.2980209164431373,-0.07405162090357852,0.14263719219897517,0.4021201384659581,0.7929995119191234,0.8030773882205154,0.4276635963076685,0.24164376229594206,0.14431092452166727,0.08181261900594954,0.02072470535593473,-0.0988605479893794,-0.4726551772064509,-0.7030901544172407,-0.6709026898453405,-0.7401867993927791,-0.8386123915548512,-0.8973432646074596,-0.9021000240043209,-0.8736149336454723,-0.8111675679078806,-0.6348725496474669,0.11048100636046211,0.719219359888784,0.7224145232752965,0.6573942949660041,0.5636378679945037,0.4291938409621138,0.20428552975325814,-0.1654984115654127,-0.30173059369332345,-0.1330656571198734,0.13336977717644666,0.2577610281160381,0.27036877947891946,0.28082843907919497,0.31496470214645583,0.377636368020598,0.4792129142741595,0.6348883614326924,0.5915010606630063,0.3063240294113468,0.15651165796501532,0.08116326801293552,0.030990426329976926,-0.011373323071199964,-0.045552769295622124,-0.0660575907006098,-0.08801496061878916,-0.1412465141993796,-0.2602828826327988,-0.46896882358667763,-0.6872769034352366,-0.7308597282308674,-0.6774077726511075,-0.621459002950234,-0.5039799518419757,-0.17778707769707253,0.0773154700576523,0.15319621766620178,0.12420341548936209,0.0094661271827189,-0.17822345320404423,-0.40436885081652835,-0.6002887966088765,-0.7103501390559712,-0.7313706548258212,-0.6569763227319185,-0.2147050847374983,0.8688035771498401,0.9853296630732908,0.9865094660069454,0.9818202713692062,0.977017806889739,0.9711417355610563,0.9597681101107226,0.9321574834005478,0.8663584883673672,0.7692482304077995,0.7136958357780602,0.7123416199279629,0.7194423762717218,0.7196430849873388,0.7130699594003513,0.6989084028255383,0.6688139130990877,0.6064808614367393,0.4809500660779721,0.21652368229137284,-0.33741241386664067,-0.8552582860202177,-0.8534905676676764,-0.7118633080367748,-0.5330710290845084,-0.3322329973662355,-0.12028721703371337,0.09763318968877574,0.326799143073114,0.5682303249389067,0.7417274816515997,0.7682292601156149,0.731881263199646,0.724830615719844,0.7804697307818341,0.7842205474205236,0.6129570133854187,0.49270497306773386,0.4591202251407623,0.49393622848327756,0.583244556957768,0.14290711516996468,-0.11821161600440352,-0.22235323346951294,-0.30575974043677595,-0.40767537283534394,-0.5478546064186047,-0.7151906368624615,-0.854416695500554,-0.9238514418992341,-0.9430277616161968,-0.9430958783902819,-0.9369428200179017,-0.9232908375728962,-0.9038796744575487,-0.885482685530206,-0.8649150394976197,-0.8307283743536735,-0.7774517155250117,-0.7108468837188902,-0.6473374372284202,-0.6131434496132868,-0.6317789593199981,-0.6953570065540634,-0.736285415507036,-0.670317828934275,-0.42881546036588436,-0.06634588624527153,0.29170850471894616,0.5786454296042274,0.7358177987143544,0.7124379314174836,0.6066508120291098,0.5766581662298329,0.6651650935325865,0.7869529558793364,0.8594040129877097,0.8898137393548048,0.9037061429503185,0.9147603712233294,0.9199796403930824,0.8932032645616933,0.8142829460477127,0.7253899302736291,0.6593416672732817,0.5397406644182569,0.3363655816897115,0.13938305655200825,-0.047549292449928456,-0.23075617202774001,-0.3887019741711632,-0.5104392141847419,-0.6076750838351327,-0.7025779032828089,-0.8059138213342462,-0.9021891218841696,-0.9602130946345405,-0.972461528143661,-0.9624000801521404,-0.9510009280952422,-0.9427397071323041,-0.9328566105460397,-0.9073856215287147,-0.8078327509088522,-0.24531461429863347,0.6900901801780347,0.8941150588793475,0.9406132323392401,0.9570208150565932,0.9648620952511419,0.9688407443278517,0.9690445557943353,0.9614544944515531,0.9229846412193231,0.6853037107735398,0.1152612662771311,-0.13653887758855,-0.18572259967488244,-0.1829008501877266,-0.181924196275658,-0.256867270921776,-0.46613319989041996,-0.3007323582912926,-0.27113116665154924,-0.2769685637471751,-0.27761889858690236,-0.23093315502052894,-0.0023507648644171004,0.686498560670529,0.9473433590908227,0.9550109637314547,0.9498296433187666,0.9187768185502083,0.043167710797091155,-0.9454767590107267,-0.9581293640770332,-0.9591596916291957,-0.9640297130941793,-0.9644669950880367,-0.9028160679515088,-0.7119366545284003,-0.5041967858270128,-0.4064436987054524,-0.4782590154841596,-0.758021361409316,-0.6210584156497709,-0.4975022319695311,-0.4731045797526768,-0.47625385028330164,-0.4402298612414186,-0.19078013596090615,0.32130892079543927,0.6070174392300373,0.7142753862918386,0.7600602828605186,0.7846679314707881,0.7985973687557368,0.8035611570837208,0.8062929053562246,0.8169021831932682,0.8346778397767871,0.8516027475406229,0.8596323228349855,0.8527836761722568,0.8285422185239093,0.7772683930747035,0.6787908654890481,0.5123971151231735,0.30774287869451744,0.1663550838290733,0.14892206506914174,0.20123568930773583,0.2515354989507668,0.26820610195469285,0.24850332795265018,0.193021822456095,0.10133070675879632,-0.022134898942349292,-0.1638791235000242,-0.3095187047128956,-0.4339322345714666,-0.4896700012398905,-0.4740950508799736,-0.4261250068772016,-0.3798733728560648,-0.34938913701283764,-0.33605107322601296,-0.32450481140722703,-0.26213968225684886,-0.04022520702219165,0.31357807825908385,0.556760682326739,0.6693476987365218,0.7159423210217922,0.725653175462238,0.7014052408999497,0.6305216273751988,0.4916319198434252,0.27596302405914813,0.03655702596643752,-0.13320027712977925,-0.19546372130439005,-0.1662817412702225,-0.07353521405263115,0.05717255123315464,0.20335717367239142,0.3468291424893116,0.4736111831671431,0.5708424636453223,0.6371398073470008,0.6899406532301715,0.7356045130663714,0.762762850066457,0.7464923896856823,0.643265233907397,0.4088171642089229,0.11165887283092288,-0.10737295697270816,-0.2222733594048993,-0.2734306595618682,-0.30185509401625205,-0.32751131162793284,-0.35984704680889984,-0.402438278673263,-0.4572247995836949,-0.5254170816550362,-0.5844298972479139,-0.5579317469754537,-0.4327310601121093,-0.31195730500640445,-0.23063088260174144,-0.17915834444365522,-0.1464328787392474,-0.12431201255903583,-0.10517413746609942,-0.08549347040801765,-0.0673710602084542,-0.05690336040988061,-0.06352236476165407,-0.09073381498224804,-0.1386167820545772,-0.20892338027733315,-0.29846140286535827,-0.3834662247579879,-0.4266149683508363,-0.4047072748056838,-0.3042688221769633,-0.10151549015295774,0.11006935036810152,0.19809798868318615,0.2128068325293449,0.19958435072784805,0.18211484599411032,0.18178052819898907,0.21845114664039392,0.28980565783259127,0.3476430011650891,0.3187824046811791,0.10802990926945558,-0.39334207246175207,-0.8230482683460499,-0.9453914312117907,-0.9700510719722174,-0.9721679422848177,-0.9559930316908305,-0.8462339323273859,-0.17476081030721588,0.6364189220834066,0.8531183175204631,0.9213077151323512,0.9498219891443981,0.9618244706620768,0.9635601895255703,0.9546269755817386,0.9251778941694355,0.8427531857288673,0.6362701238481651,0.30207445262187677,0.004695833015522141,-0.1991791402007545,-0.3539146285605964,-0.48268958179697796,-0.5891838041199228,-0.663355383523978,-0.5964910687225821,-0.37728637334858145,-0.24071487246218237,-0.22838573982336566,-0.3338826252891864,-0.5560774347091915,-0.771461548145438,-0.8063616556559382,-0.7467317389579271,-0.6742768015017735,-0.5861079194180923,-0.4773790097644384,-0.37709635889467524,-0.3121579151913922,-0.2843876792095612,-0.29120447111577036,-0.3463571451144725,-0.42625569121361023,-0.4772531692209626,-0.5170267926038362,-0.5796946283760082,-0.5504895802700742,-0.2353896491748175,-0.044643480472074976,0.01993157180940779,0.013323615903334477,-0.0864041375820648,-0.372425064439241,-0.6409685174195031,-0.7056730044335103,-0.7408592987596383,-0.7805371485523727,-0.8180011447139187,-0.8431772662982431,-0.8354654758923377,-0.7410090539198831,-0.5081268203972009,-0.2484770550182893,-0.0824558758466019,-0.006737984020806075,0.005569849454226618,-0.01518083566201591,-0.010999637316359669,0.16363789930505301,0.6215247830253615,0.9043500165189614,0.9682563757401308,0.9831060466034055,0.986108358635709,0.9758836043501748,0.9029707971458935,0.5879216249051823,0.15861422521182678,-0.026070146057490935,-0.04233095614963509,0.0452488075194992,0.18317383747317295,0.26772199597901297,0.30095332841328587,0.33038648120821296,0.3703732183131477,0.41993507295113786,0.4684378513831864,0.4421186116072293,0.11505814399212287,-0.16121784720471588,-0.25883652766787746,-0.27277458261214604,-0.23009168244022657,-0.14681750175471459,-0.04586792573476316,0.04343759887979736,0.10317895189947618,0.12726009144464334,0.09996228928620499,0.004315121784900679,-0.1567819018854146,-0.3573467805634321,-0.5844505431585505,-0.4206667334412936,0.20947501210469222,0.37360837886444065,0.3695087338602983,0.2702786052613031,0.11266864985947106,-0.038943063298464094,-0.13144997166026917,-0.15792436065417267,-0.13199849393000637,-0.06302626506241332,0.05598884991839099,0.28076825349430434,0.6592719839878192,0.5683864032366849,0.39488787786791263,0.2986834444146706,0.2336421877410422,0.17783625434239012,0.12621309069892417,0.08141671987431573,0.04445468193867501,0.012057464237892957,-0.019720375298265792,-0.05384049165436083,-0.09315201139411036,-0.141626339961155,-0.20155869420252268,-0.2769749723908364,-0.370177874144914,-0.4724223946735424,-0.5362040056089271,-0.4912550224599087,-0.3872424011082504,-0.2919088340642688,-0.19307542268727027,-0.06756261519369575,0.07589105615882442,0.21126612554978177,0.3194075510446568,0.3891969393738711,0.4189208235758913,0.41561938549775407,0.38876883223451414,0.3466065150268548,0.3082212945422173,0.2888425295297081,0.2915603761692637,0.316928509135517,0.37597884867915815,0.4166996792695463,0.16100156246096345,0.005430708557599793,-0.077645509313231,-0.15669932699278236,-0.2726753013672,-0.4618483695373896,-0.6807632794766997,-0.8017804556227871,-0.8540079645090191,-0.8933860975146498,-0.9191556715280291,-0.9292022916671746,-0.9333749089400863,-0.9347743420787182,-0.9219299340859648,-0.840148828144887,-0.2405866254605007,0.7219718679060467,0.8957925719611759,0.9327433280499918,0.94109115760611,0.9379354853124747,0.9268476210367518,0.9081528902102343,0.8820763234838292,0.8519355466720139,0.8259172421803056,0.8159836283880352,0.8285219750708256,0.8536707240386114,0.8683194730893962,0.8365950067691272,0.6626534187088322,-0.0002038264503570033,-0.6463293529494432,-0.788956370824583,-0.8239339319393958,-0.8463237085804427,-0.865853328672016,-0.8831092008612058,-0.8987243891455824,-0.9129136952766591,-0.9237706493161064,-0.9322365741464076,-0.943490504897851,-0.9562059615794836,-0.9283283831318924,-0.8099424901288065,-0.6311454183411986,-0.44139343359699557,-0.27315728581139015,-0.16484077061256022,-0.1597822542269084,-0.28490809730201444,-0.51198039150654,-0.7403413957663482,-0.8919392821511384,-0.9707647074459536,-0.9930581524805432,-0.9564277842878309,-0.8451960920225146,-0.6557898300511401,-0.4307284354359316,-0.23176147233600228,-0.08275985722249311,0.025394624796208694,0.105289401457281,0.17165583954948974,0.2404252683328947,0.31910903219324616,0.4035883115030922,0.5007681473851253,0.6456957211805565,0.8362916869466975,0.9603497615580765,0.9721942351220537,0.9397966639989481,0.895351213272585,0.8367393489233693,0.7477144992943094,0.6023530625464977,0.3714326252447357,0.06484565119559041,-0.23853168556585544,-0.4840494252902548,-0.6868693930076383,-0.8619590254088404,-0.9635015450506678,-0.9247658112943528,-0.7962439374939141,-0.6658649579718671,-0.5602855884439926,-0.47602909617974926,-0.4122937265393416,-0.37231824464287766,-0.3590773289720364,-0.3727541882941718,-0.40369738790224274,-0.4415554928934191,-0.482322764867307,-0.5229737386294154,-0.5671869933387784,-0.6228688078222581,-0.6985484857182782,-0.7694384706309714,-0.7932496880452113,-0.7791358965898275,-0.752036195048492,-0.7238195735321149,-0.7071658025671279,-0.6858632884546703,-0.4526310217103937,-0.10266473648002036,0.08153364105425674,0.2166322863187623,0.3338650566891195,0.3367968551920821,0.2772592371941739,0.240134878290251,0.23911354456483813,0.27471381053703375,0.32686905758620227,0.34258128357043377,0.31967626868402244,0.2998782846375012,0.3009199383643652,0.3240204497366008,0.3613553030711603,0.40548353004691834,0.4516599452461451,0.4997722816946655,0.5532005363904728,0.6177539645022565,0.6941734943343522,0.7788850237127236,0.8560109391947611,0.8826829165410056,0.7630822241723786,0.41911288726953166,0.05121914023060079,-0.16770077951707185,-0.2691095829788019,-0.3045894257493536,-0.30431469972871,-0.2879951300880342,-0.2701146400287868,-0.25668226694461965,-0.2510071946788594,-0.256383870177238,-0.24336145036048845,-0.1867125863715027,-0.15245436956601044,-0.14817872762884607,-0.1664198325810208,-0.20995672057165565,-0.29907791061551653,-0.2807047695797478,-0.14496539180546641,-0.07340649413674888,-0.018159622954609794,0.059736534286225024,0.21166797325355208,0.5283999307387671,0.8568088716681931,0.8953663991422819,0.8667135163824765,0.8492564632458588,0.8344973524528985,0.8055942809721395,0.763744749144785,0.7435087043435554,0.7694446874185951,0.781456691415829,0.681667746183085,0.5734019447291329,0.5223623313332784,0.4776715269870633,0.38851246862132643,0.2683672522397075,0.1152818912199534,-0.12537168698056292,-0.4732598732029442,-0.5161601698596832,-0.33138037798770575,-0.15862281485579705,-0.024119229714337845,0.031984417967067205,0.0047226155828818586,-0.05128161459311764,-0.10655511000205756,-0.15744514834529894,-0.20805732315752148,-0.2579551123937442,-0.2988956970481904,-0.3194885608993237,-0.32286863020262413,-0.33310856291052415,-0.39850176003010307,-0.5176541765438207,-0.4453734039495441,-0.3636513559399434,-0.33821488480940043,-0.338220296373069,-0.3405710005834151,-0.3220539224222599,-0.2672349616708101,-0.1805766674878657,-0.07055307067151474,0.05396797148156902,0.16413849860836124,0.23213966001253522,0.25256691632605927,0.22114896891263722,0.11748650122341826,-0.044163889502331834,-0.10019906167452074,0.00697422166082907,0.172860367744297,0.30830241809105824,0.39124897463370095,0.41310881988607784,0.3655084838740764,0.2729452583932491,0.1814552995822063,0.10452346663675416,0.03090030241818032,-0.051273330284005304,-0.14593821339017943,-0.2629483527053103,-0.42390218683863445,-0.6316680915287278,-0.80658102795952,-0.8470464003349091,-0.7596362302149635,-0.5810755322015452,-0.30792983754653364,0.006626642561977802,0.23998901100137446,0.36273243029238145,0.4167787353738393,0.4345867026007068,0.440988695104897,0.46218083201194055,0.5275679326750523,0.6375932045767293,0.7496435580598182,0.8217164149364358,0.8514920835553523,0.8548152898378436,0.8421757048357936,0.8125633808637095,0.7558231566585677,0.6470013569874554,0.4298159978582591,0.05257888168027512,-0.3145844688858441,-0.42897985514615794,-0.300822518824925,-0.007187153857437238,0.29298496528885976,0.4704648393785175,0.5231238882827095,0.42798112912890507,0.09986652875705114,-0.3348569524582384,-0.5874925592893362,-0.6873209575181751,-0.7191008122229664,-0.7215794068209358,-0.7115246836090614,-0.7010465358078639,-0.701690511983476,-0.7271986647460774,-0.7916747412260223,0.1787193087427761,0.5763958143643251,0.6583334174937785,0.6786000633278254,0.650128589827965,0.5586933940992032,0.3987264603271965,0.21019884600649957,0.05264713277892827,-0.04933958517213022,-0.09760321388112538,-0.09463526083468737,-0.04096426434337097,0.062120642605210497,0.2033356873782319,0.3681639189516192,0.5420340786429534,0.6512095366788122,0.5424253660951869,0.15196555057129948,-0.39477664648016475,-0.737970281495916,-0.8521620231803846,-0.8820017497763855,-0.8824842340982091,-0.8678116740990642,-0.8427218154333596,-0.8017195415945696,-0.6540923093592167,0.08961161862514097,0.6518156621583565,0.7685663245912336,0.7932594652832516,0.7653471697161685,0.6412334512756227,0.2750696474432919,-0.16137947471105218,-0.3325170495438062,-0.3922968478852628,-0.44210056941412074,-0.5225630213999448,-0.6475790619129312,-0.769883623129863,-0.7630950541550799,-0.63379563655387,-0.4887829278891513,-0.3737725758182724,-0.3130803770577138,-0.326183239112649,-0.4151419454791819,-0.5581615778091534,-0.7089195808693082,-0.8206974766521966,-0.8785754521241468,-0.8900601163809919,-0.8578018289386632,-0.7701826438777226,-0.6255535297098521,-0.4661267029676634,-0.34351753816374236,-0.26189256256007276,-0.16384787122594122,0.04440884728981177,0.37980587520086884,0.6719916602351911,0.8242812157285604,0.8907354298827705,0.9158824546825022,0.9115890795648095,0.8906619202422993,0.8977160118097117,0.9313835256481049,0.9495132350507335,0.9550339953209488,0.961569324642442,0.9698762670458809,0.976249478144308,0.9794427433830032,0.9794320804509812,0.9769763519621791,0.972957274562868,0.9679466292666318,0.9571077159944863,0.9454736920015143,0.9570391200126714,0.9713909945566646,0.9721723466777319,0.9599457639633422,0.9288798813738802,0.853619710358794,0.6768640069178695,0.36593269703124987,0.05022177376765429,-0.1339261798552796,-0.18769448631304242,-0.1580403437696762,-0.12369667920570551,-0.1509531041545689,-0.2553652000623501,-0.40330184719058565,-0.3755701712270989,-0.2947814996505216,-0.28118829421426056,-0.3212279313303931,-0.41883491882155593,-0.5762557187899794,-0.7260777189069206,-0.7870843365600102,-0.7672475035123232,-0.6630007913960342,-0.4378424483464002,-0.22591121751230528,-0.12007369690221578,-0.07514083449437807,-0.05138181691634092,-0.032977447246148414,-0.014227685271895727,0.0038736452102205395,0.01860442247602642,0.031141062226645755,0.046972195918912996,0.07929776671914414,0.11151837352133329,0.03752226481087245,0.0029411764623294067,-0.011043380781802205,-0.012548082126545129,-0.006045805418636247,0.0036546437725005964,0.008973395296771174,0.0004067070488722507,-0.028473940913490304,-0.07583280686176301,-0.13347385701909828,-0.19845539991293662,-0.28788963019772945,-0.4368596006426637,-0.6665311202608145,-0.8861711110409283,-0.8974507701148516,-0.4610975819492096,0.38467983227980124,0.7606272303637346,0.8747459968049185,0.9111759103221676,0.9136695180371158,0.8812234130242048,0.759216912057882,0.4057512701694204,-0.06086828520814735,-0.3017448435160022,-0.3635144513945434,-0.33319130446615886,-0.2544962861070052,-0.16665665855455872,-0.10599090923198916,-0.09558296519302929,-0.13728497891555516,-0.21204935247724438,-0.3008803760788793,-0.39928348566688854,-0.5181937681231241,-0.6349072842186458,-0.6410058611001654,-0.5661469757581021,-0.531227734769928,-0.5528004566337434,-0.6241288649533847,-0.7264821704871048,-0.7650324737545067,-0.609920945568317,-0.21645251964103482,0.521320318011446,0.9388514770629122,0.973228706251564,0.9684908928962188,0.9684948270798261,0.9710620254875587,0.972678927068739,0.970947595863639,0.9628735545626265,0.933231431748739,0.6666021540056739,-0.7175152055399193,-0.8995427270039688,-0.9203956795440454,-0.9175149334675323,-0.9032197672994655,-0.8829369254734252,-0.8645442113610776,-0.8532686034163806,-0.847126358259268,-0.8376808184845272,-0.8339882945523746,-0.8449212046643113,-0.8523736000832127,-0.8436312389884887,-0.8249247832332762,-0.8005735491554442,-0.7683938942528186,-0.7209783276593602,-0.6433384077953506,-0.5045499741371832,-0.2851197730393036,-0.058991653862381296,0.08588488655596017,0.15234028057227847,0.1631082728167923,0.12539030298772344,0.041618404667428936,-0.08327698411507976,-0.22071250270962672,-0.3253427516085618,-0.37906477752128215,-0.39436120004589453,-0.38011282990815604,-0.3201530417292428,-0.16061046876214707,0.19068583812660098,0.6055550797162621,0.8047453054728114,0.8627847657586554,0.8676364260738794,0.8474299107101796,0.8159281175661465,0.7885019038047961,0.7861001243034021,0.835406291793178,0.9013513869422667,0.590042012230511,0.19931452226802898,0.021894598495307272,-0.06793684662691396,-0.12795925917439,-0.16981281894557312,-0.16847823839832574,-0.09620162456470122,-0.02980971839591713,-0.02729888761318033,-0.089875657574508,-0.2158905620132438,-0.3876949255725612,-0.5593221786431425,-0.6919406471546303,-0.7798101108864319,-0.8421046796183962,-0.8926516846741616,-0.9237690190336971,-0.9168292389806226,-0.8814117842632628,-0.8428292897402204,-0.8101018059069289,-0.7826570629153654,-0.7593560625507487,-0.739332979163289,-0.7173906307329972,-0.6779018796095827,-0.6035743749246808,-0.47814872529389874,-0.28362139893452293,-0.0007605222455362503,0.3228014703827491,0.5719705609016473,0.685551369055805,0.7055061177818057,0.6940742090929211,0.6777238861239361,0.6633167343138141,0.6546743492476056,0.6563519100368326,0.670341584558644,0.6928428026004583,0.710022045873903,0.7079691497040695,0.6790965129532816,0.6085065500084056,0.45987510988788805,0.22435563066012185,0.052877209190214956,0.12418946304809923,0.4376446381082787,0.6819768591638836,0.7621525573579025,0.8009936112683822,0.8514601906282748,0.9072622203082812,0.942851719930446,0.945769192259667,0.9257442618177799,0.8947226611117618,0.8559986800061918,0.8097336244446667,0.7491225395803991,0.6350892582841987,0.2003853310369859,-0.5977584907402848,-0.8156045347299197,-0.8933391680794766,-0.9270231137070579,-0.9070838223514933,-0.8468307298078582,-0.7973564454644009,-0.7909808267038079,-0.8174692104310187,-0.837239987790823,-0.8264041830304578,-0.7875855767211484,-0.7285053875662624,-0.6502465660773784,-0.5489533463299155,-0.43121022263051595,-0.31740271731311753,-0.22278447532830825,-0.1517131641801762,-0.1057803496959418,-0.08087552681062771,-0.07651091461851378,-0.08794348433227861,-0.09185838286966819,-0.0626175487449484,0.013864129830589328,0.09912862711693847,0.1476921911410132,0.13994130807644936,0.07148675514802887,-0.05384818332995317,-0.17913313074953255,-0.20203871435808102,-0.030391632376370957,0.35222338058206704,0.690574415832526,0.8429165214553874,0.8997406222295039,0.9182025449333027,0.9132495809017813,0.8618385647227014,0.4707290256897546,-0.5554469282741153,-0.83673881583389,-0.9405215154768576,-0.9605773542460179,-0.7933867463429429,-0.534588782438528,-0.35338775613687234,-0.2696387578826387,-0.28535056726060964,-0.37471639650595884,-0.2324130984342391,-0.15385264618904554,-0.11203574347961029,-0.07029543050365275,-0.0003634063376728996,0.17104052113598636,0.6022560864009658,0.8067593685244822,0.7639604318567134,0.7357528664815216,0.6792766563557542,0.4674454187390787,-0.022391223868432092,-0.4564296448816965,-0.6484946891959771,-0.6932018863402895,-0.6447150826446411,-0.5387667722763448,-0.423689290492939,-0.3365142929855785,-0.24883475792697402,-0.07935380332111056,0.007476890330837508,0.059026035831398344,0.14252260187901009,0.30688613814765264,0.44525257655561057,0.5112984981138187,0.5729628714678318,0.6420976807776834,0.7083019052097849,0.7242542846620937,0.5611449006882446,0.21026027693419835,-0.05492282107444657,-0.16555936475016897,-0.18332478813520087,-0.18028441859614514,-0.1919539833999006,-0.20020184234342134,-0.16600804609222886,-0.05172751290920132,0.17413515645837646,0.4940546856285612,0.7944631620181276,0.9576264926497484,0.9413776785886364,0.7229916954710299,0.3701723538199667,0.06159752406111596,-0.12238951563513022,-0.20733395250741557,-0.23243937533014056,-0.22500990096679457,-0.20261364855509156,-0.17714190101868318,-0.15698613254524277,-0.15424777679095397,-0.18680316165542826,-0.27630492083610203,-0.43789280930848656,-0.4943766029077926,-0.31789530162811375,-0.21210909438766826,-0.21021579701627968,-0.35844009704816227,-0.48106220302882946,-0.444519899074245,-0.4533896004162008,-0.5047410440965443,-0.5933030692090512,-0.7045250339619243,-0.7965878156633464,-0.8383706609780679,-0.8564846037068353,-0.874690995692464,-0.8887197420629409,-0.8935629011192099,-0.8913033454952752,-0.8848706294831884,-0.8706121971092661,-0.8213536604012058,-0.5419576373817633,0.6197613893422695,0.9319121962433651,0.9729063764886404,0.9832323564425037,0.9842020381827109,0.9768385297865909,0.9541151566931186,0.8916701398424076,0.717575318539075,0.3333912639311165,-0.07573781946300547,-0.274548594426439,-0.31349329052666464,-0.27262157435244333,-0.21315478594979695,-0.16859123514871857,-0.14281318437480617,-0.12024550178217602,-0.07731441586938789,0.014242975483096259,0.189528801367112,0.45908267007027476,0.7353061549470697,0.8778943264134105,0.8375778589346536,0.691562119378155,0.5500161808147448,0.44750452696565063,0.37397685529331226,0.31825121711681836,0.2719962219713506,0.2297599386832388,0.18003856015296943,0.09546127867821644,-0.07454226408275469,-0.33764266643573915,-0.5404685523201697,-0.613381000776653,-0.6086367348931001,-0.5531313523228704,-0.45072619764411476,-0.3109809768695753,-0.17497262097177116,-0.0894848753591834,-0.07495288058508866,-0.1408165837956353,-0.31361067903916034,-0.6010501197652083,-0.8078192987784288,-0.8226283657045375,-0.7901961980263974,-0.778301929132253,-0.7978671859049528,-0.7796189146344891,-0.5788709072601413,-0.3446074182084652,-0.19645337394610732,-0.09481445500786005,0.002678589687962781,0.12847126243356674,0.31681043435054335,0.5720744684049361,0.8026237531770503,0.9264391265077522,0.9744561017813896,0.9907500823825789,0.9932356060626761,0.9790341840730672,0.9066022606386965,0.6470797350926912,0.21723078534714987,-0.06936614357475859,-0.19010910061845238,-0.2286735823236005,-0.22957098427304984,-0.214826676288498,-0.19139922987412308,-0.1471842560405608,-0.012515720526734971,0.3445936352616988,0.21091563113007708,0.08387938176072651,-0.06164104500332076,-0.2160070275648329,-0.3405373271103096,-0.40797786196230695,-0.4247446429683885,-0.4230559264514126,-0.4345180701348317,-0.47440916273099804,-0.54243611854675,-0.6178439808178198,-0.6468453143644435,-0.5910137816885672,-0.4855590774867026,-0.3797876076703965,-0.29365428453417886,-0.23164831818877488,-0.19676387034361867,-0.18454858488423814,-0.1818757732329288,-0.17438733647701649,-0.15991257972260617,-0.15376773251228915,-0.18647070822231016,-0.2849459011874035,-0.4631898435840662,-0.6869297905849158,-0.8331619516153925,-0.8354132831268023,-0.7519261155915621,-0.6420491125004995,-0.5316787563532791,-0.446337859857903,-0.42003532611752287,-0.469339984552512,-0.4480557524265378,-0.25518649808865873,-0.1108231704836663,-0.007005133764755994,0.08335384407379785,0.17627417317019814,0.29460473350856103,0.4604004910448862,0.6529594187772094,0.8044220041698718,0.8885634031876756,0.9246048590296424,0.934482101969271,0.9297200418096853,0.915370935507891,0.8893553559953802,0.8287940160683448,0.6345673552273328,0.12960961125409423,-0.32036745114565435,-0.4706971405107797,-0.4435969490735945,-0.2875407693596152,-0.04643514331529464,0.16916432970330264,0.2440142583573618,0.04092261739219114,-0.5004219508888959,-0.7417779878372768,-0.8095245766193842,-0.8453277356059178,-0.8675262130760599,-0.8717473067852278,-0.8386436630530928,-0.6992147014896055,-0.2858025230146856,0.31926992455689995,0.7124876401139707,0.878548738780909,0.9373881484473298,0.9542604202293973,0.9520574184301267,0.9374309214701946,0.9118326659316793,0.8737174311536343,0.8106753849163677,0.6767709577794992,0.3148677213076915,-0.3678992112132532,-0.7591255988553404,-0.8771911295072422,-0.9138183409835898,-0.9200990768423093,-0.906568192194086,-0.8675526457404044,-0.7848262531382101,-0.6500236983937402,-0.5121381163827282,-0.42165930151542697,-0.26324688069006935,0.31417890793726255,0.830742259491532,0.9468952391681132,0.975475958186674,0.9842733529208232,0.9846322496129257,0.9735348495689653,0.9139967299232743,0.5227334932287359,-0.4119673081941271,-0.758631246513239,-0.8747833717762087,-0.932476920780692,-0.9393610710312945,-0.9199334092332049,-0.9309685670350086,-0.9589595482403462,-0.972467607231891,-0.9731789494585381,-0.9709148223516253,-0.9697765003373926,-0.96953147980905,-0.9664152573191714,-0.952249941575453,-0.9117989558306008,-0.782128206646187,-0.0899370505647695,0.847856466081419,0.9665167420415892,0.9778191547440587,0.9683422547096303,0.9412094310852811,0.8839222069915894,0.7781920304361963,0.6239720084401006,0.46078755427701085,0.3380164401226605,0.2591953649187023,0.18238772350713195,-0.034764321209594884,-0.3035694308970124,-0.307450523062096,-0.29163276992037945,-0.2819523540261352,-0.289693336018784,-0.33159450962170256,-0.3666788237300845,-0.33512574115225446,-0.3012662605922233,-0.2902231996969501,-0.298810872924356,-0.32788257511371316,-0.3797316145703841,-0.44867978133151093,-0.5158812145626639,-0.5759574947024008,-0.6306212927140007,-0.5682586286321331,-0.3995181250120505,-0.28036651051455214,-0.21565079985663307,-0.18525742459231248,-0.1657897868364777,-0.07145213762682663,0.26576585562162736,0.46020281001947955,0.5038582856507356,0.5319767613713547,0.56759899573074,0.6162660430461682,0.6840811079287011,0.7737163400768551,0.8444591236382222,0.836763628151766,0.8128497538099566,0.852331939115965,0.9297283244853586,0.888419509887958,0.7774785755117559,0.7141497511966792,0.678757413272515,0.6306604246580222,0.5265293402528358,0.31551921459927046,0.027121915129773647,-0.11840616449218347,-0.00012767824463684197,0.27096636725746615,0.45524551388608625,0.5108965115968868,0.4899574500436414,0.41733780408466903,0.3378942764415784,0.3060122539487987,0.33278403522452715,0.3701126459922231,0.3466062019787194,0.20717428509944366,-0.02175131623343646,-0.23981780596982802,-0.4007181075364834,-0.4914457147615755,-0.40968839615359226,0.04599984779839699,0.5104688785119185,0.7121725809846688,0.764682239368139,0.7078061241247968,0.43173007032710853,-0.253991259333952,-0.7023802762075331,-0.8149239899650952,-0.8086670177584777,-0.6769324814796523,-0.12436087647327064,0.6591024400197832,0.8320153783044534,0.8006553148711182,0.6812977884628029,0.4979995487492936,0.2993156913873926,0.14644030949240788,0.06303588590710188,0.03743337167641834,0.04933167258451997,0.08057528897219766,0.12200270006298701,0.17420304984272406,0.24699815200226516,0.3529005572720483,0.4071917211815118,0.05142130863600068,-0.19202411512702303,-0.31970781879380045,-0.39528206287006673,-0.43026294359740946,-0.43024662016272736,-0.41986067228341595,-0.4281799104173511,-0.4644073989254198,-0.49533258726956836,-0.44186441342274035,-0.28563286337862603,-0.053533782279305706,0.24454480518235255,0.5629895367701336,0.8022038118433233,0.9061028063844577,0.8916745297114687,0.7531537454129882,0.36480276922820537,-0.2541160284655215,-0.6044033061631023,-0.7164104043302817,-0.7471629282952014,-0.7525761054184826,-0.7505146753149676,-0.7417041952187088,-0.7216937314749143,-0.6863862531383523,-0.6324191187463607,-0.5507498799143031,-0.4426369610741332,-0.3374337664023142,-0.28152013443763646,-0.30257088483227906,-0.37474600455324797,-0.44540750142224156,-0.4830022252846626,-0.47511552906246396,-0.40190694697132,-0.24615331557623485,-0.044024558276035027,0.1314486509661829,0.2485183536659772,0.3129432452297005,0.34041193712327394,0.34536078951236804,0.3449403466586497,0.35614201049556177,0.3812560766824318,0.3818069685311207,0.32635692013437156,0.2644278791456014,0.2236245241014555,0.2065733112536602,0.20706364074065314,0.218399456341687,0.23041483323528386,0.24588532029442603,0.29042326827274223,0.3823535796831871,0.4922763301624524,0.5808307831349125,0.6484795606303184,0.7084077278731791,0.7677295360720402,0.7999937211230564,0.711266199357489,0.5153290040519015,0.34743551334013967,0.2261538989923485,0.10720927292843063,-0.0497566809061462,-0.09002773468175995,-0.06393576691134653,-0.03226174158435724,0.0007882488974260644,0.030101380619445527,0.057507995957710764,0.08703249440989605,0.13419350169457941,0.21470106281329124,0.2876962437350303,0.34378961697726534,0.42646697516589505,0.5449126196107342,0.681690821169876,0.8015099232786115,0.8713056804314291,0.8856456957145661,0.8442175694325285,0.690280886656951,0.049603699037089624,-0.6299624243541593,-0.7854617186235883,-0.8404721577571105,-0.8751004311850284,-0.8968662620118083,-0.9051903482910968,-0.897561923692919,-0.8642200661654973,-0.7928472497720835,-0.6894149169819767,-0.5828636820106887,-0.48572254262245607,-0.38871184061870767,-0.27373130612162727,-0.10725700049082695,0.18214542971793388,0.6081221328359614,0.748983899496504,0.65972541193696,0.5685821569826947,0.5096794064728246,0.4911589251376346,0.5108872892571735,0.550539345248136,0.5928321343869876,0.6324292958648869,0.6838600859968829,0.7645376410145321,0.8388110696123505,0.8696813122707887,0.8719307602473341,0.864083351815542,0.8513336493283823,0.8152563369929497,0.5178029675194935,-0.41134543703133886,-0.6711018705436785,-0.7338974690415487,-0.7424396590015256,-0.6948512737444392,-0.5755823571146473,-0.4059481552813276,-0.2791094010032506,-0.25920423686938787,-0.3176202115153915,-0.32130232544938475,-0.2546269633337363,-0.21376571630714472,-0.21133727993974966,-0.2608438573455219,-0.4385323913406315,-0.7141899494908723,-0.36849049413664775,-0.21839808717841758,-0.13743834799317614,-0.055037156134237514,0.08890503030079268,0.41189756145089207,0.8666277777429123,0.9301895321666968,0.8957178058915563,0.8992850927959715,0.9247077478410302,0.9442212198556869,0.9428844572548308,0.9188996475816472,0.8779613935437567,0.8294699232089547,0.7679482660875045,0.656959462785411,0.5080166020555701,0.36580988539816706,0.2346586415354022,0.10391238227057195,-0.02202718150826373,-0.12438819041280699,-0.16427437657433694,-0.08724642342991552,0.15147407019937006,0.4688540104192769,0.6855952503077882,0.7716140387071854,0.7746864752313282,0.7047686464975749,0.4981971250895982,-0.044668083071349535,-0.7027589489398995,-0.9193208975476652,-0.957295036659218,-0.9497976261488147,-0.9175021968551875,-0.8568742162879929,-0.7702497811874756,-0.6803219503497013,-0.6143760197569423,-0.5774558097946785,-0.5532613600585365,-0.5184153399130969,-0.43943148281009675,-0.2538210936448625,0.14023405005709252,0.6601886905165271,0.88849724144662,0.8407666810471345,0.6277777619401158,0.3022946331592532,-0.01920151184426073,-0.24976562436015515,-0.39539882024267836,-0.48194779168872387,-0.532102778744955,-0.5695158024334807,-0.6107106826760315,-0.6616097581376061,-0.7211880167435165,-0.7861497002730006,-0.8503513499733408,-0.893776529382057,-0.8841057844752349,-0.8081817106704009,-0.6815477248235019,-0.5292664854350186,-0.3676541074675416,-0.18853056674466834,0.02913552709194832,0.29566085289150684,0.5280225899994586,0.6249842523454519,0.6491935705214897,0.6632329855070892,0.6629593278402516,0.5947790342074551,0.38329924251715436,-0.016461180996103157,-0.4341708457267585,-0.6424429026840909,-0.6840353445581038,-0.6555904143130785,-0.5853286459786484,-0.45536745590215016,-0.22912222905373913,0.10158634256850348,0.437334690198485,0.6709710686833583,0.8027278418788658,0.8761710701216173,0.9192759780011318,0.9459307119962859,0.9595466375450162,0.9626669375476999,0.9583848355598735,0.951707528941032,0.9482381522583063,0.9490532268362326,0.9522781076508167,0.9554865577428423,0.95464256666199,0.9435163459407461,0.905540286775842,0.7317944454738743,-0.09260922271918738,-0.5789101548287716,-0.544956109147715,-0.25000713337947833,0.1518422613712743,0.40342249083067344,0.5269504533500007,0.5992791513825199,0.6551500481557544,0.675824556279912,0.5641408322946302,0.3293676674550293,0.1481491754865975,0.044494380447322936,0.006788368823396315,0.03921426531739138,0.1819194656017875,0.4763052652613132,0.6894471639708575,0.4376350296390378,-0.10876100537770497,-0.5639122596307661,-0.7836868619070061,-0.8693734538917106,-0.8566782895208308,-0.7069690899234876,-0.27246920476955094,0.4686989486990004,0.8181209931954794,0.8694246273996886,0.8476219864828881,0.7552274833360102,0.4667274553597242,0.07033259918295212,-0.24549063620480688,-0.5388442515333627,-0.7747295833845551,-0.8995176925366274,-0.9494902205665459,-0.9608208493459149,-0.9539291725513975,-0.9427318987409417,-0.9335995465942657,-0.9256402031903889,-0.9065684571362995,-0.623339654922058,0.5456384566627795,0.7877586403491722,0.8649671578634343,0.9157023600238924,0.9536757265595484,0.9776188850072098,0.9890763716639905,0.9924773092231105,0.9891940311755218,0.9591380644724062,0.43885302450373304,-0.6924690930162014,-0.8026254855332131,-0.7507964873260274,-0.5437738620039262,-0.08580519301243762,0.41671074051823387,0.7160420589934455,0.8602583136928917,0.9253532535857103,0.9541848020609627,0.9670251374403481,0.9721937659638656,0.9701746860660807,0.9028001886731871,-0.5800067495367309,-0.9376310967213629,-0.9789369526087808,-0.9827049766998587,-0.9379514242817422,-0.8223685997671667,-0.669370807390246,-0.5560030419455445,-0.5604357751082013,-0.7594815325090489,-0.78753666711933,-0.6699575412963491,-0.6593690526077302,-0.7034444062298323,-0.7717066327129958,-0.8495694176223721,-0.913620146742578,-0.9193745578736974,-0.8724249755211967,-0.8386376525456009,-0.8333961643449936,-0.8420321992031503,-0.8506667873716663,-0.8438418146637753,-0.8171594751690516,-0.8155088620440775,-0.8484196695044738,-0.880291639945147,-0.8961775474519642,-0.9001042940768608,-0.8992821553201573,-0.9017595904716447,-0.899632256075221,-0.7395737304736354,0.011696213878229788,0.4003653283866186,0.5292752513467828,0.6083251450226546,0.6627177522187422,0.6458701362155886,0.5547336232089818,0.4529114306912764,0.3867080546942223,0.36575413834844245,0.3850788926375882,0.4397103276503727,0.5250304692024708,0.6397013635501089,0.7882774546792839,0.9512291724862451,0.751478917998203,0.140329306464787,-0.16143812093432577,-0.28966204384854766,-0.348188719106343,-0.37304389158717144,-0.3804479903880366,-0.37922697602062705,-0.3735035324152145,-0.36525701356445267,-0.3562815114344666,-0.3481551516035475,-0.340829523792273,-0.3328976599072301,-0.3185949470087739,-0.2843058740665897,-0.2026809068016873,-0.038658764729742376,0.18429496737946202,0.29530083196708035,0.23462715862516167,0.09342135552953723,-0.06098501612376112,-0.2134582182946859,-0.36412234377594943,-0.49659383813659,-0.5881048269520323,-0.6144428419100708,-0.5481170605229119,-0.3265666029962841,0.11565302843602294,0.5724821540580715,0.8154558732823296,0.9160085073342138,0.9485736863146993,0.9327348197305165,0.8836489367310648,0.8386492534487799,0.832930856503729,0.879593496840403,0.919719003618672,0.6977963277935152,0.2924068153183804,-0.029696538211714172,-0.3077975915621259,-0.5473212464300914,-0.6500902761744676,-0.6157890643099527,-0.5400440358202597,-0.47548927379549605,-0.43647778798005704,-0.433038151269672,-0.49640932643646757,-0.6260644420773452,-0.7393942132949974,-0.7958102735146244,-0.8156496463294822,-0.8203104892879336,-0.8258756916224791,-0.8418278231146553,-0.8622605450347975,-0.864594625709175,-0.784719013067916,-0.483132212933681,0.04313360006066209,0.4872397595702895,0.7157242944838429,0.7782370074031413,0.7499856846190861,0.6651113591726124,0.5426406128983644,0.41323520540536,0.3061127434957205,0.24937852896948035,0.2802056552662209,0.43183692870844603,0.6431420517038083,0.7915247436622451,0.8588552604652601,0.8775830367986842,0.866014414652834,0.8343022379471848,0.7977179408445879,0.7883081252266159,0.8186356080132587,0.8308623383971592,0.7815213160043667,0.677547972450311,0.5225918228728393,0.335879189687751,0.15636095436729827,0.008313153252247829,-0.11267762494186612,-0.21275261015893301,-0.2905246403708956,-0.3486898389003701,-0.39633143556969314,-0.45381498279446886,-0.5454157510954311,-0.627967758837435,-0.4757608106782049,-0.25708149742850134,-0.12000429220405223,-0.02897165577645852,0.04293773204785979,0.09703241459130672,0.0964588740097558,0.05269042224674525,0.014325717034526769,-0.014580448346382389,-0.040755459540750195,-0.06812344499998002,-0.09707005992380298,-0.11857732209449821,-0.11733106498390902,-0.09155723654968542,-0.05014678899108611,0.00780504739433863,0.08875546623166984,0.18433845984703318,0.2568649083829704,0.2721261712473917,0.23947905471495673,0.1781344275878418,0.10968146116202428,0.08362307249192752,0.18538164741361973,0.48349309666862855,0.7739248760625383,0.8980852443724252,0.9393178279104888,0.9518882438384619,0.9505824770815787,0.9318696338523851,0.8044045677823584,-0.31006486420423207,-0.7904377058716416,-0.8618097237588125,-0.8816277704791032,-0.8838536613879943,-0.8816637000596711,-0.8853688271946861,-0.8935512503339018,-0.8969348958403462,-0.8879170323820585,-0.8649633292897942,-0.8238455403595579,-0.7332587154574486,-0.5467842499589162,-0.3090101500964533,-0.1218872093689368,-0.020337659388659245,0.02163980041184439,0.0355479503703548,0.03533534080641967,0.021662541000874443,-0.03062599609518206,-0.20117338138753557,-0.351497156471806,-0.2635419169605526,-0.19209881377994845,-0.14792546253606656,-0.1307762104841263,-0.14764093104527226,-0.21346327772029525,-0.32482436782534774,-0.42374838511990115,-0.47282625928271976,-0.46374516100899804,-0.43352657898929714,-0.43669493288689415,-0.5029016557182431,-0.6426493019917239,-0.809175300746432,-0.7923004366954028,-0.6243393667901217,-0.4860484823322578,-0.39455417219807215,-0.3170610891999355,-0.21357532910982027,-0.02414477921053035,0.22700220503536225,0.43380258553935025,0.5665457754435648,0.6583185787368362,0.7282625950362981,0.7828003829786088,0.826281167969989,0.8650250326547525,0.9033145889119417,0.9403394996796903,0.9680736316398465,0.9829350509156206,0.9885726153902454,0.9887944743222538,0.984816745382706,0.9737681690774159,0.9386064685974831,0.6960320746143206,-0.7109424187019605,-0.9491297695834969,-0.9763035523916926,-0.9810379075380858,-0.9792090486737423,-0.9741151270035535,-0.9673161634065222,-0.959576420852126,-0.9484580337442297,-0.9274359100944729,-0.8879373924829449,-0.8759987441082618,-0.8903767689351764,-0.8931665628537544,-0.8845830685219342,-0.8421033110676274,-0.705793542782603,-0.3444873584388947,0.28838894513758606,0.74410549638755,0.9253799275525075,0.9782008572532442,0.975713910401535,0.9664894055812953,0.9681122974373519,0.9768532901445797,0.9854676538876431,0.9909450968586649,0.9929641962714993,0.9896937919283946,0.968402175208832,0.8103917500079001,-0.33263275309547424,-0.8372143034541069,-0.9193152844905602,-0.9461190647316572,-0.9574886492197783,-0.964347932313923,-0.9730753635401487,-0.9775655316852987,-0.9703317829151098,-0.9577451174061644,-0.950706722317772,-0.953319985482443,-0.9623856183888975,-0.9683599678879,-0.9569484415815632,-0.9318508709869705,-0.9205973954616958,-0.9356865058941128,-0.9636262557522105,-0.9821848246016629,-0.9816064682010982,-0.970294932422834,-0.958883675631664,-0.9487128012364205,-0.9356365659965724,-0.9140645011614467,-0.8769401282813555,-0.8132474512843293,-0.6998057086655745,-0.49869963622773533,-0.1814220608041761,0.17891062923898818,0.44382878834772616,0.5875436250903404,0.6521481087406283,0.6678043277685596,0.623215288726272,0.47983908840659084,0.19549859342773124,-0.20388225959815587,-0.5576760830322054,-0.7544460210346976,-0.8312732292104413,-0.8486771653339763,-0.8355833246871524,-0.791570460047857,-0.6428920461572584,0.06573384175023735,0.8430677451511401,0.9609001232337381,0.9822062503461177,0.985007669012994,0.979053655341249,0.9641888327163132,0.9348223832101565,0.8795024276820228,0.7818307147153307,0.6250458751799984,0.3903738282720451,0.06503571673378204,-0.3083074628841397,-0.6088784973149067,-0.7772656720428263,-0.8495036391159001,-0.8603306565037522,-0.812259504726892,-0.704606620016583,-0.5714992797102882,-0.47447742576315854,-0.4430387049821437,-0.45006817838195284,-0.44728218814838777,-0.4300132871328514,-0.4140635733021425,-0.3872542692185359,-0.3136057141625679,-0.16561235758768714,0.03972442986014294,0.23286871591160643,0.37391590976805633,0.4748153782518326,0.5514802144810561,0.6134361870702373,0.6686189392770817,0.7197127891492086,0.7620662150435462,0.792923624833092,0.8136892394128397,0.8219567704015033,0.8107345586590444,0.7652895955488117,0.6598034070796243,0.48219669629113376,0.29684919690381967,0.21877836911779464,0.31298985910875743,0.5245300596024672,0.7305301435848373,0.8590207925530753,0.899439546845185,0.8679932431372553,0.7811277205107326,0.6528477646847493,0.49414313816641897,0.30606454766482766,0.12268284730529924,0.08322839939341493,0.19082651192474687,0.27469028909699855,0.26022126390463207,0.12801835511431242,-0.1123245222150457,-0.37661738909221587,-0.5639580361123743,-0.6644895642654961,-0.7118947257694517,-0.7308301199468067,-0.7322971700572866,-0.7176146074979696,-0.6819401095397869,-0.6374796234374078,-0.6189985749360769,-0.6516935367460498,-0.7011512719004998,-0.6752398540347413,-0.5490323346231221,-0.42334097147822913,-0.34559940230655856,-0.3142413540791232,-0.33268944502434267,-0.4776153381525981,-0.4994862056816244,-0.1648585333420085,-0.08897450361463931,-0.06909579022058776,-0.07380529907272199,-0.10361882977069152,-0.1794595397982894,-0.3485881034119004,-0.5875822647197464,-0.6375436149004352,-0.5642216863680666,-0.4820991560864279,-0.4091799921197171,-0.36162923756529225,-0.34901262572220326,-0.3675473795657485,-0.4106351772122204,-0.46200038840838253,-0.4972277383364103,-0.45798683384124844,-0.2995179586207029,-0.1043055470599691,0.02069599232761824,0.0615577236162429,0.04920713916965755,0.02944503287243667,0.044252013344027716,0.09704437285014982,0.1927834287031797,0.3155580589095374,0.43672113497257625,0.522249277969063,0.5611506578864667,0.5757986370177957,0.5918146043532414,0.6180855807873636,0.6519967241599118,0.6791608978297998,0.6853847162163403,0.6731057928401799,0.6518139768711463,0.6088010319534175,0.5324064163446524,0.4529413560034211,0.4042305506084303,0.38683357476237046,0.38350155593111146,0.3696759331977061,0.32446854961834465,0.23939613410506708,0.11364072415628801,-0.061792021188587835,-0.30257415135863863,-0.5744167438595288,-0.7361924944555054,-0.7471932153916503,-0.6747851818076946,-0.5720144692085555,-0.48183029290467977,-0.4151444375548565,-0.3531572294873952,-0.3315932018868093,-0.3551694157188989,-0.38509371555039035,-0.4021981591060679,-0.40056069277740997,-0.38469292289238183,-0.3731738546062402,-0.39063981875741327,-0.45071655461851673,-0.5427575455899463,-0.6339855235393224,-0.703652945847188,-0.7603822759683081,-0.8160919250012697,-0.6539926742587387,0.07188657292395033,0.41471902995047727,0.5761467832178199,0.6974577848587107,0.8111764561614468,0.9102373009340909,0.9627353579227633,0.9506335370760242,0.9002516163942873,0.8398458992329346,0.7728434931255861,0.6880448186520821,0.5708954552227756,0.4212801860381428,0.26276781274605016,0.13791372275933747,0.08637257619874374,0.1301668051348203,0.23206266297770228,0.3360967073895093,0.42111634619279276,0.45957114617838096,0.4093510190397784,0.18172228632266282,-0.3156196548019917,-0.730319239507284,-0.871062864707725,-0.908555655731499,-0.914718490520377,-0.9060580560725796,-0.8809167072671845,-0.8275422091558581,-0.7342696809236244,-0.6259760605431585,-0.5780348458427269,-0.6422072553881562,-0.7814679746747859,-0.9036604738251247,-0.9676861446529997,-0.9890607730083,-0.9847195676419807,-0.9559912158222684,-0.8805699960764933,-0.6887863909019837,-0.28066096572699933,0.23635779832181741,0.617735054994892,0.8416228018914254,0.950154620048733,0.9765948877637578,0.9597373686977096,0.918220243311368,0.8517361624644696,0.7623830250199973,0.6770549375630309,0.6386595289212466,0.6715349331897764,0.7676915163427293,0.8898994929681033,0.9775723783917167,0.9774903422782623,0.8822533785414707,0.7306536891421727,0.5731381621381848,0.4390782706768035,0.3274016830227499,0.21588120015616147,0.07447237510289255,-0.11715429794860813,-0.3407164239123546,-0.5335303257102169,-0.6558778032047035,-0.7254766659907733,-0.7709300403590212,-0.8083166699608042,-0.8365895919008993,-0.8294589643884127,-0.7414327421899789,-0.5806985209969322,-0.4361252485161619,-0.37423647161818613,-0.3918663899310249,-0.4580343943719074,-0.5369510079125605,-0.5906461591553795,-0.6001854309392333,-0.5831045912173913,-0.567559600495979,-0.565562251134163,-0.5643263147187312,-0.5579527338494733,-0.5584769191385837,-0.5652403871529167,-0.5504755402261796,-0.38122578106639743,0.15613669881310407,0.4176754768704861,0.4734869634989927,0.4593435968072669,0.3795269790877712,0.18578560048237777,-0.11548338997564611,-0.31167016348113863,-0.3192649732898779,-0.21826232484574262,-0.0802892568629964,0.0632629559849751,0.22097519301794918,0.35592527065256013,0.34615033945263096,0.29426134487783034,0.26829422519644985,0.26283559481134783,0.2619968232829645,0.2331322239090706,0.09351128765554423,-0.17981033085414283,-0.3111918860367223,-0.3218525186760509,-0.2881295900961455,-0.2351934005663849,-0.1796229247326501,-0.13928704829174834,-0.11997607083579065,-0.12477261166383169,-0.15971140613796445,-0.22988987045452725,-0.3317429153199593,-0.4601393197805438,-0.6013329758751093,-0.7248974988131128,-0.8055372184410304,-0.8434391606252845,-0.8508737652295956,-0.8351289791685926,-0.792402835512572,-0.7117674739442668,-0.6097429705261095,-0.5513389591986088,-0.5631854890351038,-0.5932756651197568,-0.5921876241762113,-0.5260693432406793,-0.31538295088013985,0.18945167560158319,0.6915033201736166,0.8787017293261619,0.9322141182656537,0.9486499877110323,0.9572822775347922,0.966610519210184,0.9747651687750314,0.9785681862547025,0.9773642691518216,0.968154387861875,0.9335171071165909,0.831869441652485,0.6108491507632668,0.3185279282432909,0.12503826423467576,0.07167295715153504,0.10699314017445766,0.1973137227271598,0.32354043623010587,0.47726003211506035,0.6332158145058245,0.6637023207954028,0.5224598036522051,0.31354265045305085,0.09236417597261586,-0.12159573165574826,-0.32626776263993,-0.5115819734953694,-0.6547862358052399,-0.7284530390519101,-0.7443282132616317,-0.7216740699214903,-0.6664992508808847,-0.5740500136350584,-0.4361988320842791,-0.26688674387991573,-0.09271545253684872,0.07308951450043741,0.22899244923186662,0.3743785406519872,0.5136760498927948,0.6443405632235407,0.749126361065144,0.8199475561162527,0.8622588759145834,0.8876654804940678,0.9047852718245556,0.9166977462616537,0.9233523182389531,0.9248937090939865,0.9246924807407003,0.9270466361823829,0.9325966969764105,0.9372601622553707,0.9347760188733651,0.9150908541716909,0.8435299960049291,0.6224540916501045,0.19789049423807184,-0.20753538471499963,-0.48100321287650644,-0.6571169040415071,-0.7418512639052782,-0.7233355420969237,-0.5838040533012481,-0.2645987948328759,0.20047953600292004,0.22205597646029782,0.10564747747506453,0.007310936556159637,-0.0723184177519116,-0.1454763263655924,-0.22533997709448914,-0.33570176932780843,-0.5748049246395449,-0.6138873017871466,-0.22705962635819185,-0.14175657840456363,-0.14160544310959633,-0.20159533714665426,-0.3418310225151827,-0.5712468776276213,-0.7852406151673501,-0.8793179704641776,-0.9092127656509366,-0.9233817558876843,-0.9344704433487514,-0.9392364138708652,-0.9105451702015913,-0.816927698905808,-0.7177289947103216,-0.7071574106825397,-0.7804862370202927,-0.8582278360831133,-0.8792256743428709,-0.8509545421606035,-0.7926920156399664,-0.7075043365080838,-0.5936281571129124,-0.42225990681094683,-0.10650172373979386,0.2047724471443754,0.28031047437568857,0.24564918249880924,0.16966966484996399,0.0983828160175078,0.09383027223908808,0.22197521631777484,0.49024373284274975,0.7521361425465298,0.88836845606091,0.9394785865737816,0.9566808677642006,0.9605448413271037,0.9555185462543209,0.9176091158540799,0.5855794920477715,-0.3592303210955749,-0.6735799490477411,-0.7525022367196845,-0.7725493779372032,-0.7626761784776085,-0.7281936722235747,-0.6775152163844649,-0.6245700515982456,-0.5895184690387381,-0.5851683062223867,-0.6102862312135438,-0.6578533192852641,-0.725827255143805,-0.7908865708916175,-0.7831004322879037,-0.695374513728658,-0.6365537015845977,-0.6262148868665192,-0.6193501919025169,-0.5580035550755374,-0.30508832112936407,0.3216396210180652,0.7556589556512995,0.8771220630101942,0.905819064562595,0.9012476074103979,0.8659051747107862,0.7647134891745387,0.5172681527983107,0.15776327923488406,-0.025541971817791803,0.09513843558294369,0.45551269976087344,0.7525426784695567,0.875084175570486,0.9161392470248808,0.9260197922517207,0.9190790062698824,0.8853678425123942,0.7123980113096197,-0.33385644463793623,-0.8771828125410724,-0.9551040732131676,-0.9773381703017604,-0.9844944125256967,-0.9855696176152886,-0.9857882845949908,-0.9811220855718082,-0.9624272063558253,-0.9384169951956121,-0.9180758363585896,-0.8782841411149442,-0.74277276674993,-0.55087612514,-0.42809416934204997,-0.3845115601025438,-0.3907766181686004,-0.4198651168861952,-0.4412378780087327,-0.4463151862713678,-0.4618483368870336,-0.5039582419158829,-0.5669011980563116,-0.6246572829531983,-0.6471670894123139,-0.6286833342405808,-0.5753472013930186,-0.4855848806964017,-0.3526478463318824,-0.19090649809562119,-0.04295956551365751,0.05063113635333464,0.09329108268885458,0.11277202199107995,0.13110732752121407,0.1529214364078521,0.1608203550309012,0.12172628698524995,0.005469951585184937,-0.17544274691053446,-0.3613650249902976,-0.5065457959838865,-0.6140622555314692,-0.7051364393962893,-0.8022891431954331,-0.9038055155058434,-0.9542621318593629,-0.9124550298171312,-0.8345292604466904,-0.7640242285328966,-0.6832974032100466,-0.5239322358897482,-0.1460339367252037,0.42321763882217184,0.7682012793730713,0.894795858139964,0.9388875011425422,0.9522146909546862,0.9499242533000307,0.9377454398668522,0.9253624278470974,0.9249095808710994,0.9354105890869138,0.9419797013334219,0.925215681156676,0.8366461369980122,0.538948343655931,0.1299355535893484,-0.03145938993055337,0.01651302438699587,0.1631409251782993,0.3175162429827754,0.43295747881803637,0.5076041652034455,0.5484990188955003,0.5558749552995456,0.5253886122364155,0.4565824759008087,0.3609010311505103,0.2526752017507483,0.11575641749885039,-0.07080248812635465,-0.22168787578955906,-0.29069722475848675,-0.31801552270687733,-0.31859987908364884,-0.29484046470124264,-0.2513316976365545,-0.19368573698033487,-0.13189140717719436,-0.09235095621871861,-0.11088647864918376,-0.17472354505029242,-0.21422647438259942,-0.20627977492006816,-0.18481534292341392,-0.18341984412419243,-0.20531152693068888,-0.23699871750200707,-0.27189779482098503,-0.3047884861783881,-0.31992788405718525,-0.28731381737978845,-0.1839265281652132,-0.0943334547272621,-0.09254081479225175,-0.2096267549525598,-0.3505191188065478,-0.37787550842280654,-0.38677613208104816,-0.4205535290272002,-0.5154159983217621,-0.6799058875720113,-0.6720541669734804,-0.5031526834615734,-0.3958945876783206,-0.34582749651298367,-0.35152192562227286,-0.4391309429874957,-0.4878840544870476,-0.4263070613608681,-0.3984820024074949,-0.3573525366694602,-0.1539705503467676,0.06233002884802831,0.13580359861845198,0.1526364801381388,0.15704519742323483,0.16288894667021986,0.14979852320710418,0.15600701006662665,0.20702255115221302,0.28082793664864475,0.3434553847056645,0.35563499775250895,0.30379908568448616,0.2015848137078153,0.07290802732881174,-0.051788357632171045,-0.1382674401664963,-0.14234964111589354,0.0019028432028829136,0.2935989712675594,0.5356676733928508,0.6553714789639085,0.7090910871793864,0.7305877565429534,0.730713026902424,0.7100539046458454,0.6612158911027598,0.5669682521148035,0.40436220733456374,0.18356184941272155,-0.013858165064111994,-0.11562014539202746,-0.12293666339989363,-0.08451736753487497,-0.050461214606447174,-0.04186652936051198,-0.04958576165698641,-0.04872753870602609,-0.014652595766318914,0.06559281938121769,0.15103775599654704,0.1674098466650513,0.0926969907466416,-0.05255032275363038,-0.24093561331401686,-0.42266958535284954,-0.5374833083821032,-0.5735319964711301,-0.5767196764126774,-0.5864829488099403,-0.6085290533831242,-0.6295313745337497,-0.633807471441462,-0.6192166196256795,-0.5956564805777558,-0.5694249156971554,-0.5418698709704887,-0.5149809842300171,-0.4881027831270048,-0.4613029861053121,-0.4381223684242185,-0.4221949467489124,-0.4106270098235198,-0.39336182729725283,-0.3541276069944758,-0.27289837611893075,-0.1474688036110355,-0.03146128082264624,0.030028330475409856,0.049948576392730856,0.050922993773189935,0.04471696827652591,0.038823626642149923,0.04052724899031565,0.06812149294935738,0.043538212489755916,-0.005316351483638426,-0.029624466283459532,-0.05354888713657372,-0.08681378554080382,-0.14350408233440945,-0.2485854478340726,-0.435623232314193,-0.6609537015793486,-0.7575089587140047,-0.6786486905845907,-0.24535172777988623,0.5843740260452295,0.8717705744991036,0.9347123725621115,0.9462816395556707,0.9201950875225688,0.7852131015795996,0.42508671453695684,0.059950823814940796,-0.13672914625036192,-0.257865917878198,-0.42290834152038415,-0.45072668978080516,-0.25901230613502396,-0.1614925357790917,-0.0884485613298371,-0.001082543970882379,0.1453914730342646,0.5302136027709706,0.8689667121026371,0.5500831049690516,0.466264084932343,0.4809441789655863,0.5437168553594786,0.615613241194583,0.661967278003943,0.6666610004164893,0.6311686289243336,0.5675804888535058,0.46880548783136583,0.27676418226504546,-0.07993620429313485,-0.4504079003414458,-0.6455856088869727,-0.7163201110085032,-0.7339510870215681,-0.7666623346665927,-0.8539795135312458,-0.836027039198348,-0.7450253930542099,-0.7292749418687304,-0.7676193567729116,-0.8317244912686985,-0.8772950413044389,-0.8401751057401649,-0.7299380282227614,-0.6191486170816233,-0.5434073961301552,-0.5165599546507627,-0.5578613216758862,-0.5687091698825296,-0.3591481145674188,-0.12463992927055272,0.19760901533582753,0.6454234851367014,0.8841902402626004,0.8855479067783586,0.8571123056465945,0.8520598151635138,0.8717167828138483,0.9069394163851692,0.9445106288672435,0.9696366432192932,0.9672234164935928,0.8767446010770008,0.4117880527258967,-0.09790660361193448,-0.2577735331889696,-0.3053515807505602,-0.37056343274080744
