0.11083567312964968,0.14729796739343343,0.15313937672054442,0.14264180081945868,0.12011138503462729,0.08836988705985147,0.04539082928097399,0.0005829384745622968,-0.024853493288677014,-0.010000864312956026,0.0646598328242341,0.20649303404062355,0.3823880570335786,0.5408229851467036,0.6517350726724356,0.7014774116603518,0.6825166925838715,0.6370856606877005,0.640706466351826,0.6946473786132973,0.7416283272787181,0.7215183409161773,0.6460956972947867,0.5688224027814058,0.5281934350786227,0.5340627513878494,0.5836190520481203,0.6742516713095903,0.7935541497103961,0.9034733889130053,0.9574591063676697,0.960396417414147,0.9468306262995531,0.9331787968764147,0.9171197079129705,0.8834653602980185,0.8034470761567979,0.6392496542586138,0.4176020554641523,0.2731833450653526,0.3102470731482815,0.46008997188528633,0.5872376315174833,0.6501290977014066,0.6602557523499697,0.6163776884059841,0.4864312752328063,0.19882635007043303,-0.22396204184388913,-0.5569172934504785,-0.7307585237119394,-0.8140890504578412,-0.8561712355964763,-0.8809881627806256,-0.8985663668600475,-0.9093716994303013,-0.9122007608228933,-0.9044711476355386,-0.8849646049583065,-0.8568251028780868,-0.8253772724282767,-0.7957716728863767,-0.7696647532453379,-0.7378207923021788,-0.6989410442935777,-0.6529235280138155,-0.5918530595188523,-0.5037248669502316,-0.38770855893665834,-0.26890979117505276,-0.18285806808533542,-0.14345732981140008,-0.14456549714885086,-0.17858368071217556,-0.2601246692375194,-0.4048594189552979,-0.5639887652070227,-0.658648788932897,-0.6637977804632711,-0.6031036935687407,-0.5106707816274159,-0.3987267392849184,-0.28226380383890926,-0.20272459590184774,-0.1840377470798553,-0.21584116792490426,-0.2467815679279088,-0.19032723329881343,0.0005486126622328423,0.18322383118848168,0.26751954875692513,0.2600710018874764,0.1935471604600061,0.10137222233906566,0.0155276363338436,-0.04181556160568971,-0.0743054347947967,-0.0982325014638452,-0.12379444677625978,-0.15506026857463626,-0.17677858670017313,-0.1392726124538694,-0.002530572011229004,0.13115058912040736,0.19779829789447298,0.20851377914352331,0.2079826840382605,0.2155028005139283,0.23310995074839383,0.23934173430659722,0.22154500297345028,0.17947459525893228,0.1245999755541987,0.07240335783272367,0.04779008504058145,0.058927182004807926,0.10099377536902733,0.17505806103798466,0.27752281166001735,0.3957125453418081,0.5134600562638575,0.614776686129098,0.6867572824953156,0.7284261459523904,0.7454564102041941,0.7458091617080909,0.7325029689390768,0.664010760448541,0.5338867563599349,0.4456896573554105,0.4089546454853368,0.39199416931147746,0.38197252410933624,0.3580233969839934,0.2990062628021539,0.20175478389054868,0.07413112853245282,-0.07463486637944597,-0.22789514348228368,-0.37299637399192187,-0.4892078954753999,-0.5574725051846906,-0.5845941200959546,-0.597009650851074,-0.6070690973818014,-0.6198690557271185,-0.6359892920176113,-0.6469806312550823,-0.6399097147565584,-0.6085949733038511,-0.5475793314201283,-0.4194259354291864,-0.06576658287105432,0.5265172978809419,0.5866107729840117,0.48941481578289997,0.38546016794937105,0.3059654968762031,0.2619526644369516,0.25169649768593344,0.26862765507256403,0.3091697564490099,0.3671220744300108,0.437052242486502,0.5007490118466633,0.52516319564551,0.48192449232876416,0.3752144657651809,0.2401544249956317,0.10770888706995999,-0.014052234872025544,-0.1358064085143732,-0.26650476471876067,-0.40514585904236344,-0.5365278443163063,-0.6345336060941267,-0.6841983061618968,-0.6764215483427978,-0.562111080700825,-0.18315592589772497,0.45717885847246403,0.8138032080762347,0.9201599155555203,0.9391494938497446,0.9058503939135891,0.7779380818781221,0.44591472872342874,0.0370614412440781,-0.18290421745745414,-0.2466436573211872,-0.23041095283410482,-0.17558319834149275,-0.11222964164888316,-0.0672352332272833,-0.052359256389587924,-0.07199065063979848,-0.12923967189329388,-0.24004920938128027,-0.41811361203530323,-0.5336412926625977,-0.4410804185696513,-0.32527940139603506,-0.22753407244139578,-0.12260681047566034,-0.011652120087987633,0.0864943117856057,0.16828111013622812,0.23663030802867602,0.28412231951423167,0.2825518538232694,0.21334800737460966,0.09022377591985645,-0.0662443488525759,-0.2282749827197761,-0.3575041002220485,-0.45113982845259787,-0.5212288107299632,-0.5731242440633645,-0.6074211950533525,-0.6235748416902452,-0.6279787639870686,-0.6275573693283484,-0.6236844751236537,-0.6215938761683417,-0.6179524024591042,-0.6178228078727469,-0.6214757455624791,-0.6302478508977587,-0.6422300686236849,-0.6547248147039233,-0.6691144476911474,-0.6790938098454313,-0.6515377720047583,-0.5420062848367014,-0.37335516590957446,-0.21945911388590505,-0.08073994576199171,0.07072749553846543,0.2507581392643867,0.42931883522243214,0.5583868260096952,0.6372270828903028,0.68919893231211,0.7260807006005285,0.7528017939915798,0.7840012307070459,0.8383529760442568,0.8966683789284581,0.8454955775326523,0.6819712004947225,0.512689676656078,0.36007961982496406,0.22383731897794845,0.10352054476210598,0.00022803136763908588,-0.0822303226498573,-0.1376953304081585,-0.15375273368046535,-0.11609183495382035,-0.007388016860501667,0.1794326293955083,0.40674887442004665,0.6015771717395402,0.7255659075649219,0.785722197375109,0.7894720360106889,0.7298022400280609,0.6164118795099671,0.48676153530136046,0.3765642477598804,0.30114768551338805,0.25839383820649187,0.24177785920152564,0.24782909257339078,0.27682434801484573,0.3299484257254441,0.39644987903877504,0.44476552761711524,0.43861943816555976,0.35830097973818514,0.21603839780120088,0.06096903664934377,-0.06709392929824494,-0.162487312279399,-0.23708323843004533,-0.3062066090306364,-0.38912624231262066,-0.5077163024904794,-0.6556878263053871,-0.7744022375622305,-0.8180892015480749,-0.8317095332106964,-0.8424766826035125,-0.8416260724464586,-0.8223047259202628,-0.7834195298130052,-0.7274435982076711,-0.6611523890822485,-0.5837251410872375,-0.4844437171357661,-0.33617343568714586,-0.13456839504910326,0.07566988478766574,0.2284718613516486,0.28879934591999584,0.24593049723004867,0.1032079769824005,-0.10435438616329465,-0.25801525375328305,-0.30804031769044427,-0.28642174253056857,-0.22442709735228134,-0.14219483807798114,-0.0415905659217583,0.06472753395452278,0.1563321518795689,0.2217980826166991,0.2652642238296884,0.2926863376303316,0.3044294888159676,0.3033011200086365,0.3022395348562661,0.3163440857650993,0.34576600082483483,0.3701105471320001,0.34914187421250786,0.24323228929227544,0.02536019159076825,-0.2659716393748167,-0.517835227513656,-0.6561161668612446,-0.6725795143095281,-0.5309545005088845,-0.10855088224004605,0.38333241720243627,0.5881040733096956,0.5589464459457527,0.24380439211762744,-0.30552827008326966,-0.5930985514301361,-0.6755617719399347,-0.6909655894347838,-0.6845817514647996,-0.6763782338433862,-0.6701595431175936,-0.6650142438395925,-0.6535732410786037,-0.6314372310088693,-0.5828901296136169,-0.5080084650326697,-0.4219440245589237,-0.3438395158589439,-0.28081705076177,-0.20939096219684736,-0.07482090637298708,0.15996957209067714,0.46005959825837756,0.6735066260976952,0.7545678365124467,0.7228079216459598,0.4934805945179278,0.010422265908012119,-0.28086276774695107,-0.33615021726060057,-0.2815025098315973,-0.16151115121942258,-0.031368734975691606,0.005359035845826933,-0.06884075868664086,-0.1987459276194709,-0.34199655574071525,-0.48545637700530025,-0.6082322987071572,-0.7032287984616704,-0.7721422572313673,-0.811865760796482,-0.8112076599432656,-0.7443369713943957,-0.5704244665282742,-0.23351363101615533,0.1460670187335142,0.3956928302959727,0.5413983671612275,0.6316853695839607,0.6875717189775725,0.7194134538949526,0.7418833628674097,0.7710336981740396,0.7933138427937806,0.7754997405916887,0.7298948902848706,0.678390299657634,0.626194683367529,0.5572754279581145,0.45577305137067076,0.31579800903505384,0.15061259552297918,-0.024113358954471916,-0.2081866549071478,-0.39349981676267665,-0.5530111038535525,-0.6649551231436515,-0.7395207451465741,-0.790454994556427,-0.8293771021708766,-0.8590737377116328,-0.875829598303343,-0.8663511794791905,-0.8061226978918553,-0.6445320711599724,-0.23678228385305294,0.4860830053609112,0.8766531255767671,0.9587227194922281,0.974963535559653,0.9783120366959748,0.9789050233738626,0.9786424846359152,0.977237399698076,0.9717791708010993,0.9518317997689641,0.9038542090798546,0.8213953290120265,0.6964689173932874,0.5145015279651428,0.28502587397808693,0.0582571878455814,-0.14274098972639615,-0.32086618879308276,-0.47185992702333096,-0.5560221672984031,-0.5683148747586979,-0.5376421953460477,-0.4990364321439051,-0.48108748803236545,-0.5005421899383111,-0.5512339956534346,-0.6122495827285379,-0.6542183669532775,-0.6464767032162039,-0.5835527951814845,-0.5082302979141226,-0.4537800899391677,-0.416393127118858,-0.3799117061967571,-0.33465746146002234,-0.2775844076779802,-0.21582776773264342,-0.15996749861203374,-0.11195189977409511,-0.06993057928244832,-0.03333780703064161,0.0009459906543437673,0.03294742102211589,0.06776761158900135,0.11041003349154124,0.16981543400482246,0.2542601672147541,0.37981219993233584,0.5557087063528768,0.5718122093679221,0.2889747308002929,0.08700018181050938,-0.020596728346186213,-0.0782415937539902,-0.10526861359208184,-0.11106574122403169,-0.10156380083315797,-0.08129526902703949,-0.054334809798545367,-0.028500208372804293,-0.01301210063303656,-0.01433258923753958,-0.035887969159613786,-0.07508501953981318,-0.1274384902278268,-0.18285740818014487,-0.22999122720579931,-0.2604611562801385,-0.26975667072452353,-0.25967355627196814,-0.23689372720012097,-0.20654540057375506,-0.17300421211959605,-0.13461091061578673,-0.09147145485335034,-0.05256730873818127,-0.02363012591922294,-0.003952689561805082,0.011169589576258698,0.03238718355040449,0.06824934583890316,0.11514122214900945,0.16242453945412752,0.17689840644071178,0.16482745548277247,0.1522897053031145,0.14362057712484017,0.140684291626596,0.14270404259678296,0.14830763335230548,0.15355073603199657,0.15752731709576134,0.162263332263402,0.1688235448512705,0.17976111552597349,0.20170287399278838,0.24705007082317876,0.3128788973467838,0.3830438068532486,0.45789922993505194,0.5609096108318019,0.6681586282736398,0.7145280284595151,0.7023352130062217,0.6538565443656427,0.5774255997972091,0.47352374703099187,0.35622996973179477,0.24570197236674426,0.1482452966686248,0.04489744073652396,-0.06353599129072474,-0.0987391190907147,-0.08980103034613242,-0.08515319485578404,-0.1015190438781115,-0.14170814556225544,-0.20659474616606793,-0.3067782259529565,-0.43929956149482075,-0.5598984782530954,-0.6117744026900797,-0.6146398936900048,-0.592787945562558,-0.5512054489173447,-0.5052809172514543,-0.48585420292870757,-0.5110670617879749,-0.5615249078103853,-0.5654835777621483,-0.49629952999539195,-0.42052678228888113,-0.3633105989103318,-0.31907354163174756,-0.27571637254838266,-0.2295459105007592,-0.17715318229971688,-0.12125607190814626,-0.06829209291550407,-0.01762603556203207,0.034925363627261716,0.093279894068105,0.1555446367888512,0.1930001995027653,0.18202413064248313,0.16355586562875665,0.16411994221494183,0.18978591871080197,0.24179557953287556,0.31196708611352586,0.39044128112610077,0.46287955917501983,0.5169618858735778,0.548467859468823,0.5623559285885203,0.5654453268494509,0.5634283088893909,0.5636774657751705,0.5681300066857797,0.5667993677337559,0.543741591603564,0.4913032387255312,0.41225790876393015,0.31761391753236695,0.2330309814411846,0.20252452005014346,0.26267318790321753,0.405158737809175,0.5769314713064652,0.7147312586581777,0.7953731551137794,0.8313992458506713,0.8400082490386697,0.8337811495141286,0.8172056432235848,0.7900975046766716,0.7437104833051053,0.6621704371749593,0.5214224349096823,0.30949763854622087,0.038172412727880835,-0.24568214253542683,-0.4598022105638583,-0.5859474273976444,-0.652285023102546,-0.6907769831802512,-0.71761463784995,-0.7402193872538562,-0.7552327414396846,-0.7583069749603285,-0.7488895983308193,-0.7234793614237923,-0.6840977005285782,-0.6302160996813633,-0.5736560673492822,-0.5297888947841447,-0.5037019329736131,-0.4882628679983747,-0.47525983639666236,-0.4571199589090998,-0.4408766294353727,-0.4374388702869387,-0.45357772184109063,-0.48727542051660905,-0.5313380441579042,-0.5767466397115123,-0.6227243916432751,-0.6774654904434891,-0.745974215450707,-0.8147055674263751,-0.8636339473167949,-0.8858548967166863,-0.8829108144387662,-0.8606243571636918,-0.8273968023711289,-0.7925591557286544,-0.76206915586039,-0.7456147474361474,-0.7424793240202507,-0.745084074193203,-0.7472876914990775,-0.7435967568862872,-0.7284053121173671,-0.6929096198643323,-0.6314056306016974,-0.5299113308753745,-0.3791474294534404,-0.18372347259738947,0.041100742397973324,0.26607460138048217,0.45546927329860193,0.5835423256438705,0.6596579129123611,0.7124467525396744,0.7599840479584165,0.8062291637811047,0.8424184969689211,0.8673841461214592,0.8837173194163511,0.8908068411296203,0.8860556675625753,0.8646606643889837,0.8173065664007514,0.7320331785017923,0.6089015857818134,0.45384009932456437,0.27213893119202,0.05605181120004798,-0.1951871649476451,-0.4211888915410041,-0.5740820884831878,-0.6574780517295785,-0.6808676872243948,-0.6613614375159294,-0.6072868310932591,-0.5100945634483135,-0.347985767636198,-0.09528552774865759,0.17058046715245875,0.35932532480519264,0.47248290494218415,0.5425773783007986,0.5855826217613159,0.6139362746231811,0.6251865672784411,0.6215488283575713,0.6190759611682798,0.6277919308988146,0.6498210125377072,0.6607437044356995,0.6469406690923941,0.6070963420310137,0.540129831789885,0.4392188069031268,0.2957618491175878,0.10874483410753517,-0.05998618678187708,-0.12735621477552567,-0.0567254985427791,0.19390980110190748,0.5693298223392895,0.8155507197671564,0.9098813979440916,0.9439954933465583,0.9573542211307681,0.9622514501714962,0.9617835414398415,0.9550586071583078,0.9307073987855189,0.8350528204927385,0.4821682176175206,-0.0570069572424874,-0.3456982314320448,-0.4622695577195124,-0.5219135460737185,-0.5761959124984113,-0.6352840958835154,-0.6928105291560337,-0.7444329264983717,-0.788207393310407,-0.822013758656876,-0.8437595884286837,-0.8534931628376526,-0.846609491000094,-0.8036686490482347,-0.7005798652738485,-0.5566649090133431,-0.4388608425571712,-0.3910633482258358,-0.42049035971928744,-0.5119983225486512,-0.6279595808822793,-0.7136645176410529,-0.746853406897795,-0.7312106833262713,-0.6713424957467735,-0.5663634937811535,-0.4165187812173182,-0.23433554178271807,-0.040857051872059846,0.18834200478989566,0.5207915159706465,0.6295915877415367,0.43055619604786355,0.2915525527655711,0.20749408429372063,0.15925026504432385,0.13092735670480526,0.11977180441169054,0.12372130794456543,0.15480902687866285,0.20770358334273212,0.2634439640573732,0.29725611913121947,0.29596416834375966,0.27675060682236596,0.2606109108862077,0.25817495851920674,0.2537403780848853,0.23883291290162134,0.21453497024763976,0.18593842443155884,0.1602844300496988,0.14280049952428475,0.13560653169194395,0.13836566794307972,0.14161520530644658,0.13792637961762977,0.1211650899852692,0.09230954613592987,0.054024444098107444,0.012708013585584741,-0.013330962474477646,-0.0021291296990258194,0.06425244215522405,0.15929800095474672,0.23671738201633463,0.28443352465074945,0.30151024838080837,0.28332890907638175,0.23150558434329946,0.1526784484568956,0.059715939201811646,-0.024026261475661406,-0.08521817780717156,-0.12670124795354193,-0.157600651694511,-0.18047038460291315,-0.19542801053497175,-0.20683462550798679,-0.21750150883974043,-0.2295084714074752,-0.24759700937792156,-0.27630559269172406,-0.3145415782729535,-0.3531610445474795,-0.3785420479824528,-0.3891488188152411,-0.3897180911311085,-0.3832537325669239,-0.3712503847449462,-0.3485605954347929,-0.30873406620481464,-0.2551158435344714,-0.20160196942745054,-0.15926151679503936,-0.1396261586587356,-0.1408664699705611,-0.1430541872172843,-0.11396863420073873,-0.05584048764988923,0.003143570641251442,0.04788754056649549,0.0798068809477386,0.10655389597761554,0.12935466470415438,0.14549266623656865,0.15682486890068836,0.16594821609851546,0.17263196806742834,0.1779188578460286,0.18436140144047464,0.19411157606765359,0.1982333484573811,0.1935024391599933,0.17864523982188144,0.1679876191408579,0.19786122676313128,0.3044182286954475,0.46351267515835803,0.5884216941751442,0.6485939580557021,0.6645221909627068,0.6489588895023959,0.599608330586011,0.5002458664283741,0.3347079543323587,0.15841796490234106,0.04595995616479437,-0.004501776770663412,-0.028395819874904284,-0.04881852624742008,-0.07567820284211584,-0.11184246005994658,-0.1518738921311684,-0.18760283953960066,-0.2050314595448498,-0.19324722469501204,-0.15386274520925047,-0.09287472641278585,-0.00013331008102302304,0.163762959141363,0.42185836294200374,0.5376245382652562,0.4384345241028475,0.2817543259468387,0.12775344149702075,0.004545928387707147,-0.04914816351908899,-0.013229674657441124,0.10270189590398676,0.2756509972657018,0.4990963360786635,0.7183953055351137,0.8592070238459215,0.9236042030262281,0.9516492352823874,0.9675527110361648,0.9782585128171919,0.9843070398750167,0.9799223431561088,0.9492697091335701,0.8784008225967442,0.7733112324217041,0.6508909050391755,0.5176030054576615,0.3658340991276658,0.20308838046541533,0.051496338541556996,-0.06520176032798528,-0.15905839210726724,-0.24317899151130348,-0.3262707208095703,-0.4132267492728765,-0.5086357794770507,-0.6030726934305412,-0.6824292878544407,-0.7368551575890362,-0.7638529269534527,-0.7671950720418627,-0.7526197285796241,-0.7253817109988735,-0.696155670058741,-0.669642889159682,-0.641637291668059,-0.604527023252005,-0.5606702652546385,-0.5179326611248694,-0.47572056102118665,-0.40941855739864386,-0.2999928997370819,-0.17607006749127652,-0.0676434290393525,0.01566881965480008,0.08928150396453229,0.16445971616438843,0.24706478897518294,0.3375390665052795,0.4318833375380382,0.5220563553156449,0.6004155463576366,0.670438338176037,0.7340615823318384,0.7806404675760175,0.7902929320752619,0.7473776102266297,0.6573894988519633,0.5505574521722919,0.470414341084077,0.44939090415532096,0.48195986029861804,0.5364529840069611,0.5809260107542397,0.5943993575726114,0.5585944144709215,0.4629825876785834,0.3518097495950335,0.2657917054610351,0.20697337080317227,0.1469747835519232,0.05236996354310424,-0.12526141143348699,-0.35449698626029147,-0.5031263230099383,-0.5566333052041598,-0.5574927503717181,-0.5240948836574847,-0.46118833403711385,-0.3905023346376811,-0.3542134736116525,-0.36971500590829287,-0.4155126920786512,-0.46356460383274267,-0.5110009955075043,-0.5642982897952489,-0.6342928962034509,-0.7230628561069088,-0.814251907746729,-0.8899058665025016,-0.9335464374116947,-0.9341530388072994,-0.8936374333403783,-0.8326904140694555,-0.7758518509817119,-0.7348067601630877,-0.7101872717358829,-0.6952490761237918,-0.6678624169784515,-0.6005386311469055,-0.4841288222533444,-0.3352406738644135,-0.18563234778675508,-0.05758625096856335,0.04651174390220976,0.14665752910866192,0.2668504268067954,0.4247371425467948,0.5818686100361198,0.6901140062438205,0.7516916915016385,0.7854256090887554,0.7966794653831013,0.7856664292029618,0.7597195177670032,0.7233711120687328,0.6881626796158976,0.6660107735902705,0.6684902883687233,0.6939572602160202,0.7314357748541533,0.7670024980100548,0.7879347394257221,0.772152539861982,0.6648495559169761,0.41819878151345635,0.13859145028311254,-0.05869767118524054,-0.1797178768341985,-0.2570676382200588,-0.31017157483911095,-0.35153898732768096,-0.3892097653331591,-0.4302840852516029,-0.47194243448160395,-0.49502320541064165,-0.4256119979945653,0.12077637521824221,0.7918492356514815,0.9125383322081797,0.9432883926789841,0.9532045189081852,0.953334338952267,0.9455987389055514,0.9268860784583606,0.8863792522437183,0.7943213788267861,0.5805787811808363,0.21218463384022998,-0.14036667676960782,-0.3604692469417991,-0.48406707152381284,-0.5429432401373244,-0.54548629805169,-0.48503197761985767,-0.3709636797621103,-0.25920733367358445,-0.20914158918998244,-0.2384248500444094,-0.3296077135151758,-0.4450808833797354,-0.5473981680472407,-0.6269533645563495,-0.684335602079599,-0.72334087891445,-0.7477911837027148,-0.7619053570278672,-0.7711036476458223,-0.776685018659432,-0.769199155862944,-0.7346901005058325,-0.6628646381290936,-0.5632565255399845,-0.45045644555972675,-0.3301916617601141,-0.1961947864791198,-0.04853280107374455,0.08765561320365643,0.18660037699076068,0.218889114952039,0.17389064180741645,0.04656999605427893,-0.1515886107309321,-0.39459031880876927,-0.6150278658046678,-0.7627403420925144,-0.8282305460487683,-0.8313382098481238,-0.781576443870714,-0.6574647754880649,-0.4203553301965272,-0.10413471889380749,0.15629248642072027,0.29108795480872984,0.3243735756134881,0.2942919210764718,0.25110677300436307,0.24838271399904338,0.32090987584179864,0.45478321797157606,0.5545377664123431,0.5186255944544291,0.40204786836809747,0.35096148641528957,0.3950555497878755,0.4850280314480775,0.5548767086978271,0.5830235593377613,0.571503442384189,0.5163458814972379,0.3939197082973986,0.12066912387892355,-0.4804967262082806,-0.8981507359589309,-0.8937680347542403,-0.8120721944912797,-0.7026231447656415,-0.5502208739397507,-0.3091341801130386,0.09907544642317921,0.5707923988490707,0.8295481255468807,0.9217360667093093,0.9509336708863251,0.9592485525305043,0.9627126489827429,0.9661629796116067,0.9624410019662087,0.9308479503255023,0.8563205065861381,0.7552100919187344,0.6519595445350188,0.5519188434623009,0.4527005004522486,0.35531912044208647,0.2657378992811063,0.18977011743080197,0.1245856433872075,0.06053082275462658,-0.019604287959247953,-0.13605188007561,-0.3132169386051389,-0.5343940030069542,-0.7195665760303155,-0.821482362688097,-0.8595911881063042,-0.8618224308978486,-0.8450711299396242,-0.8208640366063479,-0.7924329993176086,-0.7527322770486392,-0.680031739608264,-0.5573853844848898,-0.41481350572308984,-0.30471524257363264,-0.27216444752614005,-0.36267001563207496,-0.5831038151192881,-0.7298226886762685,-0.7523537677051644,-0.735811626992941,-0.6626519514398018,-0.5087832983911653,-0.3229467493564275,-0.18577338099914953,-0.10864682354942133,-0.07019504281288239,-0.047457368578383625,-0.035001260382324664,-0.040082322247448114,-0.06654362024530039,-0.10985952250777324,-0.1679940582714084,-0.22514048106224335,-0.2595584986014787,-0.24956390451152308,-0.1975005114067439,-0.12296364435401674,-0.0471937807965508,0.021304707681437825,0.0893521139648925,0.16993979679898863,0.25364201581816465,0.31733321809373033,0.3480996614377491,0.3520931722543661,0.35047768696884657,0.3612181473118067,0.4043701284266666,0.4888686517516897,0.5995822147543023,0.707732623489166,0.7874713426611042,0.8245982594075979,0.8075990118367096,0.730038291207584,0.616231176292521,0.4933914673298773,0.36652478898016266,0.24700705850037125,0.16680069217420426,0.1498909702689113,0.1909841836859471,0.25130510568740516,0.2940322174132177,0.3000124058194513,0.2692369849969982,0.20601287206183252,0.11588904945184159,0.002695028359913042,-0.12882720702171255,-0.273701824761069,-0.42971563905575033,-0.596692155932861,-0.7508230873681693,-0.7364395309773467,-0.6033551541745307,-0.5569366305060512,-0.5642812340662152,-0.5739739544239324,-0.5631519271373,-0.5314713919074957,-0.48319900724215026,-0.37512370670181827,-0.11802571786686185,0.11826390053829526,0.23680863792804732,0.2988927364938923,0.3404314543679474,0.40355294319963336,0.4963720752216094,0.5966232119511288,0.6833308083527299,0.7462256313747921,0.7854153067515545,0.7968200676899039,0.7759723273788457,0.710657048268116,0.583859525652206,0.3785461957870719,0.09516566256055871,-0.20055769233365822,-0.429801374291327,-0.5622609550728909,-0.6087548206193139,-0.5951390691020074,-0.5469597151882757,-0.48652913302520473,-0.43492220266394677,-0.4139582019077378,-0.41894688988566614,-0.42955101161252673,-0.43198738748369636,-0.42998715007347,-0.4332043282449596,-0.46244649480879985,-0.5336553125177935,-0.6358954030916805,-0.7367571755764838,-0.8145494365777318,-0.8655158733218471,-0.8833377277065436,-0.8706436242313418,-0.8458453149227868,-0.8328275722276669,-0.8396762818060819,-0.8663392969963045,-0.9002645892408659,-0.9273013023354806,-0.9444761369230116,-0.9611965744782578,-0.9722320724804366,-0.9672437801057873,-0.9465173118000334,-0.918364232568567,-0.8886129235576747,-0.8591638571794732,-0.8248624263417217,-0.7586107834394997,-0.49425225417116686,0.375533128273552,0.8089027272604744,0.9064918898536856,0.940223129616626,0.9545541191885694,0.9569261895115736,0.9464575562427923,0.9179491070865444,0.8601665032858389,0.747504293962256,0.518563761274723,0.15671779084930598,-0.06103258197799231,-0.12141178470499572,-0.12962460691918604,-0.11575796560332108,-0.08313067615183493,-0.029618667573805293,0.047281503605033075,0.1572211157572412,0.30887155551989853,0.4879561945016868,0.6261941586882745,0.6708162744525266,0.6710567788127018,0.6731027711918257,0.6869094516325657,0.701437425145826,0.7153555462278661,0.731569232750059,0.7539520284989094,0.7678606198541127,0.6822356774018585,0.27357236517503736,-0.14246618301305064,-0.36638851599859595,-0.514900630252869,-0.6305349880476324,-0.7243949997552871,-0.8050566264998316,-0.8749132897661722,-0.8743635719469528,-0.6335401146862588,-0.28557985071708986,-0.06527286557249057,0.03733631378453878,0.0587908335081164,0.02348729761976988,-0.03833782856473757,-0.09154459670833724,-0.10659727400636342,-0.0704540731554008,0.004779198227477272,0.09465715040205996,0.17247922287692935,0.22814171829415478,0.26905892745202753,0.30608370490282016,0.3417940668563882,0.3638214702086577,0.35204198278843546,0.29963112674339965,0.23435069481424867,0.1849398186196603,0.15499520758248697,0.14311863870518793,0.14637657374231977,0.16396174745153091,0.21075808563414547,0.31472944719814544,0.4783350477520145,0.500959834580069,0.09253900041250883,-0.10628552838704323,-0.17193675453672688,-0.1920250159704581,-0.21033538386753436,-0.24950153797128433,-0.29907203563129303,-0.32979614617358,-0.3174270629804825,-0.24969549959667078,-0.1391879463484426,-0.015703221611614426,0.08466485594062155,0.14101568980176044,0.15541009262567007,0.14295928299230298,0.1195252632173562,0.10202242841422407,0.10840162469120337,0.14977422478466682,0.20449071708655697,0.1729201768189203,0.0326441456968813,-0.07921736015342314,-0.14459342261871808,-0.18464390868140435,-0.2116029326288707,-0.23644992808551415,-0.2640120187283148,-0.2941350987308612,-0.3196453331300127,-0.328614682362069,-0.3227135861025697,-0.3179996547121893,-0.34111007767440465,-0.4045007348371922,-0.4984166350569891,-0.596833403918896,-0.6795972221314411,-0.7342361248968334,-0.7573760057911892,-0.7558422040469226,-0.7341312728271205,-0.6899255185760621,-0.639921004453506,-0.6076273417950061,-0.5989382165069842,-0.6010564477209133,-0.594494198025358,-0.561822861036742,-0.4938819443729283,-0.37498774542218427,-0.17085454303911354,0.09830919069705825,0.3308023249859391,0.4782058378048702,0.5580425207308032,0.5868447640576826,0.5852115785096373,0.5724364222268012,0.5611073493923322,0.5653390678908363,0.5912686865021194,0.6263516075612681,0.6493213088752301,0.6534300112647257,0.6384697835497638,0.6101905564062867,0.5773186240309445,0.5461588750485749,0.5191139588892173,0.4986703728755148,0.4820352395479419,0.46576496684874347,0.4456340770102795,0.4189959741212308,0.3871170298009413,0.3577867606068761,0.33009810708101267,0.29453426706636565,0.23998053068441522,0.16051749327610193,0.040458205625891266,-0.10669609581682368,-0.21909093070409275,-0.24188613778647602,-0.1653634752196336,-0.018379708754036196,0.14624012026108585,0.2805568885720215,0.36459077427797026,0.3824058472212151,0.3499381574173668,0.29137516825655024,0.2434394979461328,0.22933031563923134,0.2578508439392923,0.3226102186035955,0.399844920116379,0.4627623704077703,0.5003931755575929,0.5123075728125864,0.5006899962603261,0.4630067965908755,0.4029820727186002,0.32813900641002763,0.24847472211640415,0.17272561150358373,0.10700764385935664,0.04500880185633896,-0.0225169723859582,-0.10514363204549171,-0.20505912932938286,-0.30386021187634915,-0.3777658369318204,-0.43087334317640474,-0.48349729583739154,-0.5514095297598318,-0.6421968535288065,-0.7432511622920137,-0.8252023066181854,-0.8700354173846425,-0.8876434004652223,-0.8955653369060179,-0.9015722639619084,-0.9093863429005395,-0.919721458197663,-0.9295118643000654,-0.9324652370266222,-0.9277912257712975,-0.918270816854121,-0.9063519572490301,-0.8922189722937061,-0.8693687967906613,-0.8199958307254583,-0.6831658668913286,-0.25076846080925813,0.4828972468159279,0.8065341766534774,0.8945963249934521,0.9199078112024748,0.9205757007596957,0.9024320883727261,0.8601111365259919,0.7846666867309882,0.6856264614672675,0.6141994455527345,0.6075460879813621,0.6425576672714198,0.683772502526563,0.7126694963149789,0.7152950084801257,0.6601709008897707,0.4577803930631282,0.015096355829579392,-0.42368808318781875,-0.6446329252607415,-0.7150690878254796,-0.7066340212630673,-0.6505128381302501,-0.5558436045117762,-0.42872395783777345,-0.2932619824512573,-0.20269969684375594,-0.18535583468179412,-0.22639065858924054,-0.2819409049897515,-0.3234311648478237,-0.3492558476079624,-0.37151969800243917,-0.39907820687379075,-0.4341520755350676,-0.47471181276121577,-0.5223479647188927,-0.5812944940921507,-0.6378253535304095,-0.6815024291014731,-0.7140110665238681,-0.7379342873034634,-0.7609383887426189,-0.7936615910605558,-0.8327255230805014,-0.8656303638660203,-0.8854641898729692,-0.8954261789422525,-0.9024003536626851,-0.9087866086867086,-0.9109677693655004,-0.8906269519607961,-0.8216571525476525,-0.6685729317538014,-0.4209939486017965,-0.14463611740129428,0.07322454508574291,0.20938072304635144,0.27921020721839596,0.3054883197009235,0.30898251424110607,0.30812825077594036,0.32032710617551213,0.36443737300850787,0.4531454539212746,0.5799498889975323,0.7171326274771945,0.8273441053105062,0.889051209246344,0.9015755920091129,0.8730372009424937,0.8059415016782218,0.6971683549727533,0.5439712751025011,0.3539027493675066,0.14898288438253465,-0.023459417883460405,-0.12633021626718477,-0.19779358214149842,-0.28745739815270027,-0.3921628520138588,-0.461051450019944,-0.4566902360487467,-0.37808602271779335,-0.2480533903096779,-0.1675923399085296,-0.2279012194760442,-0.41175322398570047,-0.6098841681353764,-0.745103127524556,-0.8192236395539684,-0.8551388383134222,-0.8604967376288515,-0.8463322311567294,-0.8269291187572186,-0.8096891228843759,-0.8009494948042634,-0.8039932493972332,-0.8222340550630762,-0.8206030465430176,-0.6508266256149923,-0.3329694391417076,-0.12263380268205783,-0.013846641935280032,0.055623179653486496,0.11438315247945054,0.169923975991678,0.22438782980437066,0.2877153952632501,0.3726781496032899,0.46942536006769936,0.559406876823073,0.6286359815637561,0.670145345262278,0.6861836451796725,0.6811953070805469,0.6569733507018533,0.6105620136365855,0.5410721054043975,0.4524193265483209,0.35730338929334027,0.29429741255610503,0.3119845202060769,0.4356106958795472,0.6160905036498989,0.6972281926066183,0.6416776767432467,0.5389319530322695,0.42024197436632954,0.2803727821830744,0.09362677131748866,-0.15895655855602558,-0.44502728816388876,-0.6856242616263638,-0.7985097109377122,-0.8214464688336669,-0.8217327128240457,-0.7863563653020637,-0.7183110732611756,-0.645175724003458,-0.5942571027990006,-0.5736367153473996,-0.5781555630016723,-0.5989808946045347,-0.6165282459169332,-0.5890787532596036,-0.41543149957803344,0.005519422273412821,0.3824023949554049,0.5698310684088262,0.6660023018338619,0.7147243088003794,0.7240885439316668,0.6854119107380418,0.5923573900351107,0.47506327050515956,0.35597217188742925,0.23476657917994986,0.11160230517835235,-0.001975440106798783,-0.09051666877265867,-0.15760486002144194,-0.20975680879228686,-0.25353502864656735,-0.2926673892682381,-0.3264167994256758,-0.3511948691984138,-0.3531295499633467,-0.32088245916841895,-0.26504295599558947,-0.21231876077293815,-0.19281402695414168,-0.22909388041633527,-0.3126434247751057,-0.3984186981192887,-0.4622524525737536,-0.4908072825189553,-0.482208856552521,-0.4250290649712418,-0.31208913932838905,-0.1330954817792525,0.09954301011950303,0.31633616658568864,0.4655351605160462,0.5475334076053094,0.587929260862848,0.6136591506279737,0.6406955314207614,0.6627541282632075,0.6775130993401729,0.6764992443195322,0.6386273841571123,0.5451459441420311,0.35602728255654087,0.061727697981158534,-0.23379008335900922,-0.41651585221426324,-0.490704477121151,-0.49945456479003864,-0.47588484284953164,-0.42755571494802774,-0.37121301972975135,-0.3419738733903722,-0.35617844023726913,-0.41192952329965615,-0.48060856106398187,-0.5412741363897019,-0.5940451548495769,-0.6458878435360356,-0.7027914303624464,-0.7608688096898287,-0.8157450942416434,-0.8561958598459729,-0.8759548020711971,-0.8825274939819043,-0.8777066122574135,-0.843738050479448,-0.7007698003653308,-0.29578598357805963,0.183364436381789,0.4721499797816572,0.62277618709337,0.6874172325732861,0.6970414918964956,0.6804268915434232,0.6582347359662608,0.6441297697063468,0.6238778058616269,0.5795730500914696,0.5048549815935895,0.4195652412754331,0.35078004759510817,0.31321725773024534,0.3121066600354278,0.33948051720320205,0.38172426319389696,0.41991148696796293,0.4290946173470062,0.3857979855982546,0.2908768105365561,0.18345003442434688,0.14156464348395234,0.19118050294726832,0.2793840708295292,0.35630128918069176,0.4081459870822299,0.44729078503494923,0.4886615857777925,0.5430415980578371,0.6001905971925706,0.6422055640490153,0.6631782210233493,0.6527445907690467,0.5683440523582104,0.20538695556083733,-0.6373453264495346,-0.9282771359355724,-0.9712235978996105,-0.9807169866717393,-0.9843047667614518,-0.9808825294121579,-0.9623001757227778,-0.9281295898639177,-0.899202286313393,-0.8970009580506,-0.9161831303058815,-0.9371208496883531,-0.9474872523234442,-0.9470113094004661,-0.9369084465280886,-0.9133350061121513,-0.854589672225163,-0.6066541630815091,0.5205301124974929,0.9202107827630871,0.9646023682441521,0.9731590871243435,0.9739270319758445,0.9705267085584598,0.962308255221313,0.9464815023078854,0.9174610922693116,0.8677232593996618,0.7913946081649195,0.6843706463929239,0.5449542805546101,0.3686566240075473,0.1519955286549027,-0.09693777929930121,-0.3212746590375493,-0.4696499344746151,-0.5463410694294197,-0.5830041520506326,-0.6059519944201668,-0.6274429841661986,-0.643731695813513,-0.6444937797668095,-0.6151153522545272,-0.5428797719962748,-0.41297232581213283,-0.26109503993044114,-0.2766183101789706,-0.332450045814111,-0.3475149404183323,-0.33303214499462314,-0.30456227433502564,-0.27409180588185994,-0.2496574429978412,-0.23557014368072585,-0.23360510992519914,-0.24637473252082315,-0.284808697539018,-0.36390430148138636,-0.4731350264708184,-0.566991204252588,-0.6225591606569987,-0.6547164417365681,-0.6754951036773124,-0.6791337415244628,-0.6601706696824032,-0.6248643466204911,-0.5850487351608982,-0.5454575541616312,-0.5002705868697276,-0.4357113326316371,-0.3193229394599807,-0.12809574522605766,0.10140167368067608,0.2788017918779292,0.3829509486067451,0.43688232315985004,0.45296322080329365,0.4196323318689771,0.3321352802092324,0.23280351398994115,0.19875513136864956,0.30154159952276094,0.5567836621564005,0.7721470527395746,0.7825313785101846,0.7205930179466017,0.655365882866245,0.6031967125030548,0.5673505950834288,0.5378800457618835,0.4828338020954748,0.391859275291334,0.2975682499150112,0.21950514153782216,0.17219244655938803,0.14805005203540808,0.11671517884914628,0.06780097916164972,0.027330983346899675,0.027640264797467288,0.07446540776919462,0.14448572114494193,0.20876283846397056,0.2012529029957242,0.08659756090259542,-0.07837444791212637,-0.22184046652113004,-0.3113507516807075,-0.35831970953473313,-0.3866163096572928,-0.40939959480576993,-0.43907332236433644,-0.46909267089409357,-0.48052635422738466,-0.4746957777932656,-0.45146047378343707,-0.40911751497734133,-0.3421912390384786,-0.25867768016877934,-0.18317250966870197,-0.1342001560334322,-0.11150576774908753,-0.1157046686112257,-0.1633201901847251,-0.2942154751698473,-0.48211644885104643,-0.6251903433981082,-0.6908327442743608,-0.709668621533047,-0.6984893166092173,-0.6642000608109374,-0.6066513429290027,-0.5128477494639018,-0.3626908968673618,-0.15365966457611083,0.06545015553479315,0.23378804618755877,0.3336918461263213,0.36224610068758034,0.32601000428515803,0.23880427218810926,0.16295198504832642,0.13043538590129541,0.1227606099942739,0.11144989945742365,0.08011162349652205,0.03034416353677993,-0.021273133951703615,-0.05370828643983438,-0.0566392552700488,-0.024536119191996924,0.030251137590447372,0.08705756780494606,0.12860456625685018,0.15231301148779433,0.16255551897100268,0.16580529998911098,0.16362559283057299,0.15524045750884882,0.1379448953253613,0.11333854409221676,0.0917899928352873,0.09018105235580207,0.12180145783340961,0.1869843497125326,0.2923973687748449,0.44820311299425203,0.6360361303461651,0.7403651588094681,0.6518165769251152,0.5606615178944182,0.5291415969520658,0.5301388240085961,0.5421803750407671,0.5536039354937714,0.5536096528606257,0.5352220506399938,0.4974315246570583,0.4467283002881473,0.39595215877326895,0.3490053379842258,0.3012763758306823,0.24763796791803971,0.1953168691296426,0.15506413886339343,0.13537420914021073,0.13832163203877812,0.1574468446278623,0.1879794372801874,0.22023382313571727,0.24848538271637424,0.27475932906091943,0.2965468761358415,0.3049102445908993,0.29432426076345813,0.264628675936685,0.2228986728842951,0.17973953963789838,0.1423681054257466,0.11228850671315459,0.095535873000549,0.10026891145967712,0.12241238384180281,0.14334740627335008,0.14229761598177668,0.09501144645251867,0.012573349373825378,-0.08132566932950311,-0.16346214756159333,-0.2307844259705763,-0.2917638013876655,-0.36845574860874913,-0.46450112444813996,-0.5416443640848642,-0.5739307085806229,-0.5788315527899834,-0.5826654373932852,-0.5934854666095339,-0.5919306322013562,-0.5652040827931787,-0.5154320988781096,-0.44630067740240126,-0.3549280438105214,-0.24640258934129883,-0.13590962195329895,-0.06403667906140866,-0.0950620181028401,-0.2825936407053553,-0.5775866501629796,-0.7993861371565365,-0.8978214955883977,-0.9336046136745987,-0.9435388506226339,-0.9404338424425056,-0.9295460472829322,-0.914008698307321,-0.8997596365338489,-0.8894256964505691,-0.8758369211305034,-0.859754654747698,-0.8463726615013615,-0.8390480526285022,-0.8314400564541573,-0.7986007148950826,-0.666440559105391,-0.35886972022038105,-0.023083588936706857,0.13098572503636766,0.10954809006946073,-0.015989900602643367,-0.17373599554776833,-0.3047331210049033,-0.3852967810933256,-0.41965889134118733,-0.4217859884285954,-0.418672360283021,-0.4496024699896883,-0.5265593676903272,-0.6190455843633745,-0.6827010475299461,-0.7018843165630686,-0.6910231217326916,-0.6653731000800136,-0.630876671028579,-0.5746057261155149,-0.47838349757720305,-0.3095473604409246,-0.0645197762877958,0.1704184010242108,0.32174066375610794,0.3936326962283815,0.4124711667305626,0.3878607937797717,0.31849091476255925,0.20305750865511626,0.038794077648114725,-0.1401057361084106,-0.263940217657874,-0.26157277272180807,-0.0974213979873695,0.255220257915128,0.5609924649304157,0.7157445271148422,0.7879829676423099,0.8192765573976609,0.8437145255882333,0.8732993449313642,0.9009246271312816,0.9208936064808607,0.9325221817900389,0.9363721208602247,0.9325961957853642,0.9188187901140337,0.8897412904502038,0.8313122688272437,0.7092824922445004,0.4704547334666657,0.13633601151405236,-0.14028687254992794,-0.30175674606610703,-0.40499873650258095,-0.5113940583329517,-0.6300541363151706,-0.7284476232118893,-0.7904809943756015,-0.8244300456079104,-0.848746460191634,-0.8707332242605723,-0.8918797941769232,-0.9057798961400217,-0.8833419809306777,-0.7426523607191182,-0.48088263896753125,-0.2684091819496071,-0.1591797605904081,-0.13468852188366376,-0.1739387001319287,-0.23914881199056895,-0.2916608358679745,-0.32554399339027634,-0.33667561500401194,-0.32542393595401015,-0.27323727798515196,-0.15773624122840044,-0.011789680507032586,0.13584306304343233,0.3120805306543756,0.5535481218167557,0.7576475407999177,0.7946036557411106,0.713675076332036,0.597159641014472,0.4875364729639589,0.38927505341730767,0.29969681503513723,0.20449900404785729,0.08517981182451041,-0.05838361456873689,-0.1826241553991665,-0.19268666824205014,-0.060523684198172056,0.13849156534364207,0.29595401797240767,0.3818296075535148,0.41162373179612566,0.4034508126009318,0.37167429738043245,0.33332107639798547,0.3106298727191681,0.28193613917794924,0.19187102541647783,0.04281197317302206,-0.09769279074396583,-0.2109456249144416,-0.3145981060433562,-0.4307154805651988,-0.5540198740969197,-0.5701900497950906,-0.551894040396674,-0.614976348794748,-0.6907866048362087,-0.7238827285657448,-0.7316185463045457,-0.7321848720585659,-0.7320021473087579,-0.731775319173301,-0.7320605646621943,-0.729489220646189,-0.7172958246281878,-0.6836173676997758,-0.6118286863886926,-0.5009944903258507,-0.3944285813452152,-0.3443062519050676,-0.3546415128755349,-0.4008131481208532,-0.4367279279354468,-0.4244040379800051,-0.3402250372251887,-0.13967475493586268,0.1659409402052278,0.40725641956131275,0.5236037399847743,0.5587007094036986,0.4993673939209266,0.2754463594061085,0.012540234388426224,-0.10973340481568075,-0.10756081533313028,-0.053756094690009325,-0.01606277425783482,-0.021428754959618025,-0.06627469771596277,-0.14230904385260212,-0.23789518422243652,-0.34254804214729623,-0.45528492833057843,-0.5250687939717175,-0.4079070505044699,-0.20882673803590632,-0.08238839392964138,-0.012781675366770787,0.042805353055664415,0.10999227870563717,0.20051996893904225,0.30242470876657046,0.3987951207087411,0.4769369290646568,0.5316061000548077,0.5670831076370637,0.5897821997483431,0.6097570451078135,0.6340619536034953,0.6700168203380351,0.7196998682379685,0.7828205278742496,0.848422698752889,0.8775517947678161,0.8392690949285336,0.7692112565495819,0.7035636993510483,0.6442246350977234,0.5836477477960998,0.5187230010061458,0.4574921049617814,0.41579204521187396,0.39949149023800323,0.40707399855456144,0.4240941888447187,0.4308884138291041,0.41354377363542805,0.3723128517798314,0.3242190567711388,0.28581329365418284,0.26308858296931786,0.2509283555656232,0.23984500168187925,0.22495570438097795,0.2020789485760242,0.16920537350157094,0.1237655735916953,0.05954969362255132,-0.03673473265754641,-0.19137906546754468,-0.4195729115666165,-0.6644274676158562,-0.8156075654569298,-0.8668741824477324,-0.8706849452638261,-0.8562887364284343,-0.8330902137040772,-0.8025471574968277,-0.7634781622532203,-0.7152616402702731,-0.6585046415284338,-0.5934557038131483,-0.5217830082109163,-0.4494362042692749,-0.38481113604158,-0.33375792856937164,-0.2954775465545106,-0.2638977969188336,-0.23683227817200025,-0.21778501731317407,-0.211060769318473,-0.21706625185230916,-0.22600170294648686,-0.2240365514815822,-0.20470446231206083,-0.17373308270336674,-0.15200292298345455,-0.15860648550765713,-0.19670440036469036,-0.2508535776178076,-0.30117547409076095,-0.3393341162239719,-0.3647774673795564,-0.3753133641608948,-0.36683350674804643,-0.33985899693406313,-0.3071411164475359,-0.27878753231566333,-0.2541323991550867,-0.21955983809931173,-0.1633164656170033,-0.07487087374198778,0.020922551038754386,0.08944143011312349,0.11224814359713252,0.10394462142983371,0.08608820785420906,0.07713039743086093,0.07966645990630111,0.0832202660949257,0.08556510304287061,0.08305350843767376,0.07940571912946937,0.086424211085113,0.11820526697554046,0.18478404257928355,0.281656399699356,0.3772254041012727,0.4295429387534956,0.4115970275417454,0.3316093545893137,0.24239342306803102,0.21431875490776942,0.25157006187876596,0.3272488092996086,0.3828703031680604,0.3860010976807656,0.373254873720774,0.3739872794828321,0.4034291957339955,0.4619048760270738,0.5423761516520657,0.6429265545257504,0.7532797921313693,0.8476216575398656,0.9076961012854324,0.9416245886810649,0.9568424528018348,0.9349564027689122,0.8132672023436552,0.532619288024232,0.1994859618874561,-0.05435520252584614,-0.22715468618842366,-0.3403812942709336,-0.4019786132552037,-0.4102985100405008,-0.3572426998205652,-0.22022416871788417,0.03248066914026123,0.3296920583401823,0.4938487874610442,0.539177305174502,0.523652448584163,0.448468283354563,0.27466926366809286,-0.05526878221368847,-0.39457033347704296,-0.5020317607604998,-0.48566507106186796,-0.45559261969128656,-0.4444892639580139,-0.46253464845846876,-0.5114403534850799,-0.5820565562533986,-0.6515043531410034,-0.6895279944129531,-0.6935387547084496,-0.6600713037088494,-0.5776899938573127,-0.43601469125866354,-0.23188704108537117,0.02863232196811007,0.3087263152324537,0.5415802157949081,0.6942640637408063,0.7815582341587156,0.8269814353682365,0.8451916612754837,0.8394136235948552,0.8043383102988316,0.7297612407583363,0.6149003900432526,0.49416541285802423,0.4062189622879589,0.3566546358715416,0.3225954543236788,0.2714266676213785,0.1458133625856982,-0.09640683125197508,-0.3238809539474526,-0.4249332657476726,-0.46217464998685415,-0.4871312788663946,-0.5191845954746517,-0.5521627385762059,-0.5741019729275912,-0.5751301486280916,-0.5527829701559862,-0.5044179303830411,-0.4275112925050562,-0.3213941856650041,-0.19390231416607365,-0.07353081155238023,0.013642730505910168,0.05458520592992023,0.05533718822025702,0.022588681603574436,-0.03880916782411943,-0.12253530508149027,-0.2167669059011919,-0.29667438575677557,-0.34934813737712284,-0.3799763315316341,-0.3993067315899472,-0.4181209993871536,-0.4363988474873095,-0.44956044804580125,-0.45350726429665517,-0.4513445338851714,-0.44438283946271606,-0.43015660361075286,-0.4071197529271592,-0.37810308240041707,-0.3488739420843764,-0.32835976020800456,-0.3203036648364321,-0.33222428028591683,-0.36488287699318145,-0.4118308645317436,-0.46031116056902155,-0.5114935291491723,-0.568021996283745,-0.6347865673003186,-0.7056849032938142,-0.743414189372814,-0.7143529359694994,-0.6161344009577321,-0.4654631655768982,-0.2990924510468549,-0.1405768253784733,-0.015837380134675092,0.06269806558767839,0.09773715881642726,0.1077882661688849,0.11583449275159444,0.13240744265313936,0.16425542932855872,0.19863781400459143,0.23349769570307785,0.2659668581564992,0.2907775008764989,0.29888140198729246,0.2844905082410773,0.2538014943345337,0.2157789799363042,0.17924664969412824,0.1481945081520942,0.12361508834373043,0.10198924805842507,0.08589242278085514,0.07659973955724407,0.07286189614772541,0.06959344773055857,0.0584421255354548,-0.00027923826538253226,-0.14837538645374362,-0.24112775203446687,-0.3069439898902772,-0.35786155756535143,-0.3870497098872268,-0.38698665983080194,-0.34820332794092673,-0.25671950016857353,-0.0965220775245453,0.1357284096199169,0.3780650994131345,0.5395580781956504,0.5997977109626035,0.5737316167909506,0.48383064263541475,0.41212479035448235,0.4863358011066189,0.6846611342189811,0.8372387529791315,0.9119930342314254,0.9460079587839324,0.956313494206975,0.9426037098159199,0.9000497429987452,0.8445122333485399,0.8229226125194103,0.8478113333620331,0.8925957032406432,0.9345612607528293,0.9608169149641427,0.9666444962612758,0.9451216044194708,0.8849986372821017,0.7665760446400843,0.5696846247259025,0.3404466297182441,0.17662971314175926,0.10686067481798742,0.10007769618662797,0.09187239921510518,0.04981201689271772,-0.029455654070036127,-0.12889354984169618,-0.21584008502840135,-0.2766546068749275,-0.3077238322344122,-0.29605721260644036,-0.2225230980347751,-0.08799225530322803,0.056574370076714,0.1441984185528214,0.14074397657147777,0.058414079417355005,-0.07396494404105934,-0.21780962702594023,-0.31705570303071506,-0.37301069745946425,-0.4499249205629931,-0.5807363697627796,-0.7073226792378489,-0.7875899592289883,-0.8220319742081516,-0.8275706689071849,-0.8082269024768999,-0.7552093819088239,-0.6649988403573529,-0.5583425555202932,-0.47061115551435234,-0.4225658861422323,-0.414536386892632,-0.4319976433070494,-0.4531521343199263,-0.4484674555038928,-0.36841554091538486,-0.13447961032168226,0.21725481342503125,0.354977284244221,0.2674711032540906,0.17827000128637444,0.17402613582382345,0.2580624492619411,0.4130556939509554,0.5843078551886508,0.7119132574812659,0.7844716363134565,0.8156627208411495,0.8217809015301581,0.8175202939628375,0.811124883664722,0.8023203751058351,0.7839807166143656,0.7431719343015873,0.6568294344916277,0.48659517846877637,0.24771358379610725,0.05927500607648695,-0.03557029248076886,-0.09498299677101125,-0.15305158049445078,-0.20583858167319086,-0.24281825850493202,-0.26466490141797333,-0.286099245316619,-0.29541434459921234,-0.281956976671934,-0.24001923053491125,-0.1800036675665479,-0.14492683439010898,-0.1524538375583384,-0.18806706860750969,-0.24072243347859373,-0.2993478343949785,-0.3541857299039877,-0.39456554033213787,-0.4098283800715677,-0.40234746185159204,-0.3883445346293357,-0.38092079206400364,-0.380701500820668,-0.39026825533346265,-0.4088295211636374,-0.44402745381130687,-0.5063120140126919,-0.5942509107708942,-0.6904461423191027,-0.765694527794988,-0.8092815161630561,-0.8223071383016626,-0.791158280145778,-0.6849694750463362,-0.5313592263455428,-0.40572115932275504,-0.33649022072020174,-0.3052685452175729,-0.28095793733779933,-0.24378466588060535,-0.19330313491951095,-0.13573685452012837,-0.07537831777544522,-0.013705441709919244,0.047719593011883756,0.1110369343932097,0.18353017717147477,0.27739129603328516,0.4082197569669025,0.5917782588438663,0.8207834100516032,0.9744877910857166,0.8612950870901551,0.6459889222142157,0.4880679712132419,0.3942773460909853,0.34291967376570465,0.31297807090012825,0.29037296875739405,0.2686377874741407,0.24423487574392308,0.21538171333102632,0.18139298545885996,0.1406237352945191,0.0927863242914601,0.04281765011396444,-0.0048558557746116796,-0.05054381293979603,-0.09947258445156726,-0.16302608486912676,-0.2528219536713137,-0.3788712859395426,-0.5293573131273565,-0.6556169859859259,-0.7249771235905402,-0.7423420974664734,-0.7255784533100607,-0.6914018384798261,-0.6428521094120393,-0.5537128717383356,-0.26004844965003737,0.6142121313123713,0.910248119489863,0.9304867729838165,0.92235983840958,0.901684904781418,0.8629211263700524,0.7952173240605009,0.6842501113821429,0.5261856071229312,0.34565131493424633,0.18951157215171563,0.08369047946928496,0.01910569957759765,-0.02849550228376187,-0.07824644860359077,-0.13673556346392285,-0.2004738903614845,-0.26463530901235216,-0.3220841813149539,-0.3628663260790152,-0.3827742241941546,-0.37454082072913686,-0.33535783095852983,-0.27386768606297185,-0.20593076827763077,-0.14642824640268057,-0.1024234534276205,-0.07628588998603775,-0.05983711789764472,-0.03916118075096434,-0.004747565207819027,0.04671914927012736,0.10551199226887721,0.14724191096471362,0.14953991916897622,0.10608625460319171,0.025649773481654987,-0.0696469845312181,-0.15916083795657468,-0.23729090795555705,-0.31150298070260896,-0.39459064440545105,-0.4906226145612201,-0.5859558194460951,-0.65181797342692,-0.6611111154016168,-0.6035478148862767,-0.4758849861974252,-0.2903085960617813,-0.09095687305582947,0.06485628248654747,0.15846827635510613,0.20266534738411474,0.20796142257256858,0.18047972244302748,0.118633520563797,0.022813993723453028,-0.08835469940520851,-0.173560386983986,-0.20753608836063486,-0.20097496717692115,-0.1809100420787493,-0.15785469834642693,-0.13765134319608124,-0.12005815033240959,-0.09996193328375118,-0.07684328669099506,-0.0534230469161533,-0.02774639771660868,0.003543812842738331,0.043526136448796535,0.09421348354636544,0.1556135328963895,0.22558252747468927,0.30906084239764986,0.4266720306078594,0.5941426530327142,0.7447613680262148,0.7865570538884591,0.7661494852013193,0.7126469903261888,0.6162982294191656,0.46407163108452926,0.2647582775565013,0.0556587101499745,-0.11885801299737894,-0.21489062615480617,-0.22600566857193788,-0.16188964690381594,-0.03688189201354009,0.10110180308984663,0.14929198694027895,0.05798382415851586,-0.11516021479471945,-0.22385265794205156,-0.23921508604367395,-0.20253917356741039,-0.1533619908675223,-0.1096538217173392,-0.07069360138239789,-0.029247310843538737,0.022283632791547287,0.09408955191380988,0.1945550078963897,0.32809539115051517,0.4864127083065786,0.6432157628587062,0.7562807715315284,0.7805589354155198,0.710471343366152,0.5985382914875903,0.5045016777134481,0.43418159450513966,0.3710790604036875,0.3094810331513864,0.24275708165617646,0.17669526258503152,0.10829235782839362,0.03877311304123634,-0.014366293793923271,-0.03477898667765192,-0.013621931108500301,0.06616188695789675,0.14922415005922016,0.15356578050500536,0.060686223750708534,-0.116978505751269,-0.33392048604904984,-0.47124021958479745,-0.48418725939798124,-0.42529023941704847,-0.3378169711135285,-0.25091844433112975,-0.18005526895514587,-0.13074726150982233,-0.10295497510258651,-0.08805664969368025,-0.07842205922469889,-0.08642717159223909,-0.14125724118348246,-0.24076118957740683,-0.29331332655133485,-0.2992630607567085,-0.3024086060628872,-0.32378727791117456,-0.38635261427778506,-0.5079505748888549,-0.6766288942325578,-0.7616311045345823,-0.7097431689747583,-0.62002401275897,-0.528301342333145,-0.4222884942408205,-0.2930608573052453,-0.14952763894735652,-0.0077066491068702656,0.11061963564461935,0.20008981190441033,0.26966862488718024,0.32628098276603246,0.3620042294394864,0.3623231888153345,0.3183715320386289,0.2487226051855995,0.18641414874580453,0.15014952415873453,0.1287339517478712,0.10072193914802009,0.05471277389077411,0.021597673425187567,0.05085108315562096,0.19970722441139852,0.491535588208423,0.7742792036742845,0.8705693550069253,0.8652048627712209,0.843826967691344,0.8314450086983307,0.8284290953964099,0.8244435559117006,0.80612678677071,0.7613219491406313,0.6879526254725821,0.5914265993426937,0.4770753975479724,0.35550886854107777,0.241403777187847,0.14320438639632546,0.06459414845002043,0.0072364911848661565,-0.026163162416610358,-0.017456506015890487,0.05372947719720577,0.19380780251757496,0.38041893038752744,0.5465991715854915,0.6351354713947297,0.6368806286124093,0.5289273826292773,0.20822346606466136,-0.33661083603262093,-0.6896076694909437,-0.8125569824092793,-0.8453952539097931,-0.8438992446123877,-0.8229573262979484,-0.7848081379703754,-0.7345277528983757,-0.6871262270556786,-0.6855734595273316,-0.7331227238436383,-0.7980904203016607,-0.8528388505290344,-0.8879459803585568,-0.905458709654892,-0.9127592523096618,-0.9164839481263671,-0.911857978605665,-0.8940678283446007,-0.8685735373838218,-0.8414531069813611,-0.8161270038755069,-0.7973521525253362,-0.7858702098802125,-0.7797676867019963,-0.7730757130659806,-0.7655394592232998,-0.752751514528403,-0.7361536293503174,-0.7143984499224182,-0.6840612691192697,-0.6421112677688188,-0.5943868242495575,-0.5460643549597894,-0.4966295732766457,-0.42997335191147157,-0.3216737496666989,-0.13934531281923943,0.10394144530244105,0.3087601899229503,0.4079514914658223,0.4179444048298004,0.39416090295154976,0.38413983616401515,0.3916981659856767,0.4170035417990989,0.4765400731210576,0.5758930567486112,0.6465272884021255,0.5877517336983845,0.3700597365892736,0.09089985980094151,-0.1754403509823729,-0.4032865114893802,-0.5619730866651473,-0.6345831737511679,-0.645142000859417,-0.6193410910549738,-0.5870285070933181,-0.561393585119594,-0.5302380631981148,-0.4616742050045745,-0.29024026673681297,0.1575743944831451,0.7094498407033113,0.9016159031046165,0.9476746974832574,0.9607713285006595,0.9641767973601245,0.9629866635396134,0.9577135528199495,0.9458526035358401,0.9194839361904048,0.8569245829477697,0.696082574175899,0.375767982446184,0.061533124206232984,-0.0810001289190091,-0.11668390695810114,-0.14272308398255565,-0.19883332050574684,-0.30128663188885296,-0.43970793063342106,-0.5786375864597212,-0.676180177147507,-0.7148171022291822,-0.6931466384215141,-0.6103019957461148,-0.4802191270257272,-0.337028650987228,-0.20739907272818353,-0.09966258439245154,-0.025889224171240358,-0.0025933192621472516,-0.04763409709424365,-0.14280255645460377,-0.25904958183668364,-0.33805017971111806,-0.3293941436408659,-0.22106572644383776,-0.049243125751555546,0.14555766916750487,0.2786364328966395,0.3394696806492231,0.35886819331249786,0.34137329676526085,0.3098191742953379,0.27123496267902264,0.2295443768965172,0.18385044124793104,0.13300411751153457,0.09088197275299444,0.06810861084625036,0.07282189662286873,0.09697579985850412,0.11897177353057961,0.11964238030035397,0.08331813340260678,0.0003196756841252729,-0.11365350863577947,-0.23588239310017822,-0.3461074504635348,-0.4483716767932574,-0.5479947843824858,-0.6343805538654859,-0.6842292883721427,-0.6938126056802199,-0.6748204209840865,-0.6446507797262142,-0.6057155408839354,-0.5550977141679607,-0.4987140973653301,-0.430039585818482,-0.337821072151732,-0.24817963567830767,-0.18318763067948543,-0.13931969028740382,-0.11260221305794417,-0.10284383027331649,-0.11222052552190438,-0.14295384092583416,-0.19683893799028784,-0.2643296237395573,-0.3242036621438986,-0.3574651376531054,-0.36136169217387476,-0.3423881725585429,-0.3055129119320541,-0.2528214608267027,-0.1937109130291956,-0.14594288608672693,-0.11780071465461689,-0.11145338910815002,-0.13083112665503116,-0.18418305098377613,-0.2591385286979562,-0.26862764785765725,-0.21936983167416282,-0.19342017275723428,-0.21041224734854339,-0.254151100311808,-0.28905267403194373,-0.28547300386357605,-0.23227404038120156,-0.13220110323968828,-0.0010712003138955758,0.13795679946137904,0.2749312258555233,0.4158292632677985,0.5401201468921076,0.6032086219902894,0.6146789991556609,0.6043337924284161,0.5870608744965589,0.5718917768803796,0.5628247497901915,0.5618844353536503,0.5690398186741852,0.5845335017449711,0.6078859495881868,0.636214056407262,0.668094254822796,0.7042915824168308,0.7487309374130974,0.8061368727981602,0.8598095613495185,0.6207160353621125,0.09581378542125003,-0.09501935553703655,-0.13897558753009373,-0.1425323265491384,-0.14146455172773978,-0.13920785063570582,-0.1389595842071089,-0.1391178795560271,-0.14221757152577727,-0.15306527937602657,-0.16580273564523237,-0.1748937723639683,-0.18191091225000713,-0.1911413356479737,-0.20027201106677509,-0.2023044922219169,-0.18232767867594576,-0.14245921792078542,-0.10224695425892821,-0.08591451752247756,-0.11613451339352407,-0.197475500607917,-0.31282064330425474,-0.4272070219067348,-0.5129549411041853,-0.5653630031200391,-0.591415126593942,-0.6068964253485524,-0.6161500907663551,-0.6217924795911394,-0.6315550370769112,-0.6470670045043224,-0.6556953720741397,-0.6315549919944321,-0.5353127181939799,-0.3444914015814316,-0.1653389787438552,-0.13496447723409075,-0.242904131044712,-0.40628802636692685,-0.5573846255957714,-0.6625419606859688,-0.7196638873772955,-0.7423592613923953,-0.7300033863172032,-0.6886886867977633,-0.6421507272476846,-0.6132066370410378,-0.5992702251676215,-0.5816345579067788,-0.566471495181701,-0.5719911221292255,-0.600709890900956,-0.6312888943082435,-0.6496935324147937,-0.6452095989403182,-0.5962314367444562,-0.4542185437995069,-0.19088767635202658,0.0702376449134158,0.23909883793065295,0.34919028069828545,0.4371055952085543,0.5134047289782835,0.573877343837433,0.6109097791455717,0.6270666410869715,0.6333150653221009,0.6304868857603514,0.5889873507323072,0.4817236414642374,0.36400306096982377,0.2960320594312193,0.27657046096866356,0.2881418531868922,0.30763071391468744,0.3201558309772905,0.32222296993795274,0.31580972029493287,0.3035197067069497,0.2878190759180132,0.26765202621055045,0.24429337871770598,0.21915885217065476,0.1944195016087228,0.16957128106253527,0.155403659605605,0.17189885752257666,0.23062498277874038,0.3280318205446423,0.45399652664841994,0.6003067730008952,0.7603486072298725,0.9141795594777157,0.965446247627055,0.8274828906783395,0.635861065649547,0.47532748617487414,0.34782064062588874,0.25811880773044327,0.2181764451110922,0.17976723119925458,0.11851248233600238,0.05587925864066391,-0.016810625722370753,-0.1107426871737826,-0.2310475105224689,-0.37621240916761284,-0.5376285721113694,-0.7093153952732858,-0.8518694807449221,-0.869396277007086,-0.7235023991822616,-0.5391446374768666,-0.40963212798113463,-0.3353317733122353,-0.2944195456289546,-0.2703780767056394,-0.25186478722762856,-0.24093122102967832,-0.2425909896383679,-0.2572364692731745,-0.28357784059758406,-0.31031788913180075,-0.31779751425366254,-0.28930325103120474,-0.20792793389971165,-0.05736789937381763,0.14723098311375324,0.3433174793171431,0.47746703880778957,0.5390201510085239,0.5315252074663523,0.38589480940170146,0.006072941090686979,-0.30635048641369467,-0.44877715083835334,-0.5309869851901546,-0.5984080041493348,-0.6692485407461369,-0.7252913553211143,-0.718405861359301,-0.6365552015985936,-0.5616063714786589,-0.5489864843217523,-0.5906837531982702,-0.6497536876798001,-0.6992909883169702,-0.7304582474987273,-0.7440002191835731,-0.7427139962078136,-0.7279017843929508,-0.7007116444322613,-0.6595145181909833,-0.5892945452832541,-0.4649450834443129,-0.24700488742654272,0.07994065641567152,0.4620140701536233,0.7538373987586131,0.8950127962742633,0.9490629674252014,0.9689640053586378,0.9762216639906023,0.9781179571053458,0.9771133458521309,0.9740591219965856,0.9697229066211457,0.9649911567114223,0.959861202509483,0.9516672737413383,0.9336023829236384,0.8967166835098606,0.8362692093173801,0.7567452349028397,0.6718839119791806,0.5837710955956408,0.5090753803965626,0.47782615246410776,0.48076610770547273,0.5046267229393382,0.5378162197020896,0.5664270973646693,0.587391712524238,0.6055627894865045,0.6216236556235858,0.6237631510300468,0.5967402324658281,0.5122784322252286,0.30151919949235123,-0.14529429699785998,-0.6269450869942362,-0.8412220622379412,-0.9043660850269142,-0.9223465044772705,-0.9295304603446233,-0.9305891703171633,-0.9268635901887591,-0.9215664092792832,-0.9175884761626789,-0.9155637507930641,-0.9161305236542855,-0.9202498442603276,-0.9258644803115863,-0.9312231074308424,-0.9343899799660342,-0.9334121226635064,-0.9285926577281116,-0.9228688505226414,-0.9172585247911967,-0.9115166951542591,-0.9063623070558672,-0.9000228980111911,-0.8825983828293027,-0.8400724230769372,-0.7409449474954195,-0.5191389920167292,-0.11267282482524293,0.30328718084149053,0.5527438749907282,0.6860833998082078,0.7666069238945837,0.8165321292930439,0.8429347901350007,0.8482044294204293,0.8326473578305793,0.7932222266115849,0.7249759861012852,0.6224250092185608,0.507297718045933,0.41745661029241293,0.3602818876835419,0.3172280956901263,0.2731619367986504,0.21985328519437033,0.1522742435268768,0.06956243251523608,-0.01124525293273091,-0.04749516074195577,0.01308957578322254,0.18722974747087998,0.40724636942519016,0.5842955659460783,0.6922546676630486,0.738070791853328,0.7383036070012065,0.7050520055602565,0.6478377057304233,0.5706535789554353,0.4649874427502639,0.31759815644203643,0.11601251188468886,-0.12534083594513504,-0.3635836415748101,-0.5526995145961796,-0.6710106989498689,-0.722144996979179,-0.6769294122099141,-0.19056959080139604,0.568565116034308,0.7475493721764342,0.7897773545996917,0.7805757521476112,0.6815356320871612,0.43653574478125345,0.18434042090963804,0.10075895133649779,0.22759932470429137,0.5376953055894682,0.7473470058910618,0.7371773816016802,0.5615270598001385,0.22002057209008694,-0.1366642290653208,-0.35300784599822566,-0.4514386239770134,-0.4780364923889936,-0.46662437472398105,-0.45265113039098726,-0.45379593366650056,-0.46385856302792794,-0.4669766259722828,-0.4466986137619141,-0.40776359885570856,-0.3609602096684114,-0.3183296376141805,-0.2880896643368292,-0.2663097372808647,-0.2206613888044,-0.09582840669849178,0.12389958113176577,0.37655182177960034,0.5628044092341545,0.653422843250547,0.6684876989015301,0.6401616962269021,0.5937727895680984,0.5463414927851113,0.5091370414490223,0.48452921986188263,0.468292539966879,0.45398092520925576,0.43178491192134527,0.38450541684429546,0.30588743701549337,0.22540608847313753,0.18259129381101985,0.18576460412503404,0.2051056939053722,0.21171466560934402,0.17767905660137046,0.07660558125062888,-0.09851805678767035,-0.3023002286275743,-0.44937368742953304,-0.4034472118536098,0.16470771279923696,0.5286685135505275,0.7461501027906571,0.8683538159469109,0.8431775752485972,0.7404856216014629,0.6067663157612792,0.4658546304900899,0.34033746857923997,0.244250698825585,0.1839418743670592,0.15297222555427648,0.1395294571807485,0.13314005492310274,0.12369663120484198,0.0933118059566195,0.0009615019643896984,-0.22766119001678592,-0.41720285240990135,-0.46126161454917397,-0.4674367857070197,-0.46015063639380005,-0.4483693679748083,-0.45141211175580226,-0.4971218395807113,-0.6106635585638944,-0.7871895313226493,-0.923821961193744,-0.9429721787320541,-0.9154231537782757,-0.902451925717863,-0.9089623325026566,-0.9213310734773703,-0.9285310694102941,-0.9273400397180079,-0.9183458401062354,-0.9028646242569967,-0.8816901546739667,-0.8538865645181296,-0.8182942295837399,-0.7706651175092616,-0.6886664379449832,-0.48990265731365873,-0.010664259565485138,0.5176903028567212,0.7448073575516697,0.8180691444896719,0.8382071405665893,0.8381766304638171,0.8315590752336756,0.8298139182078351,0.84164311381958,0.8630807313437016,0.8767175968037565,0.8708546157800099,0.8464779209882767,0.8106359236340331,0.7685976082692966,0.7290856531940134,0.7024110916017017,0.700021818227474,0.7279547370246958,0.7802573502407795,0.8259877598002906,0.8166667704276129,0.7354931035144242,0.6035390995695149,0.43977639293703424,0.2544553710218058,0.07053282190228578,-0.06409326390652229,-0.1230162038835721,-0.12095397605807107,-0.08554446805955282,-0.036235007504848996,0.04111665664511677,0.1735316853023372,0.3577670666495022,0.5299505172857513,0.6429300498996454,0.7014999294551726,0.7260412500857629,0.7327251441539362,0.7295491949147214,0.7158175798803431,0.680160780387927,0.6222487753027403,0.5500938707525038,0.4700791613900459,0.36631162079458857,0.24663643482804962,0.1320226127668046,0.043487918954866284,-0.009918941585181158,-0.05216225208293918,-0.11979484253558895,-0.22521007079806582,-0.3611679183216142,-0.4978757199274562,-0.6029834289468343,-0.6692179259848912,-0.7049861237204303,-0.7150895476761986,-0.7087374523290134,-0.6980102773225839,-0.6920412360397242,-0.6866660546510482,-0.6506039861919531,-0.5708979057986755,-0.4814810378935258,-0.4033619796248356,-0.33737092373014516,-0.27263515238467395,-0.20282477110774344,-0.1268872863450421,-0.058544553613887385,-0.035411272306611105,-0.11150233540217641,-0.3003994879491373,-0.48820323781072383,-0.5823831541328033,-0.6049344397602906,-0.568885035686311,-0.4902027451948761,-0.4048700161748929,-0.35546269462587476,-0.3506680615491189,-0.37916457859675073,-0.41793302507414515,-0.4458307055314993,-0.45308390187995573,-0.4418268203405269,-0.4336765021166977,-0.44613602644721073,-0.48437634269628393,-0.5342292749809049,-0.577690705301593,-0.5965767313363012,-0.5864204310272334,-0.5595759279331429,-0.5251434638039502,-0.4907738791127403,-0.46133438954193057,-0.4315608807545482,-0.3359380085355084,-0.09918984896360943,0.14268467761466777,0.30578280963671933,0.4162873693908951,0.5024998494248055,0.5807867606122648,0.6564362813703927,0.7200003442902979,0.767616698105065,0.7983487969920676,0.8175289067374901,0.8353907461977578,0.8536793709652504,0.8641866493197554,0.8458722427179216,0.7742683191498211,0.6780764835427427,0.6369359398580088,0.7132965473936332,0.8720336351082143,0.9608436854067688,0.9656673032072497,0.9521765410345323,0.9389044338366362,0.9260413343903653,0.9138709015143878,0.9039450127765881,0.8961502693104771,0.8870980590870058,0.8710385164353182,0.8348445676915809,0.73264915736254,0.3092130773751919,-0.3810027817226432,-0.4489352040154468,-0.28041877977698804,-0.12905824185221762,-0.0798895111583327,-0.10189239218183266,-0.14111382004000536,-0.15262787568035796,-0.12562426076779212,-0.10397744995479281,-0.13021459931770227,-0.21560246574429567,-0.3366621513695555,-0.4600079146243049,-0.5522308858448881,-0.6002897949288991,-0.6165399643907902,-0.6125813098759249,-0.5987729827609751,-0.5854063907297207,-0.5795941014249896,-0.5774211091836791,-0.5754145558347504,-0.5715947247182821,-0.5551866152535917,-0.5253022245904929,-0.4776299842731662,-0.44134236767613644,-0.4594732459290171,-0.5447535187426344,-0.647869898932655,-0.7169852140301762,-0.727612746728235,-0.6741163300500594,-0.5564858064849747,-0.37901065688625085,-0.20580164368480444,-0.0763864646119362,0.01466364496265147,0.07795091191794405,0.0913166490747589,0.02731771934987639,-0.13765511436651764,-0.40667334660323784,-0.656685480203999,-0.7492365511972803,-0.7466652220181805,-0.7062528153303185,-0.6401412933640956,-0.5573667732105433,-0.46728489242538673,-0.3919635266447757,-0.35117192887522386,-0.34684596458516914,-0.38076027106818505,-0.4273893972274542,-0.4563656526662601,-0.43251213744243905,-0.2906266207163554,0.10033844329579754,0.5024224624687283,0.6627389480494531,0.7581700180051719,0.8147573327138281,0.8334362351567404,0.834479011358779,0.8396805239618876,0.8531292826768997,0.8642463945473312,0.8571409912917086,0.825114101131154,0.7709656187261152,0.6963596777999311,0.5990673896579,0.47885529950630956,0.3440369931317832,0.21267583040171967,0.101083546758058,0.006456249129974706,-0.08751552187255754,-0.1923259687953767,-0.2919952478996388,-0.3459020634514186,-0.3016798865493144,-0.12031218658067878,0.1627426703830012,0.42280659952596245,0.5882972715871173,0.6743182095546213,0.710445615421144,0.6968467013151401,0.5886402692330848,0.3035529030242337,-0.028158869156444426,-0.22050271318308584,-0.313982427911167,-0.3739084446833486,-0.42856725458719513,-0.5016878217297519,-0.6338267317770065,-0.8316689466133649,-0.9584706023668417,-0.9665661473944497,-0.9441364336663955,-0.9253253458277017,-0.9134775849392291,-0.9057746233663698,-0.8976614386202961,-0.8865533395011925,-0.8709557355263156,-0.85020241457046,-0.8209083583510208,-0.7704390961503678,-0.6571122403836933,-0.33733315496138383,0.3511297597180672,0.7909720923738016,0.9163568053471334,0.9545193433259832,0.9688357590290604,0.9738972937947253,0.972375725476455,0.9592040630523858,0.9172991744443275,0.8191498452521494,0.6820369951493442,0.604524242002488,0.627636246397372,0.676728806189019,0.7182527497738391,0.7473347768019324,0.7453373053211603,0.6989694576734895,0.6420043968008406,0.6092751472191688,0.5988363209810671,0.5757314726456557,0.43238172998916985,0.05583393907213934,-0.2833024751679635,-0.49022992969073115,-0.6456738818268852,-0.4940304764913992,-0.0975577465555286,0.09218747756628598,0.17853707820229806,0.18705755314427167,0.12559420924915196,-0.004504268783116499,-0.1837888092213468,-0.3868030295037921,-0.5634416496269813,-0.6525196477036431,-0.6269064353143802,-0.5427651933577141,-0.4533546840626847,-0.37513879720512006,-0.3059017677474812,-0.2482836764532909,-0.20811587775699025,-0.1899630135863286,-0.19718123558908088,-0.22735808946849922,-0.27429594948040403,-0.31946474670223324,-0.34672496122689234,-0.35376063051617485,-0.3458423867986244,-0.3392745382672222,-0.3376150559453726,-0.332917228385871,-0.3445231047862252,-0.3954331570630173,-0.47987723008253114,-0.579047449503885,-0.6625717609236244,-0.7119151695995425,-0.7470412603907496,-0.7942080309638374,-0.8442705291503982,-0.8714527737187726,-0.8683417714440441,-0.8412719185892571,-0.8033370900001633,-0.7681205043834579,-0.7515048569905837,-0.7587686852461609,-0.7724461829572189,-0.782066595648378,-0.7916519450203482,-0.8061656216867569,-0.8227595630233276,-0.8245877951669884,-0.7692730832435687,-0.566233029917137,-0.1459730488928827,0.2531221177815833,0.4769734163397613,0.5923626904406367,0.6584306230948973,0.6943463297466693,0.704756237953737,0.6926414601532448,0.6619071304867686,0.6149361939209554,0.5626818242555175,0.5203246668911178,0.5028269597522603,0.5191193680343387,0.5738674163904659,0.6570807637008979,0.7409686923939078,0.7948197480513163,0.812038973849083,0.8038212531243561,0.78110247632407,0.7524375324369743,0.7252677984269064,0.7010281083675315,0.6757015270227927,0.6348360245388772,0.555984948981828,0.41462059318139405,0.23145421226011037,0.06736343283894458,-0.03905543872536886,-0.09150965320119557,-0.09295502475764136,-0.0261741568415618,0.11005516742070776,0.23502537721755667,0.30648656643493233,0.3407488180455529,0.3510414067218867,0.3342912895136976,0.28677663267694636,0.20698741935497755,0.07938995248034085,-0.1026215031029312,-0.27054393190372344,-0.37527899012959554,-0.43224421816440767,-0.4584635963082661,-0.47997707395377776,-0.5270932050304011,-0.611323582905394,-0.7136740398474647,-0.8289758759286219,-0.863191905801088,-0.8457701237027218,-0.8253898483628687,-0.8159390763576363,-0.8213476991769892,-0.8377534116895465,-0.852285189201431,-0.8301787755918799,-0.7503942019436898,-0.6703438274367092,-0.6665754195667634,-0.7440974110179316,-0.8474462119704529,-0.9216549903056045,-0.946833329887921,-0.9204084618502124,-0.86011980407602,-0.7924207596915381,-0.733928731322913,-0.6875106781085062,-0.649472372037463,-0.6132287356122782,-0.5635416542508386,-0.47142414986597325,-0.3134962761401467,-0.11978136488821772,0.04111682704115465,0.10898421290710848,0.043967597594708016,-0.08774276627859862,-0.16103216345846558,-0.17417067796048566,-0.15076195825496314,-0.10489558322407218,-0.03729352642434662,0.05767290609917816,0.1901938185404092,0.33459279012182686,0.43321214963556764,0.46220247143448573,0.44054392184452473,0.39347915225633767,0.33801482475511196,0.2841033809883149,0.23502655501856518,0.2070034575471975,0.24486668525364258,0.39625365947463886,0.6035890307389999,0.7272280969941629,0.7755675264708654,0.7883011887171376,0.7784934454313542,0.7479002733439687,0.6989044580049404,0.6285513158392544,0.541110033609552,0.4568898817520537,0.3981997964679074,0.36713445648901843,0.3365941892819166,0.27923371055608465,0.21124306101610657,0.16999219102088917,0.15784985265381,0.14651398412031294,0.1066099223954667,0.007798849548120015,-0.12370404119817904,-0.23209307566069654,-0.3042143492849466,-0.34432587871675485,-0.36034172007678983,-0.35907198165690246,-0.3385214524442957,-0.2914582994153717,-0.20416201404433965,-0.06411078770868436,0.12184031149918487,0.2999885319878899,0.4014341705665014,0.4104099978082926,0.3348403766495805,0.1725117255674078,-0.11586256556794038,-0.5871807691893955,-0.3921372056508712,-0.14101633965209576,-0.05326434514814896,-0.042484353791306786,-0.06480495812625281,-0.09673053831949555,-0.10967189105594526,-0.0408042961239551,0.1643378579735804,0.3710570067752154,0.4963392577385282,0.5684522662782123,0.6076280535012749,0.6227089077716217,0.615501588475098,0.5839039854941828,0.5252046326785472,0.4252653923390124,0.2894799698640667,0.1708458071671599,0.1300985575409434,0.18055092042499504,0.2596502151478911,0.301559886520503,0.26248636077707377,0.13022156343191432,-0.09350221950381601,-0.33333199108826356,-0.503359701875115,-0.5825767274625914,-0.5882747136144605,-0.547071618040602,-0.48846399422834075,-0.4511649691968871,-0.45714365756958797,-0.4862861436292331,-0.4960110646543227,-0.47083428034789887,-0.41258986407826226,-0.3306528945989355,-0.23311648283884678,-0.1597840233208158,-0.15217307111587935,-0.1818922492566231,-0.20673374918565324,-0.2124683694659539,-0.183649102504936,-0.11486186762294295,-0.023801106918634216,0.07928171454406499,0.2134414172108224,0.38627264243198084,0.5642602109895187,0.7025232081466583,0.7868868213834219,0.8333181514697916,0.8546284449062158,0.859973731072044,0.8557732275898933,0.847547826946967,0.8361967241681553,0.816179106512826,0.7816675984881907,0.7132397105313572,0.5679851416883391,0.31353000787132984,0.03307674930550268,-0.1634115069829044,-0.26729727982536017,-0.3014536781968844,-0.2775424816893803,-0.21087063607047743,-0.11836901023585611,-0.025978900735409444,0.034866785495344416,0.03978280336387946,-0.02383048193760493,-0.14789849128737895,-0.31048204353499814,-0.47638994236986454,-0.6203463214284644,-0.7361362203961723,-0.825122994371603,-0.8819479624039217,-0.9064628064583253,-0.9084865089179152,-0.8980009711286084,-0.8795912610012717,-0.8487572355342524,-0.7863216097020437,-0.6200763285620838,-0.07163530288436552,0.6730418738735259,0.8928760028237857,0.9414952252920601,0.9507587440712193,0.9431491053756936,0.9152724597551051,0.8324685430620198,0.5233311667378417,-0.28572037000264316,-0.7553882492138088,-0.8781344457481529,-0.9134137669082079,-0.9203957710621704,-0.9099524714126035,-0.8789290354203358,-0.7903271181652173,-0.5942123825400418,-0.3636757453196072,-0.2216077238166942,-0.1917294392959687,-0.25405143386651563,-0.38542093933619365,-0.5450534878850748,-0.6635037220809339,-0.6431079615408929,-0.2692541012807803,0.23344842876806368,0.48552327066074,0.5974488316734675,0.655490608070523,0.6891278724740557,0.7129870208787885,0.7337221362904431,0.758467503954328,0.7905357119554653,0.8350528785905491,0.8887095174947353,0.9119527091779074,0.8222796854717591,0.6482509836181972,0.5077588116243668,0.4191200648030494,0.3420815508457329,0.23946806776293517,0.1163462452072867,0.02162125565070079,0.010216002132294946,0.07886390184982157,0.16860842804585063,0.21949976322315898,0.2028526623817503,0.13585941996175077,0.04919536812492084,-0.0328093961771623,-0.09962794756609358,-0.1568903846193995,-0.20386302906943332,-0.23714159674623975,-0.2608821053099939,-0.2924884794963569,-0.3395853551574044,-0.40190111422493446,-0.47369122245784956,-0.5507036362312144,-0.6287894784311325,-0.6879511963262731,-0.6698493264779429,-0.51284869673455,-0.3012263832096233,-0.14499133731437758,-0.058481335761474754,-0.025762887456761484,-0.03238410897841014,-0.059724239345524864,-0.0877834993430697,-0.08458635005810844,0.0065332317503820824,0.2655069136836385,0.5854989165444212,0.7550655467787265,0.8034727527874115,0.7979955517680325,0.7775429106561439,0.7580155569223103,0.7431139915943343,0.7308420499263176,0.718077776561417,0.7023023863355539,0.6781469390854377,0.6302759601828634,0.5210686819079073,0.24348651739467145,-0.3314107818331473,-0.7589425275406441,-0.8757953285775169,-0.8904016837442009,-0.8707956474510284,-0.8419317283330714,-0.8147924232768882,-0.7885094408882166,-0.7480289767672522,-0.6810477974677291,-0.5730809015382026,-0.4203382168125924,-0.23273543308339803,-0.033770110189385444,0.1635952552903358,0.3240321047269442,0.3171750402003876,0.24031595840507403,0.19059617692247632,0.16060534273058316,0.14009539028013823,0.11730390124945751,0.08873165069866251,0.053284999033659755,0.016357362100469657,-0.008280798103302633,-0.017458494672544816,-0.014540196911327737,0.003802145237680184,0.04448995931943606,0.11581094421989598,0.2308068227450755,0.3789724204036347,0.5151377410208678,0.5956328072079736,0.5989089725721384,0.4980764069114329,0.2709769203116194,-0.06581407469975534,-0.36769919223812086,-0.5390015050189604,-0.6093766892173561,-0.6241960043429526,-0.6163112846700486,-0.5959790347579939,-0.5757257039341563,-0.5706004856604764,-0.593418545602098,-0.6333848468358421,-0.6713819827340398,-0.6963885602398743,-0.7086645102340712,-0.7040284020777662,-0.6594525732521224,-0.5068451390340415,-0.2892662676128215,-0.14739994772293344,-0.09807613089507367,-0.10428099029614822,-0.13846769236166423,-0.19109338553012103,-0.26362277990014016,-0.35110063956783455,-0.43696963078908335,-0.49995383738925125,-0.536373199594508,-0.5605920210036538,-0.5767102163050585,-0.5675483420302037,-0.5193237697302987,-0.4256258280500683,-0.3014027389608727,-0.18978633344961288,-0.1192464415144594,-0.09659726787640643,-0.12037851517067465,-0.1693430932143529,-0.22629671932871678,-0.26510279638153683,-0.25796970031810834
