-0.5144828524293817,-0.7155241374473895,-0.8500073060021818,-0.8966715872456861,-0.9051988968607294,-0.8993280643138857,-0.8796331870501749,-0.8189185997784535,-0.5176687253467898,0.5580612463797355,0.890522716848487,0.9404969571526715,0.9484541552665829,0.935071235343666,0.8808390231576309,0.6988512050013759,0.24162299695312606,-0.22355873659389575,-0.4376264807031023,-0.512673292027309,-0.5353718738203948,-0.5529628251128321,-0.601601511253943,-0.6917845907844241,-0.7561887391412817,-0.7139588682511224,-0.6201688115305019,-0.5543284854868665,-0.5451825604843356,-0.5953577709261365,-0.6691710099240054,-0.6687988470831383,-0.596937031723672,-0.5438626893434967,-0.5317088014476316,-0.5249172344342832,-0.512856986157087,-0.5396368266523,-0.606320157631813,-0.6887517459452258,-0.7652015541616094,-0.8244638210508192,-0.8659299112134877,-0.8932718249379418,-0.910252227416966,-0.9208288519231106,-0.9292703292235915,-0.9392227919076113,-0.9512683861331827,-0.9628595295675583,-0.9631835276455276,-0.6041501376791388,0.7429838718198735,0.8820162969647887,0.916165503267516,0.9304685608462199,0.9372711729729377,0.9403981550271931,0.9422067400430763,0.9453292844382458,0.9519350700044218,0.9615812690218681,0.9716482308438705,0.9799553504493457,0.9850075273450707,0.9842818739991404,0.971919371608728,0.9133258663565033,-0.03567153772038947,-0.8355009667652975,-0.8499736837753258,-0.8545481372428961,-0.8898795264589416,-0.9343252211403194,-0.95823354848144,-0.957563195528272,-0.9438922783443159,-0.9270685283726363,-0.9114854082578864,-0.8985502685574147,-0.8854394752179102,-0.8624063096002428,-0.8176755420457495,-0.7482089474443855,-0.6618716331039721,-0.5561063690612809,-0.39892246052394775,-0.17540961872883132,0.03177763595916755,0.14187448262751268,0.15382762747167866,0.10425600937936855,0.030815245711596544,-0.04334804610926822,-0.11606837863878403,-0.21330476187386227,-0.39728516169633393,-0.7030770413085216,-0.8926562391598104,-0.8986982923135131,-0.8733387589266477,-0.8546036910648707,-0.8421784629057668,-0.8322429426607323,-0.8246093932936682,-0.819420842200798,-0.815788571513598,-0.8092010878250835,-0.788458296612456,-0.7364478975591198,-0.6367594250641401,-0.4946484360618202,-0.3384733807574816,-0.1838146374513635,-0.03480849127640058,0.1025005043858999,0.2149611872542288,0.30362201351038975,0.3694225383709969,0.4155632413715076,0.4445488318097833,0.4627257071843769,0.48853863087796373,0.5543160456379852,0.6705291552002586,0.7340359428249635,0.6613627582551697,0.5153843597647975,0.28945367531691435,-0.056662345297409926,-0.36903778228192763,-0.4888089705408865,-0.3814897826321863,0.15120243325000376,0.626365804418672,0.7186403892005563,0.7120449647530204,0.6862433544839722,0.6735563556844341,0.704149964889179,0.7946958978243163,0.8852616741552748,0.9197431543900959,0.9173803257349148,0.8928834756349464,0.8384725820130547,0.7140504018292049,0.37721691413628683,-0.3625523614417504,-0.8362613475566042,-0.9547435579742894,-0.9834462847142209,-0.9893269481938317,-0.9856143628214431,-0.9717945134610377,-0.9422866585975626,-0.8895320343089945,-0.7435178177614253,0.1973570684193026,0.8856238592976164,0.9532212352248741,0.9707302089712755,0.9812596515157411,0.9896398260224148,0.9930916792551199,0.98814320179425,0.9756611778180744,0.9628371740294802,0.9558776034067712,0.953427061085385,0.9507743987232089,0.944748394546898,0.9337429213566916,0.9204996605523872,0.915708826187623,0.9059350070219676,0.5911587827097377,0.04332940225618836,-0.21863735985056743,-0.36699228949367896,-0.505273737218117,-0.6903685217112058,-0.9173744817899234,-0.983673118057198,-0.9142581380120001,-0.9058283521537623,-0.9505009283410041,-0.9862823932419009,-0.9939535845015712,-0.9918321913164267,-0.9926085288516392,-0.996028394568811,-0.9967508088491072,-0.9902623349457821,-0.9768249872689353,-0.9642462220618307,-0.9648182446226805,-0.9785836848435091,-0.9893061746379226,-0.9845035902373522,-0.9670706524528944,-0.9369730627791951,-0.860491517667169,-0.4394779110760086,0.6996051438225638,0.9388725081522076,0.9811688948630968,0.9934854585680128,0.9970952692746982,0.9968535253901509,0.9943420528792156,0.9898322403873994,0.9810589223168449,0.9553232651334397,0.8470050136699923,0.4673336789449583,-0.02579994942746979,-0.3043526868158645,-0.4644352272401177,-0.6159411860473851,-0.7849418357305236,-0.639672128794705,-0.42926147336213766,-0.34861382622479964,-0.3400436425401023,-0.3779334310099538,-0.4552922228835399,-0.5481987289702347,-0.5760156611818442,-0.47986124865428886,-0.30904908854796836,-0.07241283834223577,0.26551801716970813,0.5830555078628936,0.6159904975752685,0.33611638600956073,-0.08432628887964606,-0.3884533552389925,-0.5440350523750338,-0.6141891946329524,-0.6394120777631169,-0.6459940367658409,-0.6668322495559922,-0.7235729638558837,-0.7934312776445505,-0.849641414786588,-0.8875435898310944,-0.9124962116340447,-0.9278658168925404,-0.9339341626894655,-0.9322916410522372,-0.9268989742522937,-0.9244959311901169,-0.929440532377907,-0.9345589729635592,-0.9247342925258444,-0.8915136651474617,-0.8364391088558858,-0.7501310745692441,-0.5538756710181694,0.05208380060494527,0.7112808705822173,0.8970232063953835,0.9503988708239101,0.9709669731017588,0.9816515169170413,0.9891556203230466,0.9942060188761668,0.9964723190338255,0.9958180695792375,0.9923003766807778,0.9864658283619054,0.976553601429692,0.9408960281400338,0.7407565038131746,0.19592787279453452,-0.1291090163320046,-0.171458529953764,-0.13999721989144048,-0.11941975400876172,-0.13943273955265115,-0.21665358339524132,-0.359711000588794,-0.5528651786706912,-0.7346327313276957,-0.8447600531721077,-0.8760382260980121,-0.8561438998608868,-0.815048441056403,-0.777697448365502,-0.7577648767217724,-0.7513246621878261,-0.748003002304947,-0.7383738246300199,-0.706280408711416,-0.6218287413041726,-0.4686769614722596,-0.2902962226366335,-0.15728478606534188,-0.0978364274156373,-0.13634014479630804,-0.3460554696305954,-0.293664440842759,-0.23783313661444105,-0.21440941020557494,-0.2067332032768266,-0.21667051535500004,-0.2512510981681401,-0.29816052200022264,-0.30352853568846977,-0.2751429378333918,-0.2638366861264687,-0.2725448666344697,-0.296549497388191,-0.33392353465217495,-0.38815620281165725,-0.46430888675297555,-0.5677088550200098,-0.6882281315045944,-0.7127162237347507,-0.2982486788187193,0.2496875224709007,0.5296484985331098,0.6699433584197619,0.7453010126329848,0.7819792846189663,0.7870809233187702,0.7528127218418514,0.6429901681859761,0.38359032519116293,-0.011661703441930503,-0.31835274134874336,-0.47455402397349217,-0.5260423074543941,-0.43661776870979335,-0.17410535778022415,0.0902986537391815,0.2926069634967051,0.46224550416934995,0.6072616942543051,0.6947482499639263,0.7111960872712666,0.6932668967770946,0.6735433653938394,0.660542760001644,0.6404794419928146,0.5693350605489595,0.34809394441474406,-0.07543098658091808,-0.4576000786485871,-0.6348472715624931,-0.6600849269334216,-0.5667839212274541,-0.33221546502807137,0.04974995786384298,0.43469478600660394,0.6978888860289408,0.8483418862172166,0.8975475373625407,0.8310684369563137,0.7091157000572242,0.6470927935008763,0.6913304738963574,0.761671271733162,0.7775981883229265,0.7790197979685256,0.7811891048020589,0.7596743055105352,0.6961005388911009,0.5992824053541753,0.47537210424573656,0.2850999850575653,-0.044193847454510354,-0.3933957749665141,-0.5943609677375874,-0.7046718379452889,-0.786662447233229,-0.8603912492477099,-0.9229273744526818,-0.9631496612158948,-0.9775607015599039,-0.9763812998655307,-0.971001195528677,-0.9642656618982999,-0.9515080380245471,-0.9208829849695264,-0.8601292322965229,-0.7738188631346259,-0.6828189621799846,-0.5990081835457826,-0.5049679220828525,-0.3479599581594772,0.005935642948347332,0.5118085889944656,0.5028168220620621,0.3670217673588084,0.28526592609684165,0.2714415689306894,0.3109464836086525,0.38121231286655805,0.45889405711708675,0.5238553759512328,0.568259404641204,0.591994104251886,0.5988477106988798,0.5854644386499955,0.541458644683096,0.43552926081549426,0.21627428832520398,-0.1335662256326563,-0.4689325662541014,-0.6306743391243139,-0.6339238393763889,-0.5332132848300868,-0.34409317812131074,-0.07934856150627137,0.17671197548229903,0.37018501304783513,0.5288956685457306,0.6850239858871798,0.8219199584391104,0.910647824653754,0.9534149293192314,0.9708097127181678,0.9754988348468269,0.9693935147660917,0.945089853027944,0.8751020091568343,0.6592076859483725,0.02921483003553569,-0.5993453749924247,-0.8059872511417399,-0.8693603553430442,-0.8891411941798167,-0.890937262208869,-0.8868846715478467,-0.8632645594261014,-0.7433174281777111,-0.5659205983361612,-0.4808217313910507,-0.49326849990646493,-0.5677357859675732,-0.6683765398100174,-0.7608095309651292,-0.8153669665659942,-0.8177701556573121,-0.7486620195556117,-0.45897467674527287,0.3624103724388562,0.709880808027294,0.7807089141690351,0.796672472924067,0.755934044473177,0.3543975084301061,-0.49285548035991367,-0.6458238515411874,-0.6470133036223216,-0.6142595811461562,-0.5691014798169942,-0.5236112524703804,-0.4982042332174248,-0.5283310465242632,-0.6462210060338602,-0.8135578373207842,-0.9185683262958557,-0.9384097596026874,-0.9112303730519257,-0.8644624447005512,-0.813936705888033,-0.7674266888416389,-0.7250403073273843,-0.6795766733375135,-0.6121705394694041,-0.47335199511933007,-0.1363871130427864,0.4464004813204677,0.8122680001770123,0.9281524533225092,0.965446392286002,0.9792594667418837,0.9841941557167345,0.9853896362181644,0.9830423624151768,0.968878148390231,0.9207977614234083,0.8115220654032914,0.6362891262775846,0.4230984473567583,0.22613977990885137,0.10411953540368726,0.06402495831440966,0.07206316024279569,0.09632888231225115,0.11706602640518389,0.1252181154571281,0.0801181127176427,-0.03657532351637401,-0.1086792718946978,-0.15428342136267698,-0.18293218181737547,-0.18285455134415876,-0.10950332112798163,0.16385008470443355,0.6598738368076511,0.9056788799976905,0.9598299035784311,0.9717583851746332,0.9714769360052525,0.9574471273116779,0.8597361790721236,-0.16828428677732277,-0.8262764649809075,-0.9029490870180501,-0.91131632864851,-0.9027733790408164,-0.9007791975611035,-0.9140518680730175,-0.9242396326696848,-0.923861090389034,-0.9262906432920122,-0.9370662474924648,-0.9495563591359282,-0.9543992045033138,-0.9489249105611265,-0.9412833660006997,-0.9423057228045268,-0.9541554552935304,-0.9677606853954772,-0.976041081225517,-0.9762441806823682,-0.9670064484534494,-0.9483528758142211,-0.9214553937179355,-0.8867470034789534,-0.8357087439311359,-0.6905782056800289,-0.0035222210194931105,0.6502191945479594,0.7998692175797212,0.8436620115299133,0.8392638302552965,0.7449054131530022,0.41268078971832844,-0.06720616971963218,-0.3536574434880454,-0.48271973905691573,-0.5400932146139832,-0.5693164784993413,-0.5914778592569266,-0.6131785941446882,-0.6217500785593533,-0.5884778250742232,-0.5044227959535243,-0.39870605115399527,-0.3147032631295017,-0.30444475376674207,-0.3912839709165692,-0.5851938753540439,-0.8403544250922853,-0.8953607858982393,-0.7909922897521838,-0.6994406631365332,-0.6263901486942013,-0.5446736391770503,-0.41741093834950627,-0.19229292881799773,0.08564693151210066,0.3137570143166543,0.4935030415313,0.579235679736655,0.5514518113985722,0.5324842167636039,0.5442554425788405,0.568600663523105,0.5826710281988673,0.5601694349947357,0.5065105642837259,0.4954088356475354,0.5661926013543188,0.6774299722753262,0.7608156034979678,0.8153299185479549,0.8608771984847184,0.8618694401279267,0.8088401201962776,0.7908696020698738,0.8418845126275479,0.9190250804316662,0.9626527141368348,0.9735158723314362,0.972875013799085,0.9700824899998923,0.9658319563740423,0.9582762906955478,0.9475835709658137,0.936506735804158,0.9257768098772514,0.9087290992908911,0.8699458125426504,0.7752782348483354,0.5994210448707017,0.368402497142662,0.13057509944472465,-0.09467295487552942,-0.3129482024393328,-0.5214396579561806,-0.6990932186058743,-0.8210639750429721,-0.8616472009811674,-0.8443086370596474,-0.8198389834232778,-0.8171943427115173,-0.8376395245132284,-0.8701501283265712,-0.9025802810345783,-0.9253816259960719,-0.9249067083819501,-0.8574221271077412,-0.439587658137586,0.5973301602679273,0.902432991651209,0.9645020796364308,0.9787935483252481,0.9681648849049216,0.919434171120109,0.7836252754883998,0.4387175541849143,-0.18778023047934705,-0.6473448497053117,-0.8040837820300417,-0.8327707602650903,-0.8084970143233852,-0.7649209390887508,-0.732079554336316,-0.726369535573744,-0.7609559345064723,-0.8426568369374218,-0.9396169235719233,-0.9799237117017886,-0.9526007143680933,-0.8902272041451889,-0.7938628095863164,-0.6449096174109747,-0.47515887855347544,-0.364011053629236,-0.3348445088044259,-0.36428899284582067,-0.4336694599275849,-0.5264535648070162,-0.6285610198296979,-0.724812846438292,-0.786060910190542,-0.771609776290767,-0.6357401600904743,-0.2653015823335247,0.34016086535949724,0.7341110093905644,0.8811531576336414,0.9370128905468984,0.9615487684684372,0.973742565378517,0.9769339375130923,0.9793267267710194,0.9829210418354485,0.9849283515601495,0.9808910146284862,0.9670804683260856,0.8972221866185279,0.12963208083161415,-0.706681819501486,-0.8230876887377255,-0.8611962948993183,-0.8920338780985951,-0.9213716955364832,-0.9392895210293419,-0.9393482611774279,-0.9284612107417636,-0.91546494191335,-0.9023349961234208,-0.8864505633991159,-0.8654144966006971,-0.8402837771123408,-0.8182635266357989,-0.8081441021801428,-0.8132081581926698,-0.8170347506982176,-0.6895483118046791,-0.17639357890784269,0.2486403098096098,0.46493496179496746,0.6168983375396261,0.6719632500731733,0.269155445847562,-0.17090369919800216,-0.4065155149070794,-0.5461966910952917,-0.6149871737547326,-0.6217706614927252,-0.5847132823553218,-0.5359780296483568,-0.5095086523511929,-0.5199928700584611,-0.5668948438879716,-0.6283244844952464,-0.6588263848218215,-0.6594780033266032,-0.6857742106743828,-0.7300997421415983,-0.7198054650167158,-0.6544093024654258,-0.592790756937416,-0.5660390231421089,-0.5833556076514687,-0.6353173869573002,-0.679005310438966,-0.6928096504526592,-0.6823852724520529,-0.6334362055730752,-0.5230663176391708,-0.36348161989680966,-0.18859116529462996,-0.038959741380201855,0.0575625903752649,0.10500685980022849,0.12484517116712296,0.14606584939433817,0.21489812305872336,0.36873287261854043,0.563161149068978,0.7107328554472155,0.7931458872828028,0.8343083510980625,0.8555405838191135,0.87007470461877,0.8833790788767402,0.8956569363497076,0.90655762164927,0.9169298864741126,0.9253456607992526,0.9175095168811239,0.841818973388344,0.6303764915725725,0.38538402894436763,0.2427189790348009,0.2036730978957144,0.21189372388393374,0.20531733532883156,0.17066190200544415,0.11821641700002919,0.056014826854209845,-0.005681938922083893,-0.05730650619475048,-0.09386601953245254,-0.11545933157419112,-0.12902973200481246,-0.14126130609717436,-0.1406010193758271,-0.10710358086370947,-0.0893675854407931,-0.09160100419565331,-0.10779366699565711,-0.1404558139755608,-0.18527685107164218,-0.1573076793037605,-0.07117759389393262,-0.02670053797160731,-0.013317584468978785,-0.01957386802403469,-0.04299162744519431,-0.08418977961409152,-0.1409403649433712,-0.20069524669961814,-0.24468039633406377,-0.25822231931441963,-0.23454614637079188,-0.17098852976461848,-0.06797180752527669,0.08460449290716558,0.34458038218003023,0.7622225075917816,0.9466269565193265,0.9447932119035263,0.9384610022414082,0.9331922376704467,0.9198470590314648,0.8899701905634732,0.8339267216580392,0.7482020420625781,0.6481498022606671,0.5563062068498883,0.48138420442621865,0.41167757186046566,0.334725211226994,0.24625422654617798,0.15336109885544097,0.07022058911722041,0.016393851254574186,0.004735615386116459,0.037462429211285925,0.11158247588317133,0.21079937556718395,0.30972644182054154,0.3837637517345341,0.4070566755648894,0.33837258817256016,0.15375242833153413,-0.06826536131362551,-0.2543257899513074,-0.39840455762576177,-0.5009825555194438,-0.5517537018255961,-0.5338502793812927,-0.43438908926223724,-0.2623597145710305,-0.0771143048245921,0.05048329899430746,0.07370640597002229,-0.062415289037779445,-0.32348754785969414,-0.4652554012764142,-0.526243150190216,-0.5698014393496749,-0.6005046678674524,-0.6056221497651749,-0.576810960386477,-0.5180308363605556,-0.44939661318486784,-0.3952350013395345,-0.37210601140593375,-0.37194205184793827,-0.36454787105050906,-0.3058639072352943,-0.103396485380712,0.3727251731905382,0.7878809489077508,0.9079620678461349,0.9143312191325378,0.8097000849249496,0.3493135305945359,-0.32532519788957,-0.6100464214237787,-0.6883591678268424,-0.6754767997328412,-0.5745905220767562,-0.36356493772804394,-0.17514810416487278,-0.21809813168382702,-0.4400409122004945,-0.6659372268583494,-0.817926102515827,-0.8996437764479498,-0.9251991100292826,-0.9066713557593155,-0.8665379519984561,-0.8247557373859709,-0.7869367937398533,-0.7475693365441914,-0.6972904780766256,-0.626574053356786,-0.5326902669235941,-0.4297555545534018,-0.34432696608793406,-0.294705662085179,-0.2706030876001811,-0.2057348240675717,0.006933923238400867,0.3681505443575727,0.6448633719522513,0.7727765164722845,0.8204091344247435,0.8318392500345712,0.8235856362516454,0.7958678857947086,0.7241035612562366,0.49233333984260186,-0.005587137205215211,-0.2589410128617597,-0.2709122180157411,-0.17886097854081087,-0.020413048153909197,0.16558984416154549,0.31682569934046917,0.4096451059657786,0.452849797514102,0.4565033800059565,0.4159467371372427,0.319507902456648,0.16945780921911877,0.009950287371114324,-0.07434659811375746,0.03209284884247666,0.4102277639414789,0.51579894481174,0.47686965136707954,0.40695170378823636,0.31529692555120076,0.18841054346362396,-0.014551652600257101,-0.3268549434512558,-0.6314761570891098,-0.7293894361022311,-0.606547916818274,-0.14031915557173033,0.5310877794365362,0.7982127250355151,0.8673945352702243,0.8839990899725179,0.8791772116913072,0.8572104186622901,0.8105179413957032,0.7073290635187094,0.43245283264866885,-0.1795415149804149,-0.6650032218467693,-0.8376836955285722,-0.8943403059389848,-0.9074767586378334,-0.8966344921072977,-0.8569456749796496,-0.7019141090321138,0.4127063093592012,0.9372794205284929,0.9622946181662401,0.961413666597011,0.9572350067155535,0.9391119557733807,0.8249922714726317,0.4112715632391926,0.21133992362432474,0.690929695752059,0.9479124847221352,0.9631715964352031,0.9668515462462623,0.9746243038848396,0.9832067598633129,0.9886487468773094,0.9822898845646304,0.8860476083607719,-0.35546242770976816,-0.892613867774298,-0.9578269657487962,-0.9776723070085351,-0.9863603309393333,-0.9910445303135568,-0.9940991124078403,-0.9961838451672166,-0.9968569390585789,-0.9955430865121273,-0.9921060626051572,-0.9866001942459315,-0.9782709073037446,-0.9613262319470339,-0.9169476792503434,-0.8043464182846477,-0.5895952973921965,-0.3272222317260142,-0.12199349685165002,0.03481916394643385,0.2089473189014876,0.3953011210222521,0.531891840704018,0.6026566940687484,0.6204493442004669,0.5841350486526532,0.4653397036772518,0.2079182962257295,-0.16909444174692545,-0.4816031334957848,-0.652113718944868,-0.7316429166539343,-0.7650140944813583,-0.7640417852453859,-0.7005590856482045,-0.488791368716673,-0.07474060850046337,0.3889262936111792,0.7278107808979938,0.9156543372221609,0.9722705508949402,0.9395617818755901,0.863978105270398,0.7450846535581154,0.4564953134381851,0.06007284274236679,-0.13436330130276913,-0.20498451286559824,-0.23139637417937167,-0.23969118542720314,-0.23734932117221197,-0.2303086532669097,-0.2237660630948952,-0.22163824989535286,-0.22781250710606846,-0.24741079841697933,-0.28205171203937607,-0.3309255937857726,-0.38754565172193456,-0.441400909185421,-0.491853653152271,-0.5472178639893377,-0.5718038904919367,-0.46948056958719003,-0.34702164841083666,-0.28328246969125226,-0.25648105347186023,-0.24414905957890276,-0.2265349124151232,-0.18338340167688488,-0.09512144710231081,0.03113184315543676,0.1478878938879322,0.21623784950121291,0.23677348731611386,0.24391290239575478,0.2866265179686993,0.38199922938790487,0.5001344813183656,0.6071167294153447,0.6901658029938224,0.7462415224839354,0.7738734234784298,0.7772060066353043,0.765067955259994,0.7436303624302618,0.7128708666611507,0.6718931318519854,0.6144442400772282,0.4930337843517647,0.04743640189666219,-0.6599384013430644,-0.8324916939353874,-0.8853133371558265,-0.9185259358709114,-0.9441817500923557,-0.9622324570326191,-0.968257027710841,-0.9625536671539093,-0.9567046760831377,-0.9607963669935663,-0.9704381806687742,-0.9779096151943211,-0.9790857381597895,-0.9688826584145125,-0.9385508052538021,-0.8767972430498875,-0.7704318108195601,-0.6171032488605631,-0.42560590461981146,-0.16260975635483707,0.26179152359541763,0.6885047625279725,0.88003547298069,0.941538111370343,0.9618663362644061,0.9683053646173437,0.9692853126421345,0.9674705807256572,0.9631306035603905,0.9530210065260006,0.9238374800790428,0.8526989377125713,0.736682351047227,0.6155806538389352,0.5423591402702221,0.569436601507898,0.8196220847596081,0.7227381287538405,0.32674942847121663,0.1989984942786131,0.14534427493629032,0.10907902892399961,0.0545524775963803,-0.07637350879177458,-0.3849840835341399,-0.7571505928030554,-0.8820759295635813,-0.8851773053085406,-0.8536143271085859,-0.8059000637711483,-0.7501628146266516,-0.6718473583330765,-0.5060640975070344,-0.3313245969572678,-0.26912943184862786,-0.28787560105196314,-0.36576218176239883,-0.5125518640733074,-0.7029247733434958,-0.7691860583578077,-0.689914552571859,-0.6104267583724432,-0.5807518027951128,-0.6099589246509064,-0.6760812035498857,-0.6632288547198497,-0.5710465946066426,-0.533208353986876,-0.575329697475889,-0.683813766710782,-0.7850531297834621,-0.6767692771013544,-0.4694876890993858,-0.3424242667130709,-0.2779171302559951,-0.2430636239411768,-0.2213628064571189,-0.20527958962210657,-0.19152855408233904,-0.18081726460720027,-0.1738837971134723,-0.1704520671405878,-0.16911195482883332,-0.16653895303352453,-0.15785760748242947,-0.13444120534541806,-0.08298915431548555,0.03213131168125759,0.34521089452247594,0.5745577002479803,0.4533466344369271,0.3880813877652075,0.3564541648707,0.3301935527525865,0.28525099730383047,0.23097747127873608,0.19471416995632432,0.17360112929268282,0.14643145697046567,0.12167901634788339,0.12408132058288351,0.16765261405988965,0.24861419269863375,0.36073291484730213,0.5020841720904347,0.6698274410681406,0.8186819628483598,0.9007975839756398,0.931050948384913,0.9424474011095983,0.9500122635821747,0.9563137603253993,0.9607095498739175,0.9616464441758421,0.955867436288477,0.9370868332292301,0.8916700686567376,0.7964629707422906,0.640692669457941,0.49085735338524494,0.46196358832018297,0.5589780728783648,0.6731083255190984,0.7387452753821878,0.7589215846917704,0.7384857749579316,0.6422730534266576,0.3179010679501729,-0.33294495569669286,-0.7021366696239646,-0.8241957348545623,-0.8783019103831359,-0.9131122159615381,-0.9410800880852209,-0.9630897630162158,-0.9776341283756674,-0.9851662229090346,-0.9868175724864507,-0.9836619926864134,-0.9750040139913937,-0.9582638898883057,-0.9301198137205681,-0.8943791661426133,-0.8718108316048254,-0.8808637258270553,-0.9053844172429262,-0.9214255151883143,-0.9214574861001686,-0.9076451506849053,-0.8771648760541222,-0.790304983527802,-0.32801938307376566,0.7493009152951209,0.9363830835912026,0.9607083146922948,0.9611408971297828,0.9503861924314433,0.9170879757487027,0.7706375142919176,-0.004058164269678815,-0.6155006356945898,-0.7172043321562032,-0.717735041487715,-0.6956145357696506,-0.6752377336044226,-0.6707932002363418,-0.6893906972535707,-0.7199839804910942,-0.737617676173689,-0.7292518262528193,-0.6986709951118902,-0.6589656436867509,-0.6286344737055521,-0.6313582607870452,-0.6758228781662899,-0.729766482316986,-0.7028776679471376,0.23758317956053313,0.663437072939486,0.7255719457411941,0.7429769390304574,0.7478908115299204,0.7494782656691318,0.7567780481147128,0.7699673002115167,0.7833224846960632,0.793655641424641,0.7941071941719433,0.7661546780928498,0.7009992171942205,0.6123878581215201,0.514229301585222,0.3873491865564967,0.1617364329485342,-0.24953793084885204,-0.660494464604466,-0.8401979637294615,-0.8913888177968011,-0.8913204502618693,-0.8456932316410332,-0.7180281419970421,-0.39417711380422743,0.17367540369411946,0.5961990693151548,0.7763618127385419,0.8220134977655885,0.791145987840577,0.7320034309297558,0.7018740080573368,0.7198032718052495,0.743330328045151,0.7224407187345,0.6600912291458305,0.6184977485387513,0.6879770634642393,0.8247395533637453,0.9002655623965916,0.9294949510215983,0.9435738020921889,0.9478141651295865,0.938851358955683,0.8935287062258918,0.6326708513835497,-0.4724854315742145,-0.8675020222010624,-0.9350239187560304,-0.9554150930204869,-0.9626991545310493,-0.962287649786829,-0.9550145532810934,-0.9399323892427919,-0.9033692056475295,-0.7511077561274605,0.11832723422158467,0.8216339457242263,0.9371777736201197,0.9646615755180165,0.9728258551066316,0.9761271172335423,0.9707297957125027,0.8961295257036564,0.4534006507111645,-0.21450942344925497,-0.5134924077069702,-0.6359977719345845,-0.7125795765139987,-0.7886689543892242,-0.7740974867342879,-0.6492370910693432,-0.6040452448833095,-0.6300765376876898,-0.6765589574950861,-0.7125631663038554,-0.71821274260043,-0.6727275450054538,-0.5455446992576312,-0.3222316531439433,-0.08748079922123277,0.07992337579835986,0.22370003379449535,0.39283627829473705,0.5231933545166599,0.581319104071405,0.5947417639612514,0.5702596563383615,0.4950444218937829,0.38468604817721375,0.2876697218743153,0.23066626331873763,0.2172572768431874,0.23608129265115685,0.2461065147303868,0.19524238052544113,0.11319799627993128,0.03948490079742551,-0.02534701234846607,-0.07199345649735417,-0.06765501136090506,-0.02619953672219478,0.016889021241392386,0.046619750524553645,0.0575578975565954,0.0465980620999433,0.008791250592885949,-0.06584086479550934,-0.18584002607990086,-0.3154625670956904,-0.3236706966829749,-0.0247611139176634,0.5911712917325213,0.9032749880980953,0.9616943939905263,0.9601944213508733,0.9347233041718686,0.8698737640659956,0.7015346957255519,0.32432624131429066,-0.16012988152010463,-0.5196606779773161,-0.7554252887936381,-0.8822250238837503,-0.8291296874379772,-0.652970182610323,-0.5114759944445236,-0.44634827954169043,-0.4320692836059784,-0.4397823195945316,-0.44860706115484394,-0.4433270816267684,-0.41595196350883296,-0.3709438115852643,-0.32467952591500127,-0.3130387270400109,-0.3919609133892589,-0.5968743337029079,-0.7188652545925622,-0.6344109269374697,-0.4855639016398111,-0.348493523269848,-0.2525753258276965,-0.19569830812564692,-0.17299529501023714,-0.19495279765280937,-0.31061230490757635,-0.3445245487572542,-0.2358517323570483,-0.20180907403999981,-0.20523905508798415,-0.23752079929040998,-0.31177438664310425,-0.44911730590844456,-0.5356549682019732,-0.3942271425789537,-0.22951941125086556,-0.062338011389633845,0.14219987353882807,0.3339859881475732,0.44723254777269816,0.4974738365638948,0.5308113115001192,0.5693377929020657,0.6136179307238488,0.6625440394056822,0.7233922125686749,0.8000065442690689,0.8756882824359059,0.9263485822660877,0.9401612031336826,0.918043605266513,0.8692670329886938,0.7988097775190989,0.6820578092986831,0.47596697803446825,0.1284308710546216,-0.3635275520305604,-0.6167055986507797,-0.6443603575917431,-0.6389624175220341,-0.6431020396364224,-0.651866013177769,-0.6363714742551005,-0.5545237182303873,-0.3808053485897212,-0.17152737647015573,-0.012151022656573696,0.06545509943514081,0.05485578638870375,-0.04160842509087935,-0.2091571191958949,-0.3957656430462901,-0.5524800613344514,-0.6655664872942925,-0.7377733362266771,-0.7763323463896291,-0.7971908218321684,-0.8126007641918538,-0.8221378880123129,-0.8265919377307404,-0.8348017537171019,-0.8500267857717048,-0.8535629383456166,-0.785612832294752,-0.6433812208472665,-0.5840664200360943,-0.6340821702352792,-0.6941772676823369,-0.7000144999686035,-0.6269338045427199,-0.42935392597459127,-0.05370277176867098,0.38826653589060817,0.6656788979826073,0.784862386283159,0.8246064221293625,0.8202206104701566,0.770773629557784,0.6388110217624074,0.37518789908955835,0.07710329832943279,-0.12351106903505595,-0.25064544710339703,-0.36899854811866506,-0.5338487844330878,-0.6229535974449154,-0.4938984176348365,-0.38243663077566675,-0.31185703372017726,-0.24001221783230753,-0.10260468877094626,0.2599093407297452,0.7835093639126735,0.9424724836535054,0.9709501926162494,0.978784678544953,0.9790095651529169,0.97075066496067,0.9471098379565855,0.9001559181526851,0.8407053366724023,0.7860624183154029,0.7346559951452536,0.6737578509496727,0.5865136966877061,0.4604665878750173,0.2874409294140616,0.056452052812528374,-0.23572662250788226,-0.5382290679733869,-0.76208817953828,-0.8423031530943458,-0.7473017953154539,-0.4313653459402351,0.13205615773972482,0.6292706247564916,0.8167468131283634,0.7823243036780516,0.5892123217298312,0.2816848424696037,-0.030358023407554845,-0.24935814430749312,-0.36478651508491305,-0.40071055201628253,-0.37138973054440155,-0.29804630812560845,-0.24876556419299722,-0.3327465053540575,-0.5301593232968478,-0.6765441370965529,-0.7493909770268699,-0.7864450821200429,-0.8061081989963899,-0.8154365921440613,-0.8280876202731047,-0.8621831748165271,-0.9061811713369965,-0.9231474211889248,-0.8845844434188493,-0.7378068480482155,-0.41167473078223715,-0.019860274180785904,0.31743495993362825,0.5798580390337843,0.7648911858056168,0.8747796065973078,0.9242451758448004,0.9321640733684056,0.8956692407353852,0.7193991204471508,0.29357199240726883,-0.21580272695405867,-0.6095058481052428,-0.7863794802490064,-0.7450818978013112,-0.6418150639871445,-0.5874123420895292,-0.6282490496734894,-0.810645446238803,-0.7843954338600976,-0.5381982828207091,-0.47244275602712327,-0.5244903109379697,-0.6625494818328517,-0.8271330063793867,-0.9249178254509708,-0.9515732816840521,-0.9473049501374768,-0.9271890957708052,-0.8818755989779977,-0.743753785374046,-0.09472683846206614,0.7860709809620698,0.9311976156956907,0.9531505643350239,0.9545444276073276,0.9498891938307155,0.9429488690694257,0.9339873906098907,0.9208672880773079,0.8985353633660588,0.849104248616151,0.6878899112992597,-0.029292308939125957,-0.7963507271439374,-0.9383063998583147,-0.9668245718474501,-0.9672191307370512,-0.9261930948998615,-0.5128319389810126,0.7360258573482689,0.9314281190371957,0.9708568012747238,0.9858368573681702,0.9923801288969465,0.9933173606078611,0.988108077426744,0.9684688235750744,0.8145835291628688,-0.8326428067674189,-0.9736221826621674,-0.9836524457054067,-0.983620045441276,-0.9787969719744221,-0.9620027110344213,-0.8608118355104961,0.21517995650649313,0.8402931421882601,0.9165312901907223,0.9321588538044351,0.9076112991261563,0.4793902152595644,-0.932150018079751,-0.9510446685098423,-0.9104898469133367,-0.8452173052053148,-0.7721429603638847,-0.7182322869238351,-0.6969278648942541,-0.5817332851234974,-0.10595598926143421,0.07865565737122009,0.07787237755484534,-0.0327477881078089,-0.22894794185131426,-0.4388114952095297,-0.5888476047274517,-0.6711740601351484,-0.7069035468581588,-0.7058742941083336,-0.6417854184709435,-0.46998029872007846,-0.2669980277606271,-0.268345483527041,-0.6054095436808123,-0.7829539186810437,-0.8465767383204362,-0.8897566977673234,-0.9219485197744478,-0.9445663010231377,-0.9503971634086107,-0.9192036818165519,-0.8259144210387307,-0.6856140459898546,-0.5604301440540218,-0.4944265471782144,-0.4874102195136347,-0.5223854314656318,-0.5810417552208185,-0.6447572261166084,-0.664123511600779,-0.47918504922334326,0.39468047583203053,0.858224547211977,0.893967311069502,0.8515293872782161,0.7535430397899172,0.5855701817961239,0.38843245491243433,0.24399876534797346,0.17375160702795292,0.16351122303959048,0.21275453367411604,0.3811168826300741,0.9326169222757307,0.5834184113867027,0.35194630637785074,0.28101838456409706,0.2625469185756695,0.2718192008826449,0.31175244902356003,0.4094077019816048,0.5608425799722546,0.5355703157070589,0.4709120295160786,0.2739086537233568,-0.0016020939125584463,-0.11916848555814914,-0.1956446581533188,-0.26934726583915786,-0.37131559605041337,-0.5537921102945815,-0.7616565467511597,-0.7273898512627686,-0.7011495707902331,-0.7435769745339171,-0.7964623436352994,-0.8278741777781414,-0.831705557246972,-0.8094629715908788,-0.7705427010126884,-0.7384285384821214,-0.7049135051057281,-0.4776418108739309,-0.15294934850395991,0.06250976826451865,0.25344682047437445,0.4726303529440636,0.6501588555406713,0.720722455658763,0.7128724468884927,0.6640445980144575,0.592071501204842,0.5130669588382808,0.448219745770717,0.41526088826410257,0.3879784327830132,0.2707064808013812,0.04201772912968903,-0.14833317465581505,-0.2551200851774215,-0.30280473349178866,-0.31492790004557386,-0.3062403150848265,-0.2851871692712601,-0.2632965009734722,-0.25345188510218297,-0.2665001629027465,-0.3081420973466497,-0.3720960531156185,-0.4419513891950691,-0.5003085460879058,-0.5239740292914313,-0.496204996171086,-0.4314860718272317,-0.3629638814184896,-0.29848975584670695,-0.23435641618059505,-0.13035439763486464,0.05617822197913023,0.23317880372143188,0.3113823986740349,0.36383162196554436,0.5335104892058743,0.7993269478673727,0.9382721464212833,0.977112185949736,0.9876897329919461,0.9914719656345283,0.9925827158279802,0.9906426298816491,0.9821984777711896,0.9576464803098841,0.8923881816182517,0.7478760044523083,0.5485343161262002,0.38428416027966944,0.25109887515884954,0.09275162345409586,-0.1125427082846914,-0.3309342693530144,-0.5023246087252904,-0.6027117993511638,-0.6520041772579168,-0.6740887103949489,-0.6879265577355764,-0.706241785294403,-0.7338887928205133,-0.7687525699000958,-0.8051724354406187,-0.8396346005984335,-0.8685410021648557,-0.8938601572179854,-0.9205868056283446,-0.933270612179162,-0.869789245681216,-0.738299475316689,-0.6311587288411206,-0.5875151558146623,-0.6133245727910445,-0.7125618803849019,-0.8123407979265309,-0.7806522440703719,-0.6834912684094311,-0.6128442248743838,-0.5767408308079812,-0.5573330013486821,-0.536755114552647,-0.49247314145564136,-0.4313298194574327,-0.3748807720739208,-0.32191036609746415,-0.27136450816476515,-0.23065567297886527,-0.2037738492095434,-0.19382862113541016,-0.20867126280638656,-0.2482182589451463,-0.3001839266325829,-0.35308225856050063,-0.4069577441500002,-0.4696114781031838,-0.5605051072716987,-0.6823064333175695,-0.7488262864827492,-0.707469407236206,-0.6212210925649387,-0.5029935615052271,-0.3373490719997423,-0.15402637210626044,-0.010423343838411574,0.07882458292803379,0.1273030229012039,0.1456000685120877,0.13674187445546326,0.08016049991984703,-0.13023712983714977,-0.3467317879029994,-0.27121925343788617,-0.225432575545934,-0.18833825528641027,-0.14825521346963805,-0.10478482356903804,-0.06285295448558324,-0.02425782409086689,0.018749449291774054,0.0888794311280901,0.2139173636084188,0.38909936496308783,0.5500367634107751,0.6472582905031734,0.6910634270960745,0.7033929363005756,0.6929782321377721,0.6494788851351098,0.53220003621058,0.2346353152627524,-0.248887446279141,-0.5042536725902991,-0.5642967033974229,-0.5889696894727687,-0.6355936947579575,-0.7248277020051249,-0.8406879988681536,-0.8922409868683427,-0.7984895653529297,-0.6127016567153278,-0.33887051638464966,-0.0031897672134311903,0.28912072502448083,0.516382479712415,0.6936889643823676,0.8179705718840385,0.8882163313432393,0.9183728062592784,0.9210213602133702,0.8931111589082613,0.7926346026206743,0.4383320426001696,-0.2735697778071204,-0.6704320524200523,-0.8000933868806548,-0.8466170598950523,-0.863456163642771,-0.864360823780619,-0.8496977286263333,-0.8012334942532946,-0.6271793002528934,-0.016034402107409758,0.6628345591630981,0.8700410151782892,0.933242065217758,0.9595993895083368,0.9728764247040934,0.977364856099773,0.9628200189111967,0.8751396014308647,0.5727892657995659,0.12714204276131089,-0.14432275172804007,-0.28666993418881304,-0.44661121402943005,-0.6726356168338176,-0.8635566989962299,-0.9493564064382538,-0.9711621458699182,-0.9672736143726995,-0.9507047430488839,-0.9256467630420941,-0.8992264671089752,-0.8823996411432082,-0.879132226586548,-0.8724835435989811,-0.8425355083221562,-0.7998777853197808,-0.7589060800264675,-0.7204765711969622,-0.6839861719836587,-0.6511709325090043,-0.6312436132058954,-0.5934949876425102,-0.4109641488636474,-0.016582325845497153,0.306745965959824,0.4227716265895594,0.37783934745700937,0.30034936751586183,0.2614681971633602,0.2774632936349606,0.37425871128922605,0.6491104709968131,0.3868485831222878,0.1318266628530935,0.059026010388915494,0.05778773365438309,0.10750086349601523,0.20345085078316602,0.32907602906556027,0.4377426058313743,0.4731264029853392,0.38224260552104944,0.11154834205796306,-0.23499844527513306,-0.429148525367791,-0.4409739576013611,-0.29289704058725663,0.011785475596437247,0.37209816974733184,0.6245650169526691,0.7466358983167067,0.7632939472887211,0.6536905231695093,0.39208438436924714,0.06033334815425576,-0.2513310127896626,-0.67649061998159,-0.6435114932739361,-0.28912134248441707,-0.16969452105030675,-0.13115648954027032,-0.1386954142281837,-0.20878240266477063,-0.44721290399962293,-0.25585932971124803,-0.1228765358221832,-0.0698337497044568,-0.03774846925743642,-0.015159426921730309,-0.004719703945891456,-0.03175296667840778,-0.18575553171672632,-0.1720566424936556,-0.15289873795744569,-0.13964422600347615,-0.1242426949520442,-0.10772814951607519,-0.09163928696763322,-0.0788309338503052,-0.09090977029138084,-0.14711776788954767,-0.2576634993601188,-0.41034215560360626,-0.5636320578894268,-0.6758414740725842,-0.7314308725635017,-0.7125044842655631,-0.5392963665595918,0.02841523807400646,0.6624439661657012,0.8518886722654316,0.8921537481343708,0.8883553944396094,0.855962828169632,0.7881236383297734,0.6618352295124169,0.44901235243084253,0.18668117280761265,-0.005314288083181631,-0.09561842500536849,-0.15967783929057008,-0.252815730521425,-0.3435577256683855,-0.3782158552744596,-0.33042157543589584,-0.2063996574258953,-0.05280312388578099,0.06782074078717118,0.09061451410241202,-0.023266204228311285,-0.1739452273126003,-0.2073689466020746,-0.1455282927538627,-0.0698324616526135,-0.014386881792196424,0.012004329723865228,-0.018072114799948597,-0.09960749499139684,-0.12639075855824145,-0.13267877869173308,-0.12707945669977067,-0.10553284808920224,-0.05236048560912137,0.07246889988959793,0.3023499766092881,0.49135611567240595,0.5581748062216709,0.5700986261009967,0.5533675038894561,0.5174005901269478,0.47441681629275884,0.43826657403602665,0.41552137661891164,0.41341911494697087,0.4382388285252085,0.4862764402440383,0.5235565631163184,0.4894326625773681,0.40121662176593387,0.3067076709063782,0.21247634385671052,0.09704096424253385,-0.048280955404885244,-0.23034983715478133,-0.43860256588166635,-0.6156995068465457,-0.7113068723887753,-0.7347607637164516,-0.7054581622697481,-0.6339309953744638,-0.5392373113810162,-0.45499151692304624,-0.4236299241309186,-0.4726977398365697,-0.5830744852054156,-0.6981644204063541,-0.7719206125960901,-0.8068481644459733,-0.8132735617631301,-0.8078179920403066,-0.8047627874259119,-0.8142932322310601,-0.8367499783328917,-0.8601150983817889,-0.8695116250562952,-0.8422313318990188,-0.6779769866035648,0.20134049780238727,0.8698053279126959,0.9612919074744262,0.977200089222064,0.9765759346772644,0.9663831579442252,0.9352562811506996,0.8038295599577395,0.22341115576016812,-0.40056836378888877,-0.5562211365193973,-0.5126641550880484,-0.3212383849537575,-0.005868789120832651,0.3002274579578169,0.4832301332446881,0.5478917273712975,0.5123782018826879,0.40955981533446006,0.3066409790389968,0.21338987735112805,0.10859634922704052,0.0015014146165797345,-0.046161667694263345,-0.028138622528028307,0.026284669492976916,0.11332998959705667,0.2462301317488046,0.4027432419723677,0.5574113990245879,0.692292966193368,0.79106208690863,0.8500628975297465,0.8749973248541251,0.8714035396277404,0.8350399459317482,0.7518732891013024,0.6083014741462824,0.3972443904330959,0.11180229067016921,-0.2609858293677763,-0.6458227768305721,-0.876639361410174,-0.9453393520105269,-0.9420872183315854,-0.9072107436337065,-0.847593229562566,-0.7755811459349802,-0.7134356924481539,-0.6786941450700573,-0.6768891591092004,-0.7068352271706968,-0.7580598722892569,-0.8117361799272802,-0.8434799843124378,-0.8427099568632559,-0.824954503884883,-0.8103423625315103,-0.8023622816592328,-0.793565278537612,-0.7735576908327693,-0.7427389836095634,-0.7178733068338109,-0.7251696743871932,-0.7710136332734551,-0.8241240810659031,-0.8304101088972534,-0.701772893450959,-0.3361857961344067,0.09317423962951184,0.33869565275667596,0.4422585705905778,0.4858649641705136,0.5118365707550027,0.5422867377091614,0.5658667995359723,0.5502513659573305,0.4463689535181469,0.221198331804401,-0.017982540297336664,-0.1484630750711491,-0.18882493221378746,-0.186131210992658,-0.16108609166877905,-0.1145734822115825,-0.017205650299830618,0.18587859225701797,0.48860549066989667,0.7366745749073372,0.8633155169654685,0.9230588642534706,0.9537247286737857,0.9702701200125704,0.9792969544323104,0.9842924483317237,0.9863620161784264,0.9810515609532799,0.8889735733757452,-0.41763651109919375,-0.8090733581865263,-0.8286857749829464,-0.7588093784909968,-0.5411356701858555,-0.09807994282743547,0.28240737336010935,0.39929831128680854,0.3051146053526457,-0.0023174839665146153,-0.42706720656874225,-0.7403538945233665,-0.9015367546987195,-0.9625521923209311,-0.9533693094849965,-0.898685857142144,-0.8294309649319319,-0.7768425252754904,-0.7605974440296559,-0.7783001239744114,-0.8064826368842216,-0.8069624296778737,-0.7577020375238626,-0.67349258104139,-0.5771962267091527,-0.4949679930997415,-0.45906950052831424,-0.4725675770134754,-0.5219555954765235,-0.524802177932115,-0.32897887431308076,-0.14605913615255875,-0.03178050906181847,0.07025828740570551,0.198202868846344,0.36100299844544814,0.5303379929614438,0.6677380661770039,0.7642453471613271,0.8279293829207135,0.8668344287888055,0.8844662884061045,0.8821078187819809,0.8580341303221495,0.7889042066171619,0.6318345600077029,0.4738754299749698,0.47320186129343644,0.5784146353162982,0.7110733709246144,0.8213472551025025,0.8827421934324449,0.9005996578948579,0.8904900118368098,0.8465002250768473,0.7131223275165722,0.45343540059084503,0.23704381655054224,0.13372029659827708,0.06837735013719218,0.00471752278785129,-0.024393609059548235,0.06124347414865511,0.3455233698017354,0.6784402227001622,0.8412460848495987,0.8723006539587708,0.811442833520361,0.6440833972614377,0.3993394161664389,0.17194568905643726,0.008929509189597657,-0.10832506545922878,-0.2345636674776007,-0.5435647087618509,-0.371335462633796,-0.18652863054377664,-0.137704200265783,-0.12817011705687428,-0.14138196603118214,-0.18226445937749275,-0.28744116176456597,-0.5681901114489851,-0.7729514343200136,-0.6677722772595496,-0.6825569613966387,-0.7511451902469376,-0.7730999677370627,-0.6856574146245896,-0.4740680023969185,-0.21658184160163219,-0.006193759396890446,0.13757854728899077,0.22349174898967697,0.2505227488014557,0.21281550087895,0.10538018268299643,-0.0676520933821317,-0.2577617702815101,-0.39480791576162005,-0.445937807076917,-0.43767115621340075,-0.3875111297907019,-0.3004290304902131,-0.20580912753547956,-0.13793735880686608,-0.10320740445804105,-0.0974350455203598,-0.11496281060404012,-0.15047124610153875,-0.19817363721790765,-0.26353314920913967,-0.3734559145177579,-0.5560794796843106,-0.615029039919707,-0.4462051719330141,-0.30658100442296055,-0.2149208771675131,-0.14730815135912048,-0.09149027086519407,-0.046419123007452136,-0.01529823141225182,-0.002622394348366311,-0.007193175579011885,-0.023885877637762,-0.048450404915858586,-0.0808655305367748,-0.12291814534168398,-0.17282707369496744,-0.22222236378336327,-0.2639815685245759,-0.3013718849365698,-0.3551406396110107,-0.4594259422972308,-0.6510726782589991,-0.8291109411107757,-0.6108770112344432,-0.31887145667703903,-0.10970382037843272,0.0785186181627485,0.28701497199577675,0.48857994448416114,0.6195886355367233,0.6963577519567093,0.7512442582223567,0.7928573757517434,0.8185999493012689,0.8195283846447052,0.7825985670956441,0.6991833753994402,0.5850591111633041,0.47367202707470174,0.3995765380374673,0.3830983837033944,0.41997908455312577,0.4766466800702614,0.5045513006571758,0.44003931332041923,0.17638776022717417,-0.2674202074604706,-0.5738311947990626,-0.7121161875014714,-0.7798650760703477,-0.8188376255860825,-0.8409991559813415,-0.8456622916745263,-0.8127101954078613,-0.6967735795732033,-0.4571324954849166,-0.1948327926354748,-0.043993138474204926,-0.014461913983452056,-0.055674427412938425,-0.11580248722089419,-0.11995048771653048,-0.0649379318138317,0.0003724364137893737,0.054064670792888354,0.09276997130969568,0.06529357651458181,-0.04874617804148912,-0.15611661579682795,-0.270373520270802,-0.40068410750061534,-0.5148775560962473,-0.5660655971533117,-0.5350496182129152,-0.42720943736318423,-0.24902369956617987,0.018615461860394127,0.4157703281626263,0.8161420743225186,0.9006211235635029,0.8118786179066779,0.7154522159654865,0.6342749823946375,0.5595589907054613,0.4788243100762855,0.3395003822920739,-0.42863157979906263,-0.8755739281891501,-0.8889610270236792,-0.9147576208508789,-0.9235766459684448,-0.9270217411972389,-0.9266480417153313,-0.8828546061432316,-0.722827985015845,-0.4784390852440474,-0.26716238287250305,-0.09540059365312444,0.10000147775820548,0.3573075556838952,0.6138472889705995,0.7839495702981156,0.8724653025721831,0.9166930147509619,0.940228392908655,0.9520453440301435,0.9551041298183169,0.9523463776772287,0.9508373209441527,0.9503807816744071,0.9426319093588871,0.9160186452737231,0.8114342536926875,0.39972524465626785,-0.20637812039735623,-0.5030002674725594,-0.6211143215248818,-0.6742016061147206,-0.6929555240943209,-0.6906278580455136,-0.6789545470117503,-0.6842085995594801,-0.7229699182947795,-0.7720055837633724,-0.8053616704618524,-0.8216967360231608,-0.8259387865703318,-0.8231709440789802,-0.8158528107472888,-0.8035541288040309,-0.7876611060514934,-0.7680570089503079,-0.7452830167810022,-0.7250281140079539,-0.7181103389272105,-0.7343478878913055,-0.7745544684333375,-0.8193054497183466,-0.8378274301275217,-0.8178002677008717,-0.7724493275399096,-0.7263057979882054,-0.6939387255044224,-0.6702954089770593,-0.6383773461479421,-0.578227226270069,-0.472817986088733,-0.3328725649214702,-0.184622051658974,-0.04107192263893905,0.12091929693071644,0.3317701953749469,0.5346337918557051,0.6424775429205865,0.685274191966716,0.7052042231993224,0.7187625857759844,0.7283618899615235,0.6883899302635152,0.10876802750839969,-0.5369286725953566,-0.7442609016939284,-0.8680275942318113,-0.941590978881067,-0.9654049515980626,-0.9503203936539067,-0.9074490040306626,-0.8370660431880456,-0.7286452312244518,-0.5875392978785996,-0.4569510703768071,-0.35566272040883457,-0.2654920571748853,-0.14487845086589735,0.047166418225070866,0.3273453018196042,0.6224000990136423,0.8186598605466697,0.905934415499345,0.913320171466243,0.8886986418892887,0.8849003168915858,0.9136186009375227,0.9460175549126586,0.9648067834162909,0.9723436510507601,0.97290602938239,0.9667894573721435,0.9472402880781019,0.8725480598731581,0.21211630353680813,-0.867880316857628,-0.9596429468287176,-0.9683603559690667,-0.9598770307051039,-0.9399182743699214,-0.9074178655242857,-0.8593583372585468,-0.7847112989328497,-0.6705284167917729,-0.5243014968018659,-0.38150389069382384,-0.27029524824759116,-0.17896663963330509,-0.055811256647406444,0.14537533500225547,0.34908505106601384,0.5200599203120388,0.6898149198699055,0.8341553560634869,0.9064687645332641,0.9063702112008609,0.8732942406225073,0.8360536224746562,0.8088151761665606,0.7963444673973267,0.803148974940153,0.8399635253803355,0.9095847134064883,0.9643238689404405,0.9799827703847321,0.9825330563032207,0.9851961372153838,0.9879603852546109,0.9855257336614888,0.9563129845035037,0.849335439217269,0.6196200431727275,0.3244053861227273,0.05764345464660525,-0.1783876885922167,-0.4070435031344044,-0.5840874670052678,-0.6646650728473941,-0.6624332249667993,-0.5765338142380817,-0.3995890087053393,-0.15667075669647657,0.08018808645074496,0.24705235843942303,0.29663109408464794,0.18810197062586387,-0.08882088799781808,-0.4150848562164237,-0.6223043935201422,-0.7137061562903451,-0.7493032391094089,-0.7669285971929785,-0.7898920982595813,-0.8433756860410566,-0.9381259596489788,-0.9324671060398567,-0.654293366004246,-0.4106124989663058,-0.28766315065744796,-0.2378949618427846,-0.23426214013259494,-0.28183331997071936,-0.47203376021137905,-0.6516362262387226,-0.22256366184987228,-0.11498178347467851,-0.07724380626277108,-0.062303191124713476,-0.05786158574497315,-0.05861674617478218,-0.057173647948081205,-0.033238190866802034,0.08547645684192542,0.34657520548612275,0.42789468232022565,0.45593541264436355,0.461409517715317,0.43772430845212273,0.3856171163987238,0.3187962239128592,0.24633762913015936,0.17376830168392093,0.11281372200275412,0.05214358652990579,-0.01829843196337385,-0.10792013485999778,-0.22299185336834365,-0.3851191496695982,-0.6296970005437814,-0.6761093374134068,-0.37812223905594167,-0.17339901474372238,-0.046056797575068316,0.037411224645469456,0.08986099267753532,0.11474867579278096,0.11715270560857886,0.1009472602346412,0.06886134494897846,0.026414049613272105,-0.010649229987497398,-0.014988398063482853,0.02565680238581902,0.09512125049339043,0.17246428663138116,0.26217673073314085,0.3636022361228919,0.3820585977279191,0.3032279197534384,0.2463296728250156,0.22501045234212222,0.21279281575586356,0.1829616140809616,0.10720273303090115,-0.006021540129504527,-0.071700912083856,-0.0635807430786376,0.003589402349301466,0.1307832261569969,0.31569916003959414,0.46505262447874646,0.4885335145582802,0.48533808339276285,0.5074026352691082,0.5436964920389044,0.5578338328446788,0.5052359004579796,0.3630518591994101,0.1597638538322855,-0.04349917873337893,-0.20826371346625788,-0.3295190317694865,-0.4062714532984221,-0.4429311298263918,-0.4449941695345053,-0.40039360786653155,-0.26763349471702785,0.010250734160869582,0.2673220462463841,0.3345471003107307,0.32736749795688347,0.4287657416098764,0.69049662082595,0.8735767311874937,0.926303244190773,0.9320474213473684,0.9260306567232435,0.9166792239656054,0.900077965588179,0.8655484642057945,0.8037404317402296,0.7232129585014652,0.6446655179120566,0.5795474619154402,0.511221514985654,0.3857434728944881,0.20441618359440256,0.04479508775596539,-0.08176950122598467,-0.1901912385820723,-0.2820080876914958,-0.3522172727023885,-0.39502968365871305,-0.40046166914654635,-0.3791864773195825,-0.3903584218332932,-0.4676201562555447,-0.5862418226486711,-0.6927994659137634,-0.7295811455495643,-0.6446604080651311,-0.48340948349134777,-0.3972878702472695,-0.4057339629255364,-0.44772757731505736,-0.4816299229752384,-0.48570648592059273,-0.4480134540457024,-0.35092984363897994,-0.1585173078113289,0.19236328136345418,0.4558639165677804,0.431412871561134,0.33943333183936575,0.2333182559670073,0.11774647061351805,0.015089845637026894,-0.041790339147532427,-0.05604882964801098,-0.06382441591219432,-0.09484740516657243,-0.14955037330132834,-0.20655246042404543,-0.24462150152128778,-0.2560235563334003,-0.24286892053422382,-0.2074784880868402,-0.15678362295114825,-0.09768336855428633,-0.033938970392556736,0.03453441083758972,0.1007509236458954,0.13231032593312975,0.030182822304105003,-0.30881034488067394,-0.626743604077711,-0.7705262161217361,-0.8320993575810649,-0.8592500331757623,-0.8696989932420864,-0.8710659916415413,-0.8653658608130624,-0.8508784377159109,-0.8315250397743708,-0.8283218601757599,-0.8606481294572254,-0.9072920916599769,-0.8646077761873231,-0.5151149620993933,0.14639809580141433,0.5900497577478608,0.7764574285747535,0.8526497767252453,0.8798620527661171,0.8677668698290619,0.7950344991685592,0.6269659291196474,0.34510260853118957,7.713822485285692e-05,-0.34125376406624786,-0.5404202120532842,-0.3913556222304246,-0.11478174175688137,0.1455473863313036,0.41388954911189885,0.7486602087102013,0.9415919466596547,0.7676536077809043,0.6389974088601205,0.6038698264002562,0.6253932026117581,0.6772769080254107,0.7401151850325965,0.8060239390007277,0.833988205777151,0.466553550412465,-0.05810380715204955,-0.30614837278889423,-0.4397519009808964,-0.5017616808573078,-0.34735326383210174,0.08389536794787082,0.4078578261745775,0.5998462384929808,0.7268733570998683,0.8144889232947004,0.8628180326560657,0.690922413290501,-0.3392906178487986,-0.7274187869055081,-0.8436357060092222,-0.8925136123454307,-0.9259734301503341,-0.9564499146312428,-0.9775157155184623,-0.9858807992451597,-0.9861444575183571,-0.9824191039165259,-0.9772757766053756,-0.9700682998743678,-0.9585788791128709,-0.9440601188162244,-0.9315379065994167,-0.9243702031518196,-0.923142409506122,-0.9264639473879908,-0.9299628142953258,-0.9251041451876537,-0.9048740274920076,-0.8647168858323804,-0.7915381282386581,-0.6345687324064839,-0.23711778108755535,0.48905767659896093,0.8584251923535446,0.9462036676158682,0.9700542520288971,0.9760021579961564,0.9690505981502026,0.9421067570014806,0.8779895803880549,0.742823076405521,0.48978186940942686,0.13029765422284784,-0.2495781527007181,-0.5310817644259626,-0.6287706529597298,-0.6554950045712408,-0.7063862097379314,-0.7609873523217761,-0.8039625609216599,-0.8354519203104245,-0.8549237548879296,-0.8603198843000668,-0.8468064863871677,-0.8075419998698501,-0.741101143906427,-0.668467643894549,-0.635903118904778,-0.6727410609898598,-0.7564911536610639,-0.836101121676339,-0.8863861089699032,-0.9004055594300859,-0.8750288292575263,-0.8291340958415145,-0.7986221662934005,-0.8102729005433464,-0.860439450914699,-0.917279517529369,-0.9516389550673954,-0.9583699874647021,-0.9310067585114299,-0.801603683003468,-0.37721211477822414,0.16175827994658584,0.44093158742906363,0.5651939286578,0.6417441837719904,0.7329962386124876,0.8495779238690958,0.9241451424631627,0.9577801422565934,0.9715762771604923,0.9729812413224951,0.9678754656881051,0.9581879986875366,0.9389760456998552,0.8867959443925097,0.7098622971840556,0.1624156817431807,-0.37933825137044064,-0.5432044920599577,-0.5184872077374906,-0.3188746459456629,0.16279360073904997,0.6088520967993745,0.8139999594728772,0.9163940729836418,0.9674395533222238,0.9881245539131769,0.9945300406169143,0.9954563556319697,0.9940700824775554,0.9904190595560447,0.9825621164569657,0.9664034178710086,0.9338284187145282,0.8684620674591,0.7484789444790497,0.5674922601913707,0.3626036507268158,0.17681375115372136,-0.02219578203958719,-0.28120937526892675,-0.5165426661562639,-0.659526491029755,-0.7419633918647142,-0.8007775756614377,-0.8520298816358384,-0.8996684896913609,-0.9408538100447055,-0.9664544125916353,-0.9659600703334014,-0.929270806878157,-0.8420008391799754,-0.6846925981191904,-0.3989566823146587,0.12365058337917004,0.680429519272187,0.8821504495828942,0.843395606801552,0.7501384701674976,0.6613798048571216,0.589001985031349,0.5616421207642028,0.5225406937398838,0.07567544828153787,-0.03012525808913981,-0.05560082385862737,-0.08177332934221992,-0.15429040076439468,-0.3305386802641467,-0.5982278974413234,-0.7975724479522643,-0.8794559068097892,-0.9039479666972773,-0.9011481740874374,-0.8798267004717124,-0.8406855696923382,-0.7802644631572506,-0.6966753464010298,-0.5821058295355683,-0.41240812329045107,-0.13687026481559716,0.20629052312633445,0.4477161703720708,0.5462614744968537,0.554695902805237,0.4803101378250195,0.3512443305201666,0.2413184707827164,0.1787109153846723,0.15505963868775766,0.16179077149342894,0.18083844131729052,0.13682604062546624,-0.08125935126002166,-0.2710461306184428,-0.38199962550956934,-0.45187327692563606,-0.49411956024471526,-0.5080155426217521,-0.45995960283221604,-0.24802624917801622,0.027277872390091263,0.18211896910289255,0.30530490460541143,0.5521557599978965,0.8023071615767968,0.8806220291770899,0.899394269173841,0.907624150012228,0.8852069984294443,0.7578203571494565,0.4568967191888504,0.16918986863203664,0.023165644530499123,-0.03858236916201945,-0.07589296611009681,-0.11764417885589938,-0.16731401284648303,-0.21944227611976935,-0.2555103771374546,-0.26544295063359497,-0.268594371484236,-0.26323505409281484,-0.2690453277675388,-0.29912043849691666,-0.3459827003377772,-0.40084998284864104,-0.4525113847851574,-0.4976454197247536,-0.560341842254754,-0.6692480554690653,-0.8206952726688609,-0.9375150380599804,-0.9677055494316498,-0.9577735463077303,-0.9437397460956389,-0.9323161683626079,-0.9228044940211475,-0.9142497952179311,-0.9056380611008007,-0.8939986977921076,-0.8734391852386673,-0.8254463206724317,-0.6913347376175852,-0.25801980662704127,0.5291987731269453,0.8610728180864078,0.9452554642548383,0.9733626329878021,0.985720773580387,0.9919491349526975,0.9948752304455143,0.9954799451177035,0.9939510307786555,0.9907734074020862,0.9874766155648496,0.983943139660552,0.9764009281444337,0.9627648976129127,0.9527455256966193,0.9581937843781336,0.9774603733049113,0.9830711128586436,0.8959360601209623,0.6153274437045174,0.16445886690853231,-0.3435336897416163,-0.7706216215916367,-0.9192534510073922,-0.8982198127287628,-0.8716148521728645,-0.871543981188553,-0.8820280967749012,-0.8790377969864628,-0.8543618173724823,-0.8148924300635846,-0.7784336244995819,-0.7697699025279331,-0.8143538602073224,-0.8900518644857317,-0.8593016349344915,-0.7297008565713482,-0.6154042443545567,-0.5160449362819757,-0.4058655154420346,-0.27777625916211246,-0.1329441320348699,0.016130461057559792,0.1392118157567124,0.1899670164481573,0.12487285894135833,-0.07763229176674669,-0.37015269580999993,-0.599769875330588,-0.6966337451784175,-0.7425031753240882,-0.8062748993610125,-0.8924907437061735,-0.857502764079366,-0.7118068580132326,-0.6142769272179692,-0.5763025229181777,-0.5748556040541185,-0.5922259530549483,-0.6245771981662008,-0.6903676507551362,-0.8436618463766554,-0.7039171569523417,-0.2567169522979339,-0.12597469309575782,-0.09671852986700431,-0.10308068941288297,-0.13064387095688523,-0.18492047690303273,-0.2974578345108019,-0.5296309358194626,-0.7886089964654276,-0.8420749238681082,-0.8396332502772746,-0.8360329119184898,-0.8250119327422597,-0.7949299850054669,-0.6715113861043891,-0.3186084418588911,0.056965698638428354,0.28787133946482024,0.45267731458857513,0.6188849082504826,0.760866097705737,0.7168272668027943,0.6522596440055808,0.6723526594977415,0.7101002741134816,0.7337509523332103,0.7530949155392062,0.7858271355268299,0.8317039931187836,0.8404980044294086,0.7531580889672237,0.643655823112665,0.5834563380562865,0.5751506009795118,0.6034688803504552,0.6496199995428789,0.6881839206726593,0.7046849629655203,0.691930071520874,0.6428854290155372,0.546428192325859,0.37544613761069034,0.09666612046492389,-0.2520567290222099,-0.41645780173492586,-0.3338808683629685,-0.23227826405889015,-0.18144977630529285,-0.18195903792876342,-0.21980726967375347,-0.29541989748177977,-0.4305087518256009,-0.6393217849047309,-0.8242620641215346,-0.9070203023023734,-0.9358146653060108,-0.9459330017575607,-0.947636246803422,-0.9482568127144572,-0.9505426049259942,-0.9509097275597007,-0.9424404193160889,-0.900290097845181,-0.6888687209783336,0.22865024857069827,0.8154296839596017,0.936451906844103,0.9710659116501931,0.9830356344567693,0.9867283161635926,0.9869179797178318,0.9848914400102592,0.979337283938463,0.9640101355292962,0.9225552955840743,0.8225854552018781,0.6409681817350144,0.4230176553046058,0.22716322982566287,0.0505152488599367,-0.1388362837090739,-0.37964016998727096,-0.6547232231221898,-0.8501945464855739,-0.9322318321640015,-0.9619939853770417,-0.9741726653248106,-0.9726968904777265,-0.9481741931883446,-0.8925660397888039,-0.8116672207843366,-0.7288345337701788,-0.6718340949763407,-0.6503462693481634,-0.6582420781036871,-0.6772838959195168,-0.6902335306022894,-0.6900053468529572,-0.690455037935295,-0.7138590608689823,-0.7601327779331568,-0.8132586967526855,-0.8527469865615914,-0.8702501154832929,-0.8671654978219304,-0.8585722012104836,-0.8537865918527576,-0.8495101473641344,-0.8497474420175669,-0.8471297063659332,-0.7989793448654291,-0.6921327235031349,-0.5714933696033717,-0.48196949880938933,-0.45732116521578736,-0.5487988943133633,-0.8027947290504333,-0.5668470691510187,-0.34213218234986337,-0.2658289048094734,-0.2651685110438273,-0.3412904234095328,-0.5276566400687638,-0.7541668575569277,-0.7905484919995934,-0.6977635336086379,-0.4692166284629048,0.08928974692512079,0.6581349647768306,0.8675497476102945,0.9319571878255453,0.9559114373803721,0.9668351178117335,0.9716647163950983,0.9705170219211523,0.9566350881786049,0.903555860444535,0.7037455454515636,0.13052309418586747,-0.324902936743807,-0.40127096476821217,-0.3318288449255999,-0.23393631314989832,-0.1913621705477383,-0.2662845817155834,-0.440173192667386,-0.6081377722032014,-0.6955946678405589,-0.6992432748833494,-0.5911132847291309,-0.25367502022026456,0.23569700769213567,0.5161421876179861,0.6371109283702484,0.6887220275187106,0.6742022583767577,0.4159888277060012,-0.4451082942194383,-0.747280753767528,-0.828070040022335,-0.8595837350585721,-0.8582381079648104,-0.839835144365714,-0.8191291430019673,-0.8025437324637983,-0.7866075903845267,-0.7696033766248892,-0.7384809932577011,-0.6615032530875774,-0.47665526044912765,-0.18347514797586187,0.05399738339083223,0.12892310985178468,0.05546356160697383,-0.10871466330693211,-0.2588214759952216,-0.32172642777039895,-0.27546898938560443,-0.10021606158493516,0.17287237390849383,0.3994048687569272,0.5194593547355629,0.5617509186128451,0.5476145440406909,0.46259140187974424,0.2333898723391816,-0.21724861181911967,-0.6337699097169722,-0.8059511205398908,-0.8142416895570916,-0.7472647846275511,-0.6787470423510122,-0.6573380811198941,-0.709572352006371,-0.8015136091953075,-0.6276937198896515,-0.31778315838763554,-0.15020070010077902,-0.06210698773009882,0.007541358072867447,0.10591183681333927,0.27424892961357505,0.43943004230141486,0.5182629859275516,0.574345680070782,0.6212989759161459,0.6464801435212911,0.6337906192060913,0.5653283140712767,0.41797402494421004,0.21104986470609868,0.10771584304299003,0.2771476477029771,0.6208548862280873,0.8325595283121697,0.9123937555662813,0.9400771637235753,0.9469429700988544,0.9436163649820108,0.933412131624369,0.917824966978792,0.8854923971771654,0.726414149559114,0.3721570072382387,0.12614680030490352,0.011593160266246003,-0.056836298627807466,-0.12686864681741533,-0.21368685558135178,-0.298388103516717,-0.3571834692021953,-0.38516506118538196,-0.3893645732852898,-0.37917108172796854,-0.35774353290696753,-0.319582065758494,-0.25826855835455564,-0.1636534428681297,-0.004840151322295232,0.29796007554759607,0.7368796368644156,0.9396790196801611,0.9493966161961401,0.9310382026197581,0.915108689658761,0.8980410272135959,0.8677534109272849,0.7903590491215404,0.5493813727568582,-0.01760489252902117,-0.4764864060627344,-0.6428012781250136,-0.691209424010927,-0.703006848214343,-0.715569319464072,-0.7518500507028292,-0.8180623961401199,-0.9022383451836878,-0.9716558037364376,-0.9894577179145019,-0.9468783230670845,-0.8708147981936516,-0.7919873668397658,-0.7250065068449744,-0.6737233929602938,-0.6392106111003082,-0.6176491756499749,-0.6044898967338873,-0.5981112009801497,-0.5916328852020055,-0.5744795055233294,-0.542061239971362,-0.5092468127329779,-0.5018861649291256,-0.526355783008892,-0.5582972125873865,-0.5709919439034359,-0.5614310922187902,-0.5399961593361351,-0.525207522664097,-0.5434669413466875,-0.6105122745556204,-0.68397273082566,-0.6981893252035407,-0.7040692089992042,-0.7523270161416306,-0.8253238586533179,-0.8654320187670631,-0.8427420774815704,-0.7669199791638682,-0.6681687418325377,-0.570732539087602,-0.48404568911664225,-0.4142437557422891,-0.3925067834902798,-0.49694010697951035,-0.245960980544934,-0.13296314726737862,-0.1218830292905733,-0.13686484963020834,-0.16426113048516358,-0.20660205591675498,-0.27913606914152744,-0.3476772288021374,0.2178004312145462,0.48097693580878015,0.7317138520346959,0.9161398833008254,0.9787228137350678,0.9909775068636378,0.9937574448311981,0.9917301809160611,0.985262171353771,0.9746883653271923,0.9585912272765856,0.9311198367067142,0.8782813795452244,0.7693468203090319,0.535432693529158,0.1111620266605045,-0.29908508475236995,-0.41440924467862644,-0.25020288073408403,0.04021230880378981,0.2505925272781179,0.3376705862743517,0.3602735947120296,0.35666486956436294,0.3252181533500036,0.17006540245728596,-0.2826491104230056,-0.5417416238296902,-0.6133112064299386,-0.6186888146719862,-0.5578268366010183,-0.40001603372968675,-0.13588434840174327,0.15288898222398967,0.3697912775265564,0.506231272223282,0.58250132472006,0.6095254725229097,0.5833144161766067,0.4953765521118526,0.3581703302040735,0.22982921472719475,0.14777240287984006,0.09814754811050022,0.04655379569727189,-0.053329142113315915,-0.2879000128518636,-0.7079021321212352,-0.9231222952454124,-0.9021399715567721,-0.8569049705326921,-0.8052796403350628,-0.7294967442233979,-0.6086701390467847,-0.471794369056329,-0.4080647900170596,-0.44025180946774317,-0.529049844192408,-0.6203828982137037,-0.679006878956403,-0.6908788497897261,-0.6581987030385139,-0.594210137204765,-0.5230507999840531,-0.4612732440563201,-0.4016620194516132,-0.31469537724440694,-0.1994553944353886,-0.12511138450485446,-0.1891443736645439,-0.40985826600280173,-0.6654154858161644,-0.825752413017556,-0.9026620963544972,-0.9390683774310364,-0.9569690096361119,-0.9656050743675542,-0.968700317655912,-0.9660371833582934,-0.9480815816614772,-0.8267716471357458,0.6864837598964246,0.9749334660727038,0.9923642352201599,0.9944959094934887,0.9940850716370215,0.9929279173677119,0.9910222169866653,0.9872570607687287,0.9784543726839697,0.9553806360064485,0.8979602529518489,0.7925120039525232,0.6368607430986283,0.30889102824365544,-0.3049749828403537,-0.6887949416433007,-0.8109298107880343,-0.841606453380241,-0.8475084332519632,-0.8457135057998244,-0.835283555392026,-0.8111099468806231,-0.7686054478912628,-0.7013613178547918,-0.598974085232042,-0.47188061896793343,-0.35717154959707853,-0.3169063018567257,-0.38048622923595626,-0.510031767352239,-0.6136586290347136,-0.5995764140796023,-0.4838483464979264,-0.361079849887356,-0.2684078516234383,-0.21662980453333536,-0.24480535827126548,-0.4098011284057499,-0.675996195249094,-0.851757707750469,-0.9118196846390795,-0.9134879907118633,-0.8758536886176017,-0.7820005724089942,-0.5617885126866514,-0.10595593615651162,0.44480085903502437,0.7722127750502504,0.8990266115025615,0.9389392769586165,0.9412722014395779,0.907131733443156,0.7905368241060345,0.5690810460758864,0.3689627846525867,0.2685076338715961,0.2600079401422812,0.33617416086227087,0.44790420969425115,0.46807530203727665,0.477444108666628,0.5163781813605969,0.5800012028595163,0.6590588091858204,0.7392045181377824,0.8018524052993967,0.8135336036112136,0.7409725419728348,0.5862779201190705,0.3709552427108681,0.12111978734537647,-0.20539455048460292,-0.5281991629160913,-0.5296559196481713,-0.4592088994209551,-0.4316222392312138,-0.44855919020609436,-0.5034706822517648,-0.5749331475513368,-0.6250755947989929,-0.6257793825015874,-0.5365597770322383,-0.20504010074055035,0.5125433955813776,0.8771751499601713,0.9562656800069764,0.9753162677672585,0.9771556636272289,0.9613410630956808,0.8774532696414141,0.5488983243143353,0.07221962282686666,-0.20732543026511618,-0.39992793402783117,-0.618213994122357,-0.7323580558907729,-0.6501922752250667,-0.5429129551117379,-0.4606558246450609,-0.39742966565684484,-0.3461357198051483,-0.30314612739833513,-0.26751139171455157,-0.23962851637826035,-0.2195797088441733,-0.17705631724305376,-0.05840316525637247,0.1661700468125053,0.4554337003950835,0.6709449822649606,0.7312524682284358,0.6550126366749187,0.45175706455313885,0.14332483139447572,-0.14436212844965274,-0.3195631233125485,-0.4069984819317499,-0.43992735556958623,-0.4232300353586251,-0.3277839193201344,-0.10742611012943788,0.20577750239088663,0.4885675161878799,0.6762632739044003,0.7446230038003232,0.6384971324079313,0.4025489687244717,0.23875371937729567,0.21277458280223022,0.3041960955530524,0.46033058976499636,0.6051798809581204,0.6941314172749641,0.7258845153469053,0.7026043004172328,0.5983985590608444,0.3306810417245569,-0.13089405983333877,-0.5128299139272514,-0.7052309811175177,-0.805512383189079,-0.8714092187523478,-0.902849985710488,-0.8729003337686865,-0.7853175673677368,-0.6804984193098729,-0.5823438812913763,-0.4915517118393531,-0.4025186244145721,-0.30469592472498935,-0.1834646417932589,-0.028229709052583585,0.14747352443139383,0.3042809659052239,0.41119265211548356,0.47698789892505167,0.5234083262113471,0.5630051681065822,0.5953133858921469,0.621055630646266,0.6395831430203819,0.6460402054407907,0.6427181359334707,0.6392124556699719,0.6333637154735031,0.5950660500465565,0.45570885214466234,0.12849591686029307,-0.32178113266166286,-0.6264624297774289,-0.7615426722391876,-0.8153589395347265,-0.8396208946804007,-0.8569805627844511,-0.8763821861138943,-0.901958184834128,-0.9315464326299825,-0.9578357731980134,-0.9711341346988163,-0.9714749416499737,-0.9626298479361665,-0.9334314735169672,-0.8531187126553628,-0.7026666292652384,-0.5060125644380482,-0.29458210094807663,-0.06383205671881231,0.2258536978579284,0.6673595280341519,0.9653559858953122,0.6093283527572501,0.3735468644349262,0.2405483601271358,0.14849065108825496,0.06782325659178016,-0.0247520211596352,-0.16054522880755803,-0.32632566185122863,-0.3836345255313241,-0.28568579519425535,-0.14470915581926447,0.007380738335739425,0.17095622448441422,0.16396310824111537,0.1331150317369367,0.11434964032980964,0.09869989462636414,0.09149139931674437,0.16765607117132875,0.22311718274346304,0.21127174567909138,0.21363964439322614,0.2113392730471841,0.20963788879012885,0.24375218636906507,0.2961422599287341,0.2800976850899932,0.2705960824064078,0.280498214823807,0.30716928478214517,0.3610794997628653,0.4553107353289102,0.5783992202064286,0.6948534438069799,0.7817902962714808,0.8402875043166035,0.879240075019469,0.9066332002699683,0.9261049346376471,0.9364287736006163,0.9257890514860012,0.8540280554328153,0.6873007579512931,0.48902005656962216,0.30528030018857727,0.12450928251854759,-0.07708540831384984,-0.2861816371622074,-0.4407318181388681,-0.5083906348424564,-0.5122040791733412,-0.4879226716295978,-0.4566476271235182,-0.4237422239792083,-0.3799920640194052,-0.30450621108461035,-0.1739711671154751,0.0004659953960836187,0.17681047557895677,0.33052921662598705,0.47167353559123265,0.6223374686460483,0.7203032426622652,0.6387567992671963,0.5497866775335781,0.5224715914957793,0.5232595786754642,0.5079060045773344,0.4433691377601138,0.3479523357632326,0.27851187698645796,0.26967645884649,0.32708425617637477,0.44097042979965906,0.5837047613783586,0.6832034597505295,0.669601649273894,0.5443059700769769,0.37245190247189186,0.2078264555591154,0.04017027123629492,-0.1601137021436948,-0.38656699346758283,-0.584362907618836,-0.7248176372177935,-0.8168261619521247,-0.8728459986111337,-0.9080660834297494,-0.9394120550949168,-0.9734361551971452,-0.9672467514993237,-0.8176366520213899,-0.5500035299754742,-0.31575860581398607,-0.14081951444095744,0.029414174952227062,0.2950148400682176,0.7687951663535055,0.8838312535314007,0.7229234079659703,0.6238482419839058,0.5671946939234,0.5275833858941733,0.4805500096387168,0.3072739509876598,-0.03934227593785205,-0.2801134258010069,-0.45943639069207814,-0.6269359331592111,-0.7591502092660993,-0.8410674337537821,-0.8910394539182859,-0.9318406656532233,-0.9642670083626467,-0.9682388923339388,-0.9206887256913133,-0.8335757546659741,-0.7563596277765153,-0.7403817365958061,-0.7999252782858994,-0.885133157041825,-0.9427859973811726,-0.9701009307246643,-0.980821297193214,-0.9794628968068172,-0.9425940804818497,-0.3262460384337709,0.9100984144998668,0.9824670648601371,0.9923570230001988,0.9929496119955412,0.9913551294640547,0.9892857508518568,0.9874155590634134,0.9860666434495862,0.9803914654645471,0.9036227604710517,0.454290796140041,0.054182526376616136,-0.031527639631445975,-0.05927856415009259,-0.173911170803844,-0.4077668331582835,-0.6337051931950097,-0.7700374656273469,-0.8477176375780433,-0.8951044765209245,-0.9228875230104379,-0.9370606891070548,-0.942003544864115,-0.9408059087262222,-0.9294968001387026,-0.8873234595229715,-0.7160989774445907,-0.024767917703639137,0.6754039639758459,0.8702931740369064,0.930167001738697,0.9529839845730991,0.9600706819641769,0.9568907494167771,0.9447113822674651,0.8963833060492247,-0.01196376293164249,-0.5242073052988733,-0.47759809499454803,-0.3444351785686359,-0.20140888627603074,-0.11197270711109718,-0.14450649302194285,-0.378769145061909,-0.7350773689974571,-0.909018163938255,-0.942903978584949,-0.9443883587700844,-0.94251548047047,-0.9412434916319051,-0.9372627240469656,-0.917550260906839,-0.815091109231617,-0.12575305103461565,0.716446729454761,0.8676655000106042,0.8945796549350215,0.8849263489892941,0.8451616290139249,0.7470946478887731,0.49838074024915735,0.025253452302855476,-0.39117572789739435,-0.5905179668256768,-0.6666050132607981,-0.6867780373325358,-0.6781255280065924,-0.6576898068056872,-0.6379049127663426,-0.62405737703246,-0.6182243888501765,-0.6273152003280914,-0.6524981855631418,-0.6884677373441603,-0.7236699462566182,-0.7448185993261628,-0.7507972465646745,-0.7450434424122373,-0.719554383084164,-0.6575638141829737,-0.5317270795542788,-0.3258804638873684,-0.07962221030892325,0.11971121759166173,0.23577342877073076,0.27478943049021126,0.2632242581461524,0.2441096785785962,0.2638340514362807,0.33876316129482126,0.4424158008989986,0.5328329699866133,0.5897597951304665,0.6129124908710558,0.6014377276736428,0.5558220560265431,0.47814427815085264,0.3545776646967124,0.20683594204250524,0.10941027795743927,0.06270599043288172,0.03727365505322872,0.00884790001399816,-0.0573101118798919,-0.25197020584464414,-0.4853446658613611,-0.4608651311313032,-0.43214550489065534,-0.4100137151316496,-0.36456663685032414,-0.2998046718786562,-0.2434984403183275,-0.2035321439748593,-0.17254720003166982,-0.145104650175475,-0.12249035245683534,-0.05469426036696771,0.045623635193848176,0.06750582320824391,0.0981277303835986,0.17627764942715138,0.4450694228474604,0.8172527970264216,0.5299354966798412,0.46162301158444624,0.49888666762308476,0.6590823982485822,0.5724346589920541,0.23842158684405984,0.13274864730344085,0.12265812058485608,0.19240505482960493,0.3433263879419142,0.24933789941146298,0.08273490523111016,-0.061977066510746096,-0.19173174741403026,-0.28678953201748897,-0.3234174305563953,-0.29828239633910414,-0.22833720988136566,-0.12455029567326592,-0.0017923118099824537,0.10941442328870954,0.18690615263289673,0.2357069045992534,0.27457144266934735,0.3294438269695229,0.42796801921402733,0.5628208972245922,0.6020111159060025,0.5481675004693386,0.4981656240035021,0.4569235784281531,0.4204845963589364,0.39133011861338274,0.365768123859838,0.33774419641035597,0.29661538694861556,0.22782833056463717,0.11396703239529385,-0.05309116422701941,-0.24465707002125528,-0.3888262240129591,-0.41011738765820793,-0.16892199590512003,0.43707401455310996,0.6947712777850085,0.7664662622750802,0.8082112710976019,0.8481709716368082,0.8854560820868365,0.9174675319915322,0.9418015735364481,0.9547287846249686,0.9544141054709709,0.9396874541089347,0.9010697241853898,0.7960548773694024,0.47974328679074124,-0.03862947290645451,-0.25973554415176114,-0.2803931365790271,-0.3028996841673711,-0.408919726682414,-0.6092984363974377,-0.8031730742964488,-0.8778488510799456,-0.867185788665272,-0.8252504033446161,-0.7764282514252631,-0.7492703849598172,-0.7669868322530475,-0.8277504650385342,-0.9027725851346341,-0.9608873557905603,-0.9686786171622586,-0.8693730236192752,-0.6302551610925193,-0.3342684834313771,-0.08077346611214749,0.08108411850970346,0.11618489581641038,0.016166451286444818,-0.17723139344482886,-0.3959588268338612,-0.5746110576905633,-0.6924489206673029,-0.7596724633955009,-0.7934463449503577,-0.7938447952406508,-0.7166437709332968,-0.6204318244094826,-0.5510238050148054,-0.46795775597155875,-0.2824926797798392,0.14016958124124695,0.5988106560862805,0.7841712772082082,0.8303316818547783,0.8169830239543118,0.7228471399475814,0.3443251363520951,-0.2573911066697322,-0.47443475419475567,-0.5290018537048855,-0.5298707004466582,-0.49265292663561394,-0.40583556282696864,-0.251813681174578,-0.08845695419404412,0.01013345792053328,0.04744013634894968,0.049545129633537896,0.032278294236394126,-0.012727838194739272,-0.1023214727814355,-0.2364617673716434,-0.41812142649404826,-0.6168373345024794,-0.7195496404514373,-0.7120982509870565,-0.6710724238659482,-0.6270055999524775,-0.5755103275115413,-0.4883115730734372,-0.2880310623833888,0.10305814061565599,0.5045546752589553,0.7470750757899639,0.8763135543484133,0.9336824594883043,0.9137074298680415,0.7848526305495335,0.5277858888488536,0.21651423887099414,0.00486787051196293,0.005344538428731126,0.3298730947176081,0.7633610179989098,0.91175887251046,0.943535286337757,0.9540257796780303,0.9590637023457449,0.9577161325974406,0.9439032374361307,0.9022004738615581,0.7697359742739585,0.3294055304491672,-0.19727851097066984,-0.43127093453371307,-0.5726071309112504,-0.6980928834216706,-0.7940630483354251,-0.8426429101106988,-0.8557180052142596,-0.8500511942484281,-0.8025643122380863,-0.6723753343681284,-0.557708517732709,-0.5570473552599916,-0.6887792001092949,-0.8757052913034639,-0.8853024062263275,-0.7655647536838157,-0.6731340005791151,-0.6354520272584682,-0.6579105998975593,-0.7334766345138558,-0.8150404118894166,-0.8480930118561157,-0.8188947642414498,-0.6928966882827755,-0.2413273816441421,0.601743823113042,0.8942180685928691,0.957952652541445,0.9768003044706705,0.9829107870685849,0.9828366356765771,0.9757596218596101,0.9534448382367381,0.8959467116982025,0.786747834178102,0.6640216436025882,0.5820666829221914,0.5408623109541475,0.5037457970270651,0.43683858055421326,0.3140102552675541,0.12183243456346356,-0.14919385967713808,-0.4684974331045481,-0.7242042148834494,-0.8454688921693291,-0.8617222752951208,-0.8196199518492511,-0.7521885447829691,-0.6792773475210658,-0.6164831959805215,-0.5775931951739793,-0.577363944272678,-0.6646735402679043,-0.7647680267423066,-0.30798682301603175,-0.16729491562868448,-0.1614650118006529,-0.20878194849536738,-0.2794174903476439,-0.350208223878056,-0.39681893432911314,-0.38888157564254344,-0.28986058737766546,-0.00783678421551334,0.5084366943459008,0.8423295467396951,0.9344470908050407,0.958072580186406,0.9659472163978439,0.9696631215202723,0.8960273274720474,0.31276679626769965,-0.2658741060574381,-0.49721413570819195,-0.6308320826099219,-0.5865011401569274,-0.18514286715581718,0.0715997044230595,0.23415432682195209,0.44823122332031157,0.887271437762398,0.394879113482696,0.17685446045061268,0.1000272042245093,0.06351668981123294,0.017620321161474738,-0.14141064628896377,-0.5041047235443488,-0.7107369922664694,-0.8122024978120503,-0.8745920677373956,-0.9092563877211414,-0.9260720493900438,-0.9252057151425894,-0.8980244734355205,-0.8457046832398758,-0.7926904671058923,-0.7633302811762583,-0.7609116673243108,-0.7716400358781225,-0.7745969271125219,-0.7331424824139874,-0.5578823233893629,-0.15421822411993616,0.20995872405834085,0.38791203316172307
