0.09082103645085003,0.0010916284595367915,-0.13347153860884248,-0.29025134771155997,-0.41938265230813426,-0.4819570988899269,-0.4874795229841872,-0.4666123684056655,-0.41817071094163905,-0.34266004505201536,-0.2666622035738225,-0.2107740475495539,-0.1745725998474478,-0.1505917769187036,-0.13077636715853433,-0.11897092384088716,-0.11651778681780077,-0.12318585990526415,-0.1330532449182288,-0.13153829790080956,-0.10806714268978064,-0.06592615383473226,-0.02144608000269892,0.002917621122856277,0.0009500572618929491,-0.016048789149952954,-0.02451751873193978,-0.013651259862370039,0.01139728295508884,0.051603626360028965,0.10632969613297756,0.16742054128787895,0.22002801568630279,0.253563266701382,0.2703680553226585,0.27914550465050303,0.2883938385035339,0.29984629022685794,0.31076036900336823,0.3217397148492041,0.3377887094723528,0.36003303757958494,0.375095138912309,0.362196468529717,0.3181900156724997,0.2540719117260279,0.1922097168458061,0.17572291282999639,0.22143393284976207,0.3028949115126093,0.36048089629799707,0.3458048933149049,0.2744041751409899,0.17704773177385463,0.07436570363837403,-0.01892669270088864,-0.06911665445685748,-0.04816846528104232,0.07477471983369273,0.2700482102173565,0.408843989022853,0.45933773131469285,0.46081647165483186,0.442305254027989,0.41238737128085107,0.3711340002343881,0.3225644832654833,0.2711775793789954,0.2208809134692575,0.1769411410638053,0.1369838232121189,0.09498896719153052,0.04445182999422093,-0.011350456444388094,-0.05960620129996484,-0.08485484549020067,-0.07593881665738214,-0.03728812325537154,0.015036423722667624,0.06893103064123919,0.1141214818309829,0.13964542555583281,0.13990429649914296,0.1177872502153436,0.08938670162760162,0.07894014430937933,0.10513837978325682,0.1716101094257709,0.2621181056588953,0.35784034589329344,0.4419733939260889,0.5012384461064565,0.5282036468337873,0.5234752975577806,0.4799361453913906,0.39423893827141226,0.28444769937416414,0.20244496249674274,0.18361831892520586,0.21465888270766573,0.26080861694065127,0.2978321207064903,0.3168899729357142,0.312031392942878,0.2732003647057394,0.18824127246400518,0.05481953217709819,-0.09870338389327914,-0.22318749913080163,-0.2937211292923604,-0.3190736912244489,-0.32289565181040436,-0.3289274477709932,-0.3790357543082668,-0.5156968788880948,-0.7023392489371968,-0.8409350442670331,-0.9048397000699666,-0.9175862067937677,-0.8961436459929706,-0.8492275828670419,-0.787381352742404,-0.7231821477189136,-0.6641341699439495,-0.6085249134165827,-0.5495938416519678,-0.46963331752902604,-0.32919406422388625,-0.060140451175693214,0.350329231590874,0.6918881488577582,0.8530819628206946,0.913416884521055,0.9223307741675844,0.8734381793922068,0.7500883939122585,0.5948595052384875,0.45845439864412124,0.3544984605060213,0.2909859740647809,0.2676765319131301,0.26350620049521345,0.2652274673368887,0.26407062669739567,0.25587556678806933,0.237477101091339,0.20329628861160162,0.15882538898767745,0.10044422523241413,0.006223665938455127,-0.15384642805540932,-0.36488471943503764,-0.5787790228164285,-0.7373608654251156,-0.832256231671879,-0.8836062132477626,-0.9016679078654344,-0.8263241990744609,-0.24859613102899808,0.4520771745674285,0.7259844734863837,0.8395349487339705,0.8918716561389266,0.9186965137975264,0.9332630251282326,0.9388619655914603,0.9345720026354105,0.9154592290134478,0.8604283765667234,0.6894783358447749,0.21712568507735328,-0.32329169989079565,-0.5496427781552711,-0.6165275324948075,-0.6305961170649454,-0.6221231935740181,-0.5614459616084879,-0.3211623729295576,0.26656420667584524,0.6995184548576167,0.8568962274107481,0.9264907359539446,0.9624773936287577,0.977153930358733,0.9709288962990332,0.9275615270864833,0.8058931769853828,0.5594588166295128,0.2008884520188478,-0.17309265696441553,-0.49340727879625407,-0.7351490921335193,-0.8462055440965469,-0.8502893720364382,-0.8450124529177775,-0.8571498112862909,-0.8708689597424626,-0.8761482711500238,-0.8754546028450445,-0.8749027530690119,-0.8764769404013641,-0.87636613616305,-0.8712283596756916,-0.8628219552407259,-0.856415406001656,-0.8562447610988383,-0.8602081141478604,-0.8621102056354859,-0.8554207249094716,-0.8311513453558557,-0.7798480041644995,-0.68970909927761,-0.5672463523801761,-0.4401634434546682,-0.35410894333421034,-0.3307350289668385,-0.3651686863844263,-0.4109922012381006,-0.4094363354323246,-0.31895767068013725,-0.1335590931885871,0.06297751638569943,0.165796015366676,0.14637568453090263,0.04267577613797602,-0.07918030903511927,-0.1765584118910081,-0.2479842407503973,-0.29904733273137796,-0.3348809282050996,-0.35109786505736684,-0.3430231949952493,-0.31444251892000435,-0.27200252370245503,-0.22210702146901637,-0.1641206566660685,-0.10343463835342927,-0.04736719443399352,-0.007273320135223646,0.009895481437883822,-8.167046668642256e-05,-0.029824741309650633,-0.05914964140701563,-0.06144867337587399,-0.026385707800569667,0.03117493164765125,0.08266727064763776,0.11710025661347616,0.1435677787224144,0.15548736159434456,0.14307677230732677,0.1550255847600871,0.2019189938437449,0.28192747994248957,0.361412675594568,0.4137798884207576,0.44805783634590746,0.4709305090889811,0.48268300218051363,0.4802407437826177,0.459569223399372,0.41914799484303605,0.3609758069204559,0.29256473593789883,0.23308376990580099,0.1965288265067804,0.18818529623840308,0.21534343699733988,0.28950660130958056,0.41278068630129194,0.49948175686197716,0.44676968644525167,0.36148603155323883,0.3006965493137915,0.2621603805999923,0.23775126820857848,0.221823883157297,0.2169873809795949,0.23319944442385002,0.271878054644962,0.3131661056991106,0.340363200343529,0.3468700674470473,0.330178644627742,0.29564796503639534,0.24822461268727633,0.2015502185958732,0.1699777455105538,0.17046414856855763,0.2083293879957868,0.29179719616691424,0.4001191159959065,0.4521974858026011,0.38124973727064365,0.2336450218624051,0.0716950317089834,-0.07378828213720437,-0.17023031385099502,-0.19261133446928777,-0.17048406501398447,-0.14031211997366444,-0.10632958138543591,-0.06521274991910739,-0.01624455352933452,0.033511177402286874,0.06732433120641523,0.06797442919489938,0.03200988980564332,-0.02727169776989392,-0.09971602257801214,-0.1761635754849255,-0.2452434547729456,-0.30535569387568645,-0.3614416903948292,-0.416572840103016,-0.4605706691801665,-0.4555734443967126,-0.2958412181094938,0.12794816235944123,0.4338324208340353,0.5162820942246036,0.5064175422923916,0.45863154564084857,0.40077995714256387,0.3551404657131102,0.34039266704874954,0.3536616549050791,0.3631669676446742,0.3205153625443932,0.19811558525196274,0.012918779383659647,-0.15516354881516994,-0.2361128604068535,-0.21837619542102632,-0.12409244974607817,0.014037455505150195,0.16726483530784955,0.3221221208298913,0.46891245024587774,0.6030247860931576,0.7132001008183364,0.7909906254171656,0.8349307653208515,0.8503435091937015,0.8388853290170464,0.7926983574953207,0.6837174004377775,0.4590486579290842,0.06239033076859135,-0.370274212983156,-0.5053726329155305,-0.49017944101087946,-0.4882588429278626,-0.5329416780177278,-0.6137721651143171,-0.6889847501437312,-0.7257420003385608,-0.7267254835640937,-0.7129783954746631,-0.7067272901803839,-0.7213637974102055,-0.7576059856154853,-0.7844429229635599,-0.700243588730823,-0.24900207562733256,0.4961944405793556,0.8265300259235786,0.9197588638161104,0.9455887296912158,0.9450349888999723,0.9175942041753216,0.8137348311630311,0.38697173824104186,-0.41007179230193586,-0.7377364180254026,-0.8288131004054518,-0.852453365244346,-0.8438719564844236,-0.8128620712949118,-0.7745589572543197,-0.7513913588465341,-0.7575414044564083,-0.7793800116003424,-0.7968869003364792,-0.8016484955281739,-0.7882677406225707,-0.7274702278144342,-0.43435736750306964,0.5786846529155792,0.9257119235279524,0.9734104401384234,0.9847320065694632,0.988915480339008,0.9908198220695765,0.9909681819838667,0.9866201989202903,0.9613310667597336,0.7794116695215437,-0.16794973250934772,-0.6639147923768689,-0.752727972896212,-0.7444588051870006,-0.6854539479949012,-0.5811801626704288,-0.4504911047393787,-0.3258819552055253,-0.21851476480998064,-0.11772568505652746,-0.01586429768737264,0.08514574296953285,0.17468016274672596,0.2191397771114076,0.1678366838570782,0.010804919040832297,-0.18241725603709985,-0.3466104786006015,-0.45928421608349046,-0.5194646609534698,-0.5469743252556348,-0.5718060904504775,-0.6122682904646038,-0.6386771244255627,-0.5904306154525515,-0.5011129757574133,-0.41295693172173753,-0.315488164659401,-0.1753711402656745,0.049117805759682165,0.3391593408574948,0.5690593051608195,0.6441405787919109,0.52320931913999,0.1611751372633346,-0.2426778482384925,-0.4765638064717593,-0.5713546146189574,-0.5574871686128656,-0.46261890062827044,-0.3497282222244788,-0.25628709123466864,-0.1772202825413362,-0.09466728118956745,-0.005023210793936726,0.08281790369413237,0.16182994662446343,0.22597988685801512,0.2683810544069324,0.28198166793693313,0.2619817236085552,0.21354393916922867,0.15252646001246017,0.09957620504107036,0.07101038671245487,0.07127306230806443,0.09193244984517872,0.12096395333454821,0.14972479076701567,0.16718526764820446,0.16531087912627274,0.14187575956651427,0.09950538753822909,0.041655125186663554,-0.025788886843139087,-0.08983102248440168,-0.12631540457968676,-0.1130091839447895,-0.04355231342690343,0.06706104910645912,0.17474626404674903,0.14678651888637445,0.007004602473717082,-0.08461440749972761,-0.13354189894138574,-0.1571921462783803,-0.16607988110783703,-0.16998729677426674,-0.16933734070815964,-0.16132402055183023,-0.14622130119578594,-0.12467759715588954,-0.09812386919261246,-0.0678665633536215,-0.03618334680864839,-0.007922573129805056,0.012166429736645067,0.021259212526710817,0.02102882327561743,0.015308603892780562,0.011617451775824923,0.015028637352849754,0.029833822845554588,0.06009119649752571,0.10219682683811307,0.14260745513412623,0.16698495471360308,0.16956574193403615,0.1548689318943798,0.13161760022984548,0.10705584558977133,0.08854612871015709,0.07804964053929236,0.07009636813620936,0.06747038577960134,0.08952949264852994,0.1561813788196451,0.2705346301287118,0.39630272874713496,0.4785889548501151,0.48506349073690413,0.4054611085894325,0.2693960229992976,0.15429132398636694,0.11948804516728155,0.17510781530687922,0.3104799167078601,0.4688293910461965,0.5857696071256248,0.639215134474568,0.650855594611323,0.648780415241422,0.6454222883698073,0.6374344934253741,0.6105698931518835,0.5576551749403831,0.4789913566185834,0.38844014265388893,0.3142086501495511,0.27329860400016265,0.25008753889095403,0.2084413670697775,0.1290129198998987,0.03954627330714046,-0.04748755405876034,-0.13115695353353063,-0.1941954508883549,-0.2018810588761084,-0.18110083410070074,-0.16240205674960254,-0.136489119822025,-0.07649592604625337,0.021323744943746545,0.12786198263023243,0.20131882257732858,0.20009064423117479,0.11625277299373879,-0.009285250094773463,-0.13317548951910346,-0.23607023267861224,-0.3188082548983901,-0.3753846982835998,-0.34321275574943283,-0.20296106232358055,-0.0765953195960209,0.012147520321890272,0.0906298672727778,0.1905818526990585,0.31888648169495254,0.33274920932093116,0.26689485557365106,0.23302263514817315,0.21673428412757653,0.18977964401023473,0.12584365636049882,0.027734088999088555,-0.040434034528315545,-0.03287090183712334,0.04194188643004008,0.14644851035062584,0.23474513781076647,0.2774231402623285,0.2691119576111551,0.23176911342514192,0.1893902876080749,0.16123537773606733,0.16016611894809124,0.16878843755460324,0.15698982992710392,0.09194530013983179,-0.060189431197332666,-0.2854067995948632,-0.48194645447897144,-0.5849189254897161,-0.6027064671176953,-0.546138504449656,-0.42551096734356,-0.27357617781453286,-0.1674477134356875,-0.2002951319112097,-0.36068477347565797,-0.4969092678121845,-0.5241372732685009,-0.39623606032390596,0.05464032580231513,0.6103190679965366,0.8023876124504339,0.8604261873724344,0.8870668328722251,0.9017141361341036,0.911431379518151,0.9149085293648316,0.8747724585316002,0.7066752548941627,0.40512168822922334,0.09880010415722768,-0.16433587723166568,-0.44130986698771574,-0.7230199117444209,-0.6180712967698508,-0.44141184256342003,-0.36668837122801734,-0.34525148252492266,-0.2983665207304327,-0.1492751096450956,0.01631881394508096,0.14874948487747577,0.23870542744130202,0.2452501927149154,0.13249394706113204,-0.0716771530889195,-0.2810987150848558,-0.4148004488842565,-0.45792949138901096,-0.4426398768214366,-0.3971879169694267,-0.34101321118399786,-0.29150160367352057,-0.26607838090217334,-0.2686277046952561,-0.27609691227282046,-0.2569995231520783,-0.21431713415448586,-0.17224017430343805,-0.13360574173475046,-0.09386271546824795,-0.05524497600465259,-0.021109939847283547,-0.001793560745991335,-0.013705760423339364,-0.06893354916815932,-0.16709690063748048,-0.2804070088916333,-0.38536266259998514,-0.47769428355101345,-0.5567462025146194,-0.6010834080550223,-0.5825447737821758,-0.5364798633704345,-0.4980082339349015,-0.46384606918885496,-0.4257840582258939,-0.3789860131022969,-0.32344699113799974,-0.2672920816529676,-0.21729227316777028,-0.1750394120148265,-0.1364647888418357,-0.09291911443971394,-0.033550542797070516,0.048624269497877244,0.14317746716784394,0.22743284638572342,0.2861008043124444,0.3184404000926819,0.3267937413334375,0.31902613016551146,0.31351928325636874,0.3356302744074734,0.4052433720649423,0.5223768260792764,0.6600551007497172,0.7891560080606544,0.8781207862523385,0.9152836087070465,0.9147195000963256,0.892907640561775,0.8583807426154516,0.8139181351062416,0.7573065219439273,0.6851818063642666,0.5951734141615628,0.4869644358539229,0.35544027336657663,0.200165760675891,0.035359185101754474,-0.11417005923968375,-0.23685526368947515,-0.3352306593369359,-0.4206743025193747,-0.5019862247140082,-0.5800907754150121,-0.6462678141669987,-0.6971131841301424,-0.7351233294763836,-0.7603803195988511,-0.7650827765006013,-0.7432890748274092,-0.7008335634590752,-0.6368192654784068,-0.5346200638870032,-0.35274113431259024,-0.04375789425898,0.3132412834436789,0.5431197460728165,0.6278359337061769,0.6155191732622469,0.5240963225399771,0.35530273499826925,0.13821010187922603,-0.05110495249286135,-0.17088300027999573,-0.25193073163367535,-0.31845506982526167,-0.37518222110981214,-0.41622212764518346,-0.4330070148216598,-0.4147120868041475,-0.3529252131375437,-0.26647928805530247,-0.19723295652994394,-0.14798921511921043,-0.08564813499552407,-0.006564371630738027,0.0564197016988503,0.06954460479971439,0.0268039120648507,-0.06015590257253686,-0.16267873143695805,-0.2575838608275878,-0.34255434437578963,-0.40556635915730177,-0.4259637547937587,-0.39382783604233024,-0.30611841951276,-0.20305128776720485,-0.15137974881733,-0.19685189638327283,-0.32536525163121793,-0.4935308619222473,-0.6377946261707911,-0.71304423822378,-0.7226441901287378,-0.7007682034868399,-0.6660185140598958,-0.6285097173709405,-0.5862343528680115,-0.5069521203242584,-0.2861550408059085,0.2533836054819711,0.7234323822857126,0.8914115264228523,0.950698414455385,0.975482583481207,0.9859604123436555,0.989051446211738,0.9875681759012748,0.9819950749621648,0.9695273230136808,0.939370369596034,0.8421561297207325,0.47533472403307586,-0.16625054902341377,-0.48272079629983583,-0.5764437380820987,-0.592471498928391,-0.5654113901413332,-0.5203132267130772,-0.4857175815497896,-0.4916125257815172,-0.5428053157500182,-0.6151923390473708,-0.6799255114886021,-0.714363981744085,-0.7255680240877964,-0.7289102435859317,-0.7333181148852828,-0.7407144897456086,-0.7527744900462774,-0.7693579291644352,-0.7862205241645868,-0.7989025978162485,-0.8130725623071116,-0.825545923695186,-0.8298676816726123,-0.8287138325320557,-0.8290448900968754,-0.8243217706863107,-0.8079550621483922,-0.7748934156714377,-0.7369223737485494,-0.7116531673581924,-0.7174053216553328,-0.7527720660244186,-0.7978900852553501,-0.836425386860417,-0.855363880982001,-0.8459144880327681,-0.8071962397911242,-0.7395672573444536,-0.6465328933286512,-0.5530766224673865,-0.4818108473878116,-0.44050958716131544,-0.425907620290222,-0.4331890241368735,-0.45887459626737603,-0.49826052794460374,-0.5458538256996119,-0.5943542394749113,-0.640376990652155,-0.6743237439860033,-0.6690031909010667,-0.5813170503238217,-0.3365587426253483,0.09726757076145573,0.38544824977803505,0.41647496637954334,0.3384992723819518,0.21159529196490842,0.0613931543740453,-0.10260415567575476,-0.25439871456977353,-0.37357197683703736,-0.4762958117210531,-0.5683564099936772,-0.6398677745945858,-0.675369738885029,-0.6556979821818584,-0.5376632195185722,-0.25910170996477183,0.12633345243098787,0.4238292300202043,0.6000046705387155,0.7071151963791058,0.7773281004018855,0.8250924195577867,0.8573877889413628,0.876917678545648,0.8848677247553511,0.8823125434255791,0.8698897119645562,0.8436153978517169,0.7894159166097336,0.6856967880170527,0.5368377832452665,0.39478916361853655,0.3198456814933348,0.3311435889407354,0.3842383051240552,0.3403644374107758,0.20055470272562995,0.053761222838376505,-0.08835378918547457,-0.23660059682121254,-0.3955152958106799,-0.5422350571901048,-0.6066626249973158,-0.5617956312900567,-0.4781974999094145,-0.4130662204634038,-0.37546612582404204,-0.35156658602445273,-0.3303061490029951,-0.3068425429748134,-0.28330973878973364,-0.2636305094903917,-0.24923135713412603,-0.23625591655666608,-0.2186809483758932,-0.18859616174563468,-0.1405097847976253,-0.06925744108517372,0.03195503523431283,0.16417187095392927,0.31617602376322074,0.4624320586197174,0.578976688425765,0.6640385476401316,0.7267116837185738,0.7752371650881861,0.7950641397595168,0.6777772002533162,0.2913155777488997,-0.033015516828026094,-0.17145140680170307,-0.2094794666935478,-0.19288406595198024,-0.14837207625011564,-0.09964979268842589,-0.06788628431639936,-0.06929660931549865,-0.10539293738543881,-0.1637095082642646,-0.21868756730144867,-0.23924722761723033,-0.20382333384185755,-0.10543218005330403,0.02814593769544839,0.1379235562629958,0.1854412364688516,0.16864002651960647,0.09266663201054484,-0.033386549466957106,-0.18495978964119403,-0.3189630049140739,-0.4140719596219405,-0.4727059454286428,-0.5044882678308305,-0.5008864534310655,-0.38837614123700903,-0.030645642846944276,0.16352285181014622,0.18020502625372753,0.15443027640717785,0.1696694604306641,0.23906511718654377,0.28333212867139007,0.2836138312952054,0.2536219104576765,0.1987092888022982,0.13181802417873767,0.05953794415375193,-0.018435038247736225,-0.09974148470613277,-0.1806931915570854,-0.2487421075663412,-0.28602322569499194,-0.2876159686576518,-0.2646876255329043,-0.23497526525796422,-0.2154039802264573,-0.21724000989724157,-0.23554879691078248,-0.23758733434507495,-0.2115878279913707,-0.18831009146603875,-0.18470196608364164,-0.20740605096208664,-0.2605199463638609,-0.34209538026408154,-0.4181629780073042,-0.4263362265428391,-0.3045396400922334,-0.047656160027309824,0.21473763887056432,0.36166961575351303,0.3838505376335806,0.28743736922194785,0.0910557261799695,-0.11757857459655847,-0.2677236763471717,-0.35558419185150075,-0.3973828592614925,-0.41984591046649083,-0.4412052524241286,-0.4650095788477103,-0.4882255735096346,-0.4926772802035111,-0.4622708114108075,-0.37094639404727026,-0.19805147892619498,0.026688870568614097,0.19192858785804803,0.25684872843852347,0.25921360366532753,0.2384885191573934,0.23194363119880163,0.2524399128187956,0.28073514866817306,0.2997406621945033,0.30143932114699573,0.2881437846729737,0.2682765720018737,0.2473100761577013,0.23433575302854023,0.23378876769414664,0.23436556958134422,0.23064261134625516,0.22183200627889652,0.20818515265644869,0.18930041111534338,0.16983499167807867,0.1552051231075867,0.14653620363702038,0.14786850162073475,0.1639650272447425,0.19257687904320195,0.23112255557627534,0.2776262651629772,0.33047231210185296,0.38994203596746385,0.4495156180448638,0.49502884052696977,0.522297831955852,0.5305180878034771,0.5180263512072435,0.4812108030290953,0.4267566338060659,0.3778397621323714,0.36118045180674363,0.3821266589659411,0.420483366544185,0.4384533718545218,0.4055942042859045,0.2953373848026012,0.1277722565272123,-0.027008554896330392,-0.11806809102529355,-0.14885474322008063,-0.13931054285122182,-0.12341172874965428,-0.10961219079037403,-0.08922755122067502,-0.05594483670710135,-0.021739022903462198,-0.02884566292178061,-0.11041719025218881,-0.2383621765587812,-0.3258156851562962,-0.3027551686252151,-0.13373663770802488,0.04806562205094712,0.10895786917750612,0.09389735748909456,0.04497347846463086,-0.03899634273190349,-0.2226333645594815,-0.5357396296965015,-0.4837448073059261,-0.38797794719020195,-0.34221864749129466,-0.3255887238883846,-0.32433311982598145,-0.31987263913757946,-0.27822180454708684,-0.17075370028002956,-0.018631839892024927,0.12336632138198884,0.24103380524863555,0.33743697054672406,0.3835611316804914,0.31400548404262724,0.11803848046551413,-0.07272823616044781,-0.24486520058935948,-0.4370931070527387,-0.6404986431034514,-0.7819855630932216,-0.8289073980812668,-0.800424991473942,-0.719416919786038,-0.5884944095853446,-0.32380125008807153,0.3272963320704699,0.823012523943631,0.9123465518365623,0.9119945131759741,0.8860964889902756,0.8612694078957552,0.8536170095653974,0.8622372778611307,0.8696704083245791,0.8252459167512551,0.6273221217283577,0.21988704761394975,-0.22690538548978137,-0.5089612335343551,-0.6119710710987786,-0.6940548760912549,-0.7854724962456696,-0.8111885621907253,-0.7650700884098253,-0.6998138147356207,-0.6099033543275785,-0.3732259406963637,0.2925780845435156,0.7668627453307858,0.8958580077232471,0.9405289937883433,0.9598850946110216,0.967735865239655,0.968514266866611,0.9593178103622122,0.9236245170307789,0.8028128190344769,0.4437633659497764,-0.13387995751103232,-0.5032784364863954,-0.6742201046959588,-0.7598451188347174,-0.7987418808085851,-0.803032862564657,-0.7791116958332307,-0.7265395058300559,-0.6302301365798589,-0.45848362734286907,-0.19506206476200172,0.07148597352563629,0.23048858083566856,0.27255415511341236,0.21729055052353083,0.09046586776573036,-0.03730653883153972,-0.07269283588035907,-0.03554066439747476,0.00437878409579736,0.008419829595459788,-0.05341879097523639,-0.22763900631889794,-0.5424409296097936,-0.8302308131702132,-0.9276417245026283,-0.9341348432680816,-0.9254989205556481,-0.9175197213873817,-0.9089141935085325,-0.893589319121395,-0.8688676502155457,-0.8386726789629532,-0.8072636344341798,-0.7799662087702731,-0.7571821649913619,-0.7450546209743261,-0.7420211019287947,-0.7253791827696541,-0.6261895614107263,-0.38575734149352914,-0.14361436048439052,-0.01066542530474532,0.026160951078319294,-0.014412729097649978,-0.11576226865601989,-0.21111979319667884,-0.24329384927570222,-0.21963952849860777,-0.15369895237201506,-0.06294622501973432,0.020186038890745,0.09925949050789333,0.19163668454400445,0.2768391001276347,0.2940783945683764,0.23369289419634082,0.14970422868109734,0.07122000759007356,0.011653511549814878,-0.013861725443926245,0.017956068818613457,0.10746616628485907,0.17698778791458686,0.18342219577012941,0.14844087444665516,0.0968156487137265,0.05671608030572244,0.06066001657764347,0.12989986882643384,0.24683371332623336,0.3654773014796289,0.4448397309215786,0.4573999715867144,0.3908985774665256,0.25877720276349575,0.10870404430792686,-0.011186470461113925,-0.08697580907914722,-0.12467005586350326,-0.13050882319450532,-0.10773807212665436,-0.057347777235168526,0.018195764431672198,0.10875861042702596,0.19762928318497014,0.26647494954166934,0.3056174521935476,0.3178582628169778,0.3132076263694163,0.2968246038560745,0.2651943052403736,0.210986178368666,0.12039698995274992,-0.01559314768204988,-0.17485734334080075,-0.31756021447856364,-0.3407953843520063,-0.19611494890381742,-0.08048433187942662,-0.02901220919476111,-0.01278738514414005,-0.010561742569501568,-0.011403605810904818,-0.012473842515499475,-0.01710782260573221,-0.027997072604508937,-0.04447457756429633,-0.06396012349671565,-0.08139058359645414,-0.09223229508866916,-0.09665408761270115,-0.09237868615970159,-0.07780793082062207,-0.05467810866521151,-0.027051750298786707,0.0040374268474508155,0.03878376645307041,0.07361719179369874,0.10109356729260129,0.11699365957966913,0.11518587715342543,0.09768062625660824,0.07450657846990177,0.05121482121415587,0.022055585747886908,-0.01814955616047559,-0.05673595131478898,-0.07034451833692022,-0.044599074375074786,0.026513825346191393,0.1404580048838881,0.27040572182335637,0.3735195808621272,0.4358286713903205,0.4732819997996367,0.4945356153223696,0.4939223546566969,0.4587675649185509,0.3692089617489607,0.21950722952930973,0.03893325156297958,-0.13509347670661045,-0.27461944108623115,-0.35840525082710967,-0.3827307660832727,-0.3279949313758743,-0.17031783646376997,0.04095415553294136,0.2062202599592873,0.2871402067419081,0.29911793455762115,0.24878890074054424,0.14282612982864856,0.004901422543313627,-0.12110855704894598,-0.21264334895006257,-0.2668210253691501,-0.30026670892349755,-0.32335282363953183,-0.3362549933990134,-0.338818198484193,-0.3343444346935173,-0.3034088058133661,-0.23660752964001766,-0.15025463479132173,-0.08552917025724632,-0.07369048999144082,-0.10908222255486053,-0.15495920928623444,-0.18020490244990164,-0.16838010470814357,-0.11622084400922503,-0.03471638999301072,0.05850878827597782,0.14761234628902892,0.2159278069909993,0.25363351063788603,0.2513641776998531,0.21140776109365322,0.15114337240809161,0.09822913115872704,0.06973729829583585,0.06361042441793763,0.06516526046128174,0.05727679017859911,0.035346048588683114,0.0010900658666671242,-0.04634574023352844,-0.1291132929220034,-0.2784086466144795,-0.34316159990177286,-0.2962113123653844,-0.26408157849745784,-0.25105958302526654,-0.2439783048640686,-0.2268917572169271,-0.17900763192551872,-0.09120001437877376,0.0130239907479587,0.10784027319044602,0.1899128613021772,0.2632006412440381,0.3264616762559813,0.3786082647545672,0.4267699956286499,0.44740545723314334,0.2926462052723985,0.14444935024576497,0.08597100322471458,0.06477376983103664,0.05890055690957417,0.06292790719537328,0.07641358066751437,0.09980707138320309,0.134518383500269,0.18412575582179588,0.2549490389135787,0.3540506015692782,0.4575505394330577,0.5032069029825316,0.49066538535494525,0.45268555647388425,0.3784727478401057,0.227937845168887,0.003548626165647415,-0.2368192632725205,-0.4150504282630658,-0.5096911109608249,-0.5371479400519844,-0.4970470515451339,-0.3738385680601199,-0.16213376186539968,0.06421245380346227,0.22585072572779685,0.2860579068587693,0.24912453469772075,0.11926768605904696,-0.06952639194526655,-0.2415170256430952,-0.354870339537975,-0.42138383696504705,-0.464448690234558,-0.4884473297295602,-0.5061205280059833,-0.5311741540909012,-0.5562286287276038,-0.5744958314968223,-0.5874585001686132,-0.6004272971517235,-0.6203997638061094,-0.6477828055334235,-0.6782770881339274,-0.7050779950351591,-0.7250873109996804,-0.7411627398266454,-0.7493447512988323,-0.7431811418660296,-0.7180067640242168,-0.6662354397961359,-0.5562665322201163,-0.2946711069414911,0.20466009591469292,0.6507792195867562,0.8444941230494374,0.9129717305865591,0.9359927609353305,0.9411115609303842,0.9343686116929227,0.9076524890249051,0.8338387515495775,0.6600727108593382,0.3888735454054025,0.15732637617732212,0.03967686114560575,0.00791931364194383,0.02949721107840231,0.09062899197506749,0.17210751136092894,0.21483148045350792,0.17521222918289708,0.0354752301358337,-0.09702450038788758,-0.049520517902690256,0.15207417866848974,0.4053835804763815,0.6031743519908613,0.7229443207673979,0.779801978642172,0.7901238653348922,0.75143316029805,0.6481648005453897,0.4641285076931975,0.12879661246258808,-0.44422650078370085,-0.6219598845573985,-0.6491795588218053,-0.7046242902666171,-0.7676456746459102,-0.8030344609687398,-0.8066729684251803,-0.7948501175978532,-0.7846622554484334,-0.784416630300697,-0.794947140961819,-0.8113917755142662,-0.8255096240992454,-0.8226515146520218,-0.7623052648310975,-0.43355202866188586,0.5315190470740139,0.8921279664057267,0.9531333058543398,0.9646436033328253,0.9629246273369365,0.9548985395922177,0.9412484541730112,0.9200284305924555,0.8867856633797435,0.8345024650259381,0.7615831719444573,0.6842677270935105,0.6306718105767407,0.60741621371111,0.5919993894143796,0.5589118846043873,0.4868834064248624,0.35182478292446856,0.12570558981907456,-0.1769568960577433,-0.4660180591870388,-0.6630356863123599,-0.7706467763002272,-0.8218421565036206,-0.8415518513829942,-0.840833477240307,-0.8210106968407254,-0.7881572474061613,-0.7661890870611541,-0.7728104187351458,-0.7902366242665768,-0.7871323444084685,-0.757491701599352,-0.7216778682648771,-0.6965340678446001,-0.6869843519154061,-0.6881867080251793,-0.6975134451990871,-0.7181444298420564,-0.7492710234069404,-0.779065238289613,-0.7836176270998105,-0.7393872733639474,-0.6511506836685278,-0.5560636778785736,-0.4836653307672904,-0.4330617299270132,-0.399295576446018,-0.3823717109715605,-0.37231388593451703,-0.35799953352440633,-0.33484188313668206,-0.30798930195825736,-0.285183880028102,-0.2691983781073332,-0.2555192072626882,-0.23692800916989515,-0.21040816924580505,-0.17153400566341845,-0.1223612306126095,-0.06912546987392047,-0.02927399326253729,-0.018733599540709314,-0.03752512395615785,-0.06850114870673991,-0.10273850122006364,-0.13289724408268708,-0.14939437139178985,-0.13428863079536785,-0.05858306985957195,0.10555881885288367,0.31918516951231285,0.4809123675164494,0.5455335691490734,0.5378935393968602,0.4716842841659746,0.36867825684303585,0.28187004655425185,0.27541013779773393,0.3747987200926701,0.5440136261832207,0.6935255625856016,0.761076265385429,0.7749711171665802,0.7722663564962651,0.7529959893452922,0.7146772911181728,0.6638501693263729,0.6069690601864152,0.5559944382637863,0.5109788638267775,0.45957446690581544,0.3804875333177177,0.28873035197020486,0.231539334444394,0.22779558784914916,0.2724642997136799,0.36266998964429387,0.48842676587287415,0.591317923162445,0.5519345970289425,0.40946406039426925,0.2798722828197305,0.17159810305913492,0.0436793212903036,-0.18495842848180769,-0.5220762127919768,-0.6524612660627503,-0.6557172733708921,-0.6351951908736717,-0.5630286630557386,-0.35961486925313396,-0.050285891550878106,0.19368522276750566,0.3489608370790986,0.45339356592641916,0.4694192037800128,0.3975041297235218,0.3322806889064328,0.3051402822764938,0.31564728556208715,0.36520209312049673,0.43503399108917595,0.30199104657198056,0.02636473149550952,-0.14470912537951022,-0.28006477470562857,-0.42281861265636117,-0.5865726773661305,-0.7431532712516751,-0.847811464491075,-0.8997215176116019,-0.91716783422631,-0.9107328218778511,-0.8707829067405739,-0.7486893236387084,-0.4252511822284626,0.12345653341274798,0.5699947875658771,0.7892518110370367,0.8830903180875642,0.9221691018797639,0.9368085403697024,0.939651574654247,0.9367657340707115,0.9333455691697065,0.936074960826221,0.9492086109186961,0.9617923362418415,0.9385860558227778,0.8144553679879947,0.5261998177933093,0.1203200992164482,-0.21667135015954467,-0.4069801099061267,-0.498027443383074,-0.5283175069030995,-0.5171164126119585,-0.4787209294464255,-0.44704141242783146,-0.4335968900482231,-0.4175272251717488,-0.3723529669695345,-0.29019607667106073,-0.1873280855579245,-0.10379856583042485,-0.07580032367712494,-0.1014309840221324,-0.1558974270876359,-0.20511493522759153,-0.2215205224804181,-0.19585907303366232,-0.14551612275300865,-0.10045286249032931,-0.08232201719350289,-0.09504369622423557,-0.13626730235210133,-0.19915936276600815,-0.278187049782576,-0.36490533355026405,-0.4451981129246673,-0.4919781013897046,-0.49874070793534664,-0.49509039685693795,-0.5235910879976873,-0.5990982782344556,-0.7021114599785898,-0.7937884911054767,-0.8549528288855053,-0.8947739334973425,-0.9209802301034865,-0.9347870940549097,-0.9351015407699982,-0.9186778062010895,-0.8733185328654195,-0.7742206816187593,-0.6035202419621148,-0.4028760618656914,-0.24343533441349685,-0.1582124055049919,-0.16938972366175417,-0.27224096075258275,-0.36816441489734414,-0.3594367461869318,-0.2698865438892955,-0.14340190008021525,-0.020648032286025093,0.06551347333105391,0.06251275309523385,0.006769763083355679,-0.024675492417594043,-0.019394365924274345,-0.0035146456095124755,0.0021873419845662876,-0.0041329314261813795,-0.0037192168168296924,0.020626245060793084,0.07383432743115557,0.1363488565365181,0.17390725880904764,0.16601960393467616,0.12663649960450526,0.08560982289281899,0.06294193556414669,0.06488686337165728,0.09153610775268102,0.1498025288364214,0.23614021572225516,0.33915799070776204,0.43014192881252383,0.4635633375967038,0.4277881002606692,0.34420857662703636,0.23686023170950632,0.1396190618641175,0.0924812001641964,0.1121548243437413,0.21614348142813627,0.48345310022688937,0.557509201303056,0.33723749897118127,0.2612630106387888,0.26076975605495206,0.3080691882101203,0.4037448250584455,0.5576806807069646,0.7524871834120873,0.8819808079995143,0.8745437368643053,0.7941188365551844,0.7011341704724021,0.601782705453145,0.4593079690390101,0.14119411425697945,-0.49258449745472066,-0.7253463659797996,-0.705092766510565,-0.6471745548869123,-0.5764120033920381,-0.48684250965306286,-0.37199275460308867,-0.23669050738923927,-0.10352807838942386,0.0019882759943568285,0.05352533027291547,0.002512373103662209,-0.17628980923672738,-0.4460969319955151,-0.6679555192414782,-0.7371555870612274,-0.7463981571471118,-0.7724191889362916,-0.8194476077663578,-0.8676781567983725,-0.9023368137641601,-0.9181497078109417,-0.9114411634027176,-0.8714251760033175,-0.7660246545868378,-0.5448128586567411,-0.20392849390565582,0.18318120487396655,0.5079050004744944,0.7157786039534433,0.8248437791748034,0.8761841061714323,0.8953567284722995,0.8941427729617756,0.8700683070623421,0.804862743237533,0.6642339076931807,0.42580038850330915,0.17295103383919957,0.06549311484126179,0.15278865741554,0.34022315343811854,0.5126307777437737,0.6265906637633282,0.6927078007531191,0.7262612847524941,0.7365989829772108,0.7294879482434059,0.7071708201764633,0.6736328927759608,0.6320492722826561,0.5814622158902905,0.5125258159962207,0.411221443291132,0.2650688912920708,0.07600647850862431,-0.1268958395054087,-0.30915506012782346,-0.4610570953025429,-0.5881272637495363,-0.6994813675499024,-0.7949362382558124,-0.8669692276336108,-0.9062898633618982,-0.8964761365473211,-0.7587201158624365,-0.2652414758773319,0.3211850160073315,0.5606302503020236,0.6122250160192214,0.5691200619336408,0.4489592832068564,0.25794477359557744,0.03527001904368869,-0.145646052502981,-0.24666691505317928,-0.27020962972680396,-0.23053570173849067,-0.1556726111248332,-0.0865106937334868,-0.06230245095678263,-0.10449796001349074,-0.21658657368776024,-0.36862224748719163,-0.5149170803959309,-0.6274372991413366,-0.7113517129803353,-0.7752605797671593,-0.822788584931935,-0.8573360696371481,-0.8723693811204952,-0.8280450104045232,-0.7170631025265808,-0.6230554349066896,-0.5646886954876091,-0.5210507533148654,-0.4798320198378869,-0.43724535895791683,-0.38808391377667933,-0.3338105244856695,-0.2834678784667387,-0.24583644026032453,-0.22786424819590406,-0.23766106869973128,-0.27508373695049854,-0.3280679068656465,-0.37721011369043617,-0.4067091334946853,-0.41350458567116966,-0.3945874681894505,-0.3413364828411821,-0.22012962168561911,0.04235577257558382,0.4932844886026445,0.8196795317292791,0.8660334512369641,0.8122991229501412,0.7173450701675763,0.5706051194756796,0.3676745179227552,0.16488015556924301,0.03630367997818742,-0.003903149000876738,0.006442269401065001,0.014036769215509146,-0.03931961307688414,-0.17866530141880715,-0.34647655403041666,-0.45756312916633896,-0.4770276462197735,-0.4011360314023746,-0.23884914677251443,-0.03436451102272525,0.1479044362748124,0.28212832322892223,0.3759336885798836,0.4422437684296197,0.47649976099111147,0.46943599918078976,0.42686062165217176,0.36169762953586415,0.28531034285256707,0.21807909940194165,0.18448737450154543,0.2027881004392267,0.2805524657471763,0.3952464631613605,0.4988258295611695,0.5375513128917314,0.5093686908999984,0.4595667584826639,0.42202758009378427,0.4096668829241084,0.42178365180370625,0.4406336451905627,0.4521322750736441,0.4451032260540292,0.4042382853930176,0.3367357049413528,0.26765803788319,0.21409012426656687,0.1929516358616677,0.19895826903152355,0.20941912140656238,0.20932058140774965,0.200654815579695,0.1830918934651422,0.14562888806979016,0.07993554283167653,-0.0032099869238918386,-0.07240023841420942,-0.09710983764564042,-0.06217912167183599,0.030868361895404185,0.14348914047232195,0.22278303289897125,0.23130229245610667,0.15711427801850417,0.011243973488409246,-0.15966706570034464,-0.31348992187264796,-0.4143159467003368,-0.4535850174418735,-0.4462865269226891,-0.415442227691653,-0.36656869881211307,-0.29334028369463455,-0.190735564356602,-0.07344195170185966,0.030816328982237916,0.10544537521762719,0.14874115752975034,0.16053929498363054,0.15066372435762532,0.14255543386132802,0.1655505342165103,0.23575936767478334,0.33709633354376467,0.43057166473429836,0.4844782599224166,0.49242904290210443,0.47153152832838213,0.4522031958065403,0.45064545210987145,0.4587647236938159,0.4567103784463258,0.43303050134505283,0.3902898402038967,0.3500869660811404,0.34175079059434516,0.37977716089132924,0.4456656034557266,0.5141235788952359,0.5768775756525295,0.6247088262111647,0.6315650761695024,0.5120833970317693,0.05258866235058632,-0.3896882330313093,-0.5643404786450276,-0.634868532047937,-0.6655491192438664,-0.6781432174505322,-0.6820124978735241,-0.6744576736804195,-0.6583773635466003,-0.6610597641693923,-0.7120934759800679,-0.8071141887198104,-0.8946936534082937,-0.9398995503494797,-0.9610549862494947,-0.9687951440672226,-0.9653753070913217,-0.9187137058636923,0.7608547277702999,0.9872842947595784,0.9945710537582372,0.9949043785346036,0.9925524486389286,0.9860703520562353,0.9648262404304183,0.8447382383015278,0.18524320511772868,-0.42964771452794415,-0.5791467958131212,-0.6228918251276488,-0.678221241927185,-0.7567935801477195,-0.8317797428302183,-0.8781826723755469,-0.8937507838612457,-0.8825886042703799,-0.8384870493167429,-0.74183265723884,-0.5769184563046701,-0.39703637852481594,-0.2680693464267901,-0.1754722119426417,-0.08367755172739177,0.031515542982976166,0.18040409546346595,0.3409743375923141,0.45928656644384813,0.4787882786034334,0.35319139202518046,0.15276846329597266,0.02088978054198331,-0.03457977433026232,-0.0485085750639441,-0.03757121020616482,-0.0048024468843253084,0.05454604920666045,0.14302378262415277,0.23320228624961226,0.23823592970761612,0.11908134284273439,-0.09377214498267174,-0.3810829697644021,-0.6296579783844337,-0.7324204220616879,-0.7517148736413665,-0.7412922388248214,-0.7109618400651379,-0.649405151194572,-0.5592747666414066,-0.4627157171297045,-0.3853055736727896,-0.3311961366020822,-0.2842957248110336,-0.22515296169319227,-0.15028037807535807,-0.07505959152453824,-0.018784657193159818,0.01727529993882325,0.04278880735011695,0.06800590369454494,0.09931497112002709,0.14123337372036585,0.1955492966872589,0.270600893601012,0.37432079413294406,0.5146532629274312,0.6842086997144485,0.8261433710129399,0.8572395109178742,0.7704454525406788,0.6291153811313227,0.4762218671134678,0.33084811407539716,0.20838991990696762,0.12513429215284508,0.09374993349738704,0.10227937761277792,0.12644573437095766,0.15088829992200398,0.16329047398395863,0.16063525956861235,0.146685423670311,0.11839923507296163,0.06279862189502682,-0.025141496361857776,-0.13619106500152317,-0.24230027414211286,-0.31236370644550304,-0.3394861638340065,-0.34631211382565796,-0.3642639452839322,-0.4043650859900731,-0.4599124336856897,-0.5126657859132313,-0.539816203120634,-0.5063196909069159,-0.38816574574776064,-0.2253089731535481,-0.06940730457419732,0.07232561552238759,0.2208263866807388,0.44623709269439776,0.6322372459273425,0.32736302443240717,0.18227387126383984,0.13234778563409466,0.1275739676409154,0.15367623719860887,0.19689016133329426,0.23786757171004197,0.26251552039816195,0.26908868308591594,0.2668328037854432,0.26265168789846893,0.2613217990237761,0.25155151940653525,0.20494337270866575,0.1435502320897752,0.11795651605908468,0.13308842981135555,0.1676996927144112,0.19058344560325724,0.1617908753034389,0.06062823702601061,-0.1022540932500615,-0.2636833116545486,-0.36207653519804023,-0.3794131766786399,-0.31740146588004914,-0.1796975783808602,-0.009933469352016016,0.09339284265564339,0.10046798577897088,0.020881088991811014,-0.10956551612200627,-0.2281864977581023,-0.2620422929633059,-0.2004892756069983,-0.09705590259001122,0.002042048628806197,0.07803370669810542,0.12493927480231405,0.14206610649926654,0.143703870221886,0.15940440080293364,0.21664286885514725,0.31992593120266855,0.42800520782526724,0.4234235935362673,0.31259645674610503,0.17336082993178586,0.030533639621577294,-0.08837480418587514,-0.15578389792350114,-0.1798327130055689,-0.17048375693466195,-0.12815294009054315,-0.040885986714099536,0.09379377845074133,0.24744829844206923,0.35468061477811036,0.3981291433459503,0.4104330438738053,0.4209778001398766,0.44926899402345194,0.49480053049088124,0.5006320446226187,0.4426642871842858,0.39806574381462817,0.37894436569512424,0.354368645936552,0.23974616878136856,-0.0713396206356229,-0.032945422046906536,0.06835711170943436,0.1866371329019867,0.32476158367983043,0.4903475246162394,0.6654683545957313,0.7983070566174566,0.8512437573021651,0.849799468377633,0.8351505899422452,0.8244767265973608,0.8167077483999593,0.8020418980401985,0.7500558712665839,0.5228810324664531,-0.3181202180257521,-0.8554002524353018,-0.9435190854998649,-0.9547957209429617,-0.9485223613449674,-0.9354009387992047,-0.9131546711260927,-0.8599754314552229,-0.7055490346409122,-0.2968387253193283,0.2786910208875802,0.6327094121027687,0.7854278702721683,0.8474679890276879,0.8676570960662779,0.8581485436291678,0.810099552987246,0.6938759935678952,0.4665232814595643,0.17081039454133154,-0.06951453579266213,-0.22171015772809682,-0.309776964385823,-0.35923977483155994,-0.38091377531253123,-0.37592546014381223,-0.3586152221270661,-0.3577782722459029,-0.40017292869971044,-0.48522076008613874,-0.5949279398982467,-0.6980428478999511,-0.7718822442131915,-0.8053447921960011,-0.8017780852718499,-0.7501775778482659,-0.5440963270350756,0.153471878449044,0.559018244549542,0.6349477021962199,0.6284156961416244,0.5790753422596155,0.48047262377402195,0.33412821332621473,0.17172008918413237,0.021032042436432218,-0.11466783848597133,-0.2545300590328907,-0.40630583902115525,-0.5485071299325632,-0.6626501523198447,-0.7519493643775176,-0.8088951952874416,-0.8306479943564901,-0.8250178773081973,-0.8012933466440235,-0.7477570761497946,-0.6032058199702232,-0.2950267470606208,0.07137627354199749,0.33875421993749766,0.49742153628480645,0.5903563133210527,0.6440652452940422,0.6655647372991353,0.6563160903919667,0.6052870897816496,0.47644246809097285,0.2693169953565395,0.08679038934217294,0.0040937462900132735,0.01919071185962868,0.10955278656423269,0.25133126605030337,0.4196531364028411,0.561169078250181,0.6189626853447437,0.6020834609563869,0.5103199315437174,0.3325795362717501,0.07799423105781532,-0.16986095220027167,-0.3326599811235056,-0.3997272765673624,-0.4258038053111,-0.4338016174761294,-0.4197094464385006,-0.3457060112699854,-0.19941706221689035,-0.01865344587038327,0.15161925679396757,0.29711325024397356,0.41986182717173287,0.5240921861357899,0.6093096522174555,0.6765850214597219,0.7236708537140915,0.7523309785914127,0.7598830325046492,0.7414670518479197,0.6779459501465398,0.5679897177955087,0.4554156799274799,0.35589726847166103,0.26162726660691116,0.158651892274914,0.039743249278042805,-0.0982923601340387,-0.23703412463691323,-0.3277183944830985,-0.3714602765879741,-0.38244332015482413,-0.39920685410278134,-0.4702710831091954,-0.5835786971348543,-0.6462768460017514,-0.6301818394875052,-0.5924623698594879,-0.565193063625935,-0.5293693132129935,-0.3632233419256704,0.35965214848072424,0.6653997632432331,0.7485784755109169,0.8079809585591766,0.8669554977591406,0.9276914820181277,0.9695958751085819,0.8774080391807982,0.5854258248314356,0.33547577944990314,0.1991301096944376,0.10721236330247247,0.005494873423227676,-0.12414713417639303,-0.2623466505297156,-0.3546716328620342,-0.3988750647573072,-0.434060235123693,-0.476532431860912,-0.5128684163357127,-0.5318687221910412,-0.5268689848946361,-0.49800931202394705,-0.4521092090001515,-0.392445956599608,-0.31337885571782104,-0.18855407949022052,0.02151088234565054,0.226713888572243,0.2837957579086875,0.1795973941566925,-0.0034457113904520294,-0.15204849256450792,-0.21201361264316615,-0.17798348964037128,-0.07185084510359387,0.050901335922793514,0.13666581445921985,0.16858362977450017,0.155502319575761,0.11427242144728836,0.06953598736554688,0.03888465251856999,0.027619355513601864,0.03257211512959182,0.04393137389463511,0.05835625765182126,0.07808587821745559,0.10644043176652121,0.14338267747012912,0.18836215825703873,0.24135439426832792,0.3067529243872773,0.3873366513565909,0.4820386560374757,0.5813675643750184,0.6521909585190723,0.6243668497765458,0.4740200451131646,0.2935768138279342,0.1594859814184841,0.09128028712543194,0.06898756086337426,0.06306180179782721,0.03759176823848694,-0.037095302455678346,-0.16979146757901592,-0.3101282014002359,-0.40060812387827,-0.442571741716858,-0.434923331850724,-0.34792178938030327,-0.1842787868610053,-0.048786911211587,-0.02075255899592184,-0.07450661983552548,-0.13550190729942582,-0.1436945766647015,-0.09746824540564984,-0.04031896420970551,-0.006495874906490933,-0.007971494482284886,-0.04782342794176233,-0.11404314076578688,-0.181413637389417,-0.22155453949934412,-0.21267872032794566,-0.16310155559359626,-0.0957177045613812,-0.045455774460226334,-0.03929695523167737,-0.08153341721594036,-0.14769015610344935,-0.2034061871045954,-0.21002506332916884,-0.13344930697563648,0.04397115881969226,0.25357592983915006,0.38911946327344643,0.41573670216370323,0.3136446543565683,0.0410127814506437,-0.33865881518979846,-0.6157952054430195,-0.7470131340329658,-0.7969978601100631,-0.8096934994060458,-0.7992037903918423,-0.7696978769527208,-0.7136903967270153,-0.6139507767330332,-0.41811707829798755,-0.06881721648487306,0.35876718374649935,0.7140260814238684,0.9054952605303276,0.9739717149258875,0.9871332527766798,0.9804605920014281,0.9669611383378072,0.9511375965447494,0.9353756939911015,0.9182137554719358,0.8916877655898695,0.8391787217395263,0.7370376047140984,0.5641513375874874,0.3064229352638,-0.03779323937469179,-0.3812593118509581,-0.6067367880280332,-0.7098246818049336,-0.732754475419744,-0.6920505932779456,-0.5703297523130021,-0.33448235117439507,-0.0033821551920405033,0.3001248163947131,0.5004318724392414,0.6109943816375022,0.6619138303464921,0.6590003856723153,0.5331093002027376,-0.17792698910152308,-0.65937682565953,-0.7033049723613976,-0.6959737324508442,-0.6902196388954808,-0.6968124485628053,-0.7177604708334226,-0.7344074604172033,-0.7176773381963072,-0.669568469036562,-0.6206443005262402,-0.5848587971355763,-0.5644477147991106,-0.5684763944202524,-0.5991739998830639,-0.6404688758795211,-0.6721174844535416,-0.6829418274131117,-0.6686698323225446,-0.6371083013130892,-0.5976749977310616,-0.5628458459983772,-0.5351943199404076,-0.5057124336717025,-0.45527519912809666,-0.3547552061309876,-0.17626798075745256,0.04804710608034456,0.24463832594014476,0.40180324194613154,0.5279265907445798,0.6249293620428075,0.6860532665412346,0.7057350537379302,0.6788849379067421,0.5841127032981949,0.3555182500836476,-0.07855962162651602,-0.5335899294233004,-0.7827177243743686,-0.8536884956288502,-0.8123119105925468,-0.6965951566908569,-0.561691471164074,-0.46207182578187744,-0.40343832134516266,-0.34174380712493857,-0.26047047045254523,-0.17900208558056135,-0.13918407358039805,-0.1565862409172006,-0.22041171438897803,-0.3095675771850559,-0.40140198820833256,-0.47021973505810216,-0.5105886557761995,-0.5305881295543079,-0.5308874355625587,-0.5040351906529585,-0.4421362588103584,-0.34024369147596006,-0.20944931342076,-0.09431142983046097,-0.023060119753134257,0.009107396644348698,0.017568692134489017,0.014970095201370263,0.014570155870438568,0.02740595217292532,0.05822834990549447,0.11238848031452842,0.208254043794444,0.3627011615702387,0.28192790097233134,0.1887388355306387,0.1622368253013904,0.17371143927608,0.21270013259740425,0.2739220885808015,0.3393662133929085,0.3773992870193032,0.3872678830345677,0.3816161329197652,0.36946662807295355,0.36538829993912764,0.3717142774286919,0.386745489500924,0.40392574379492807,0.4278414034433468,0.46253476394788984,0.4953347888622353,0.5200316098091724,0.527457329732491,0.5101511272294467,0.46255924478222205,0.40043181268778055,0.34547186597744145,0.29444851966499846,0.24738571207001753,0.2155107990986092,0.215270353854013,0.24284006576904268,0.26559243076639105,0.250341448423405,0.20826262651562383,0.1482986114761191,0.09850460054190006,0.08289556200046222,0.10397625426557268,0.14827286765766445,0.20541998900205663,0.2593736879074549,0.3100934848132554,0.3734708744495198,0.4677147008934123,0.5665361541133956,0.6187300850099782,0.6000419453897298,0.5090999578248614,0.37495974943399474,0.24729193104096195,0.18229227664403627,0.20635274650073876,0.28307067261941027,0.2901993569087071,0.19664491610248772,0.10199481309772117,0.04268388125209133,0.011605590506843955,-0.0008237666392497822,-0.00391992140336084,-0.007141147034123447,-0.018734344790465898,-0.038803461029464185,-0.06286079160881887,-0.08832140564612583,-0.11381915372176334,-0.13636200770301019,-0.14887270444270556,-0.1355336451026668,-0.07786904755282216,0.029541434431923957,0.15249819358297156,0.23034158428916596,0.23309094213899118,0.18155336644865291,0.10839797495674776,0.03915863693215444,0.0006079307095985269,0.017992594500934374,0.09714714560868523,0.21005831555949978,0.3167895935283684,0.40475508759661555,0.45696421311372254,0.44927800520221395,0.37982514563724284,0.2779267758825153,0.17064488733440547,0.062062809341744365,-0.05946202920766877,-0.1995431377717336,-0.3461661511098302,-0.47545015711775157,-0.5748270985846275,-0.6363346512784761,-0.6372877452983925,-0.5628382303593743,-0.4607261102662579,-0.3716217665028635,-0.292788197777623,-0.18739997644718695,0.04582671482308297,0.4676516140333749,0.6731445225245644,0.7137098902550117,0.7172568308063512,0.701286793538155,0.6714776077033145,0.6398523732457095,0.6331097397584515,0.6572930607053123,0.6007161505782361,0.47991679779033714,0.4033289054681626,0.3425641990821866,0.24379835957042856,0.09499400144723323,-0.04858759280820939,-0.1575511400912594,-0.24003433869586188,-0.31011441613943724,-0.37736047751705265,-0.43756920677291467,-0.4748026849042604,-0.4703479350377137,-0.42108007067098224,-0.32002388498045187,-0.12127269321415433,0.20462429307322444,0.46176128467005084,0.5066733959088964,0.39910833788737904,0.1531308506266978,-0.2034967924754163,-0.5206396082930496,-0.7014172132791194,-0.7783624539184526,-0.7890071163856279,-0.7488776186584554,-0.6847612215299888,-0.6238004531631297,-0.577193771757455,-0.542778975994411,-0.5091146990388348,-0.436040581161814,-0.2922353910415172,-0.16447132693577243,-0.09687949077631686,-0.05959593072623659,-0.03652141300757692,-0.02517864631542207,-0.01616390173216626,0.004049501110911733,0.0560683655264707,0.1413662136851974,0.23685903144337886,0.3169777661186974,0.35580052374049886,0.3478212691081619,0.2974983067185867,0.21745079952010224,0.12547886635294375,0.03750239524262904,-0.03422744923909228,-0.07805217943812617,-0.09495797133601232,-0.10019320042941063,-0.10643921582744056,-0.11384099265079956,-0.09568880453555857,-0.04708164538323429,-0.012365105666782542,-0.017706884350103407,-0.06085604292796946,-0.12091433638461752,-0.1748798462129058,-0.2065263682230525,-0.2317831909951447,-0.27177825002397266,-0.30201701203444137,-0.2832522503631446,-0.20394349886757027,-0.06737193596068619,0.11366208809179712,0.3184087560819111,0.5148848051092282,0.6540388995670526,0.7236891029761933,0.7478319004970382,0.7483839457897699,0.7244050760959279,0.646934856796895,0.4905743508845735,0.3256774985681108,0.277171975909842,0.4016291164572143,0.6355562711579085,0.762661116632974,0.7887892297371278,0.7903568158663926,0.7858572750036149,0.7614704978445854,0.6846989723880741,0.5442062525867032,0.3781461199640445,0.22809064879209182,0.10022157605047038,-0.021628479107172943,-0.16096855997810666,-0.32556194295829294,-0.48643719617932,-0.6185593109329001,-0.7179079825030075,-0.7917822845819806,-0.84695459696185,-0.8798285856540201,-0.8927583725667503,-0.8967842900289785,-0.8961278562119989,-0.893518237109055,-0.8887568570785812,-0.8680130604702271,-0.7099668418827954,0.08884976367060152,0.5594889811607151,0.6641385950652736,0.6801229331135664,0.6452249538772836,0.5612006690437294,0.419738040174108,0.21102015345004613,-0.02753537809140224,-0.24044917882539926,-0.42360362520073086,-0.5738454859373457,-0.6637674584994386,-0.6687794002975983,-0.5621074486641351,-0.30665008293049645,0.13590091074325897,0.6130214534231717,0.8422476506086746,0.9164473353899716,0.9434722659785311,0.9528073658393771,0.9545942696138006,0.9558392495817499,0.9590317079449342,0.9622488643478351,0.9625179659871912,0.9572000239988074,0.9405418504912157,0.8909276115408485,0.7143293859058618,0.11950790837681395,-0.49502240412940496,-0.6915157294332939,-0.7295668952666037,-0.6918669454783624,-0.5834055609870786,-0.45718592983988354,-0.3749612158530603,-0.3386064657210598,-0.3351331861938752,-0.363015537987478,-0.4273502708359428,-0.5373818363780849,-0.6883409796889484,-0.8244970022489723,-0.8816199165124995,-0.8814799272305537,-0.8708933253591548,-0.8624658460401015,-0.8458376828624314,-0.8128539192099019,-0.7658022676694864,-0.714217189787316,-0.6683991285332322,-0.6290000502337199,-0.5929960330705045,-0.5661938163307858,-0.5637285202336532,-0.5855399850234427,-0.6229923054832169,-0.6619468018391895,-0.6926998318066191,-0.7132232528429829,-0.7265817280562935,-0.7263235282685319,-0.7058887225433809,-0.6559923808001163,-0.5704963798838694,-0.4406075023504305,-0.25428143349725835,-0.0340019895416456,0.1307019255008733,0.14427581132918457,-0.04704345635250494,-0.38445566890270344,-0.6463299202967215,-0.7768709630908366,-0.8381629088611695,-0.8623864423392614,-0.8461388280303305,-0.7770983899405556,-0.6440705614440194,-0.4338111669285304,-0.16741783624247242,0.07067123357698857,0.22556310362860535,0.3207250068481879,0.39023460620861083,0.45512424811062796,0.5299806225706073,0.6170451770026543,0.7024690815217198,0.7696087104383404,0.815086270582424,0.8395693324166734,0.8457941740735416,0.8322313687388547,0.792896585816537,0.719332449882484,0.6103185729195811,0.48397408932269176,0.3735613137973493,0.30486786988819375,0.2838662987913195,0.29816818883830476,0.3286059597433542,0.35766800180046016,0.3671095477722731,0.35048945192231273,0.3093890174056724,0.25360711141819814,0.19390045155320182,0.1377477413008122,0.09010288444578661,0.06329288821345211,0.07313707169197353,0.11755303905397459,0.1612210895044291,0.18984579591645986,0.215038847145979,0.24170011430810567,0.23650346007075423,0.16683151782547026,0.09308328503844904,0.04176819224977009,0.004342206940047837,-0.025987765979175754,-0.04360541706511897,-0.03722190018051172,-0.003057502462525226,0.0428791855291916,0.0827946768508274,0.10968073938978744,0.12222873914200512,0.11709086083585486,0.09048470814969096,0.040684839239289936,-0.024263819218883393,-0.09364735728366626,-0.15559248106570833,-0.20034083396928531,-0.22599800425044367,-0.2401442141630374,-0.24380571113823205,-0.25165835625012184,-0.28005786864951565,-0.3271024174320032,-0.3841139930517782,-0.44284792882908997,-0.4972477295529243,-0.5376110640900568,-0.5639192485764262,-0.5796177942602502,-0.5895576975607167,-0.5572738536708128,-0.4737183987789259,-0.4398732961040052,-0.4707182606474912,-0.5044029879818044,-0.5046031923990045,-0.4713227276343598,-0.425439007804357,-0.38376827578401207,-0.3541730076477023,-0.3209362067566933,-0.2569768493245028,-0.15878215230874254,-0.06295761550110708,0.009511616076281646,0.07043796294784468,0.13749310058729985,0.20900559521642004,0.2680423678933527,0.2991540079702853,0.2978018320882676,0.2589055111642507,0.17208083496135917,0.06047750069677776,-0.0033799522134757686,0.0333800442575269,0.15822800982646137,0.3066150084039267,0.4346847544590449,0.5316607000315998,0.6072345016793242,0.6649399231332535,0.7010854462636724,0.7089644276820685,0.6831820387092544,0.6187165356811491,0.507111845995359,0.34701921187414964,0.1767746962987945,0.05910783233592912,0.01441415874309744,0.02930415654053681,0.07163778402734784,0.14645516770757339,0.30055438656464545,0.5540908510446961,0.7867469263462791,0.8958086577183643,0.9238910032958889,0.9202895045987937,0.9042399965787288,0.8827155454717552,0.8556835203746699,0.7937426853574967,0.591016774203933,0.21506242258009997,-0.1078006654108479,-0.2936579009202827,-0.3841298594357566,-0.40099013583588966,-0.3757114159815489,-0.3228112575041918,-0.26843282808711855,-0.23758843700752683,-0.2323520845147757,-0.24435389616878195,-0.24913567272876155,-0.2258799079778508,-0.16615686642027466,-0.07778260497262282,0.019015210592336622,0.06580363463961716,-0.06518587172927436,-0.29964504332896186,-0.4238503010449838,-0.3809225907815484,-0.21920295514194377,-0.03535683272395192,0.07441804249218031,0.04752573682811924,-0.13817090656626582,-0.2962475082012852,-0.37755772307241636,-0.4490719266987005,-0.546125945222103,-0.6579715984667681,-0.7576330953847534,-0.8185036628513099,-0.8213338699096583,-0.7115575533592917,-0.4798272260912144,-0.28675726397873796,-0.22599684986381732,-0.2745387660419449,-0.38815567238049464,-0.5517116396635575,-0.7409472919263054,-0.8774401039067974,-0.9265464525567403,-0.9311148224006246,-0.9274415853645221,-0.9280879939011336,-0.9277908097433466,-0.8894534136088827,-0.7548258621927557,-0.5286676608798998,-0.2759138928973658,-0.028329350125087988,0.20267955894172812,0.36286837439018726,0.4389324286945098,0.4598267253928565,0.45622990723724377,0.4329939771898302,0.3549364008298192,0.2630040262615088,0.29803319130849476,0.5392605798343205,0.7536913454433352,0.6078362183079842,0.41923317848691344,0.23908355254382793,0.07209159147911573,-0.061598785634340715,-0.16016607033383384,-0.2319107176116317,-0.2576272031755646,-0.18219316572408165,0.01899122989064555,0.19856053064705953,0.25122728183177157,0.1962145728646933,0.07374575309965337,-0.06228485552276489,-0.1540939471420684,-0.13837714087072778,0.04994705534002128,0.35519510182268066,0.5906687236837234,0.7129810304631277,0.7650669150271859,0.7700317286513736,0.7259072215519395,0.6167076830807822,0.43587284179656727,0.2126212298659919,-0.003451383984001901,-0.17737951713242944,-0.29279675564762125,-0.33011746776608203,-0.2303558812346658,0.06469381542301317,0.4027806484274686,0.6273204927384035,0.7400075472269626,0.7609823819078497,0.6723738162182101,0.45804735332515123,0.19072236731735623,-0.029662433613983564,-0.17187261454520328,-0.2515163241739902,-0.2860513920824199,-0.29464039265708825,-0.2912135220330544,-0.28578927275210225,-0.2842179722150811,-0.3000885408321227,-0.3445370292087197,-0.4104325738280497,-0.474750018664267,-0.5161183251580692,-0.5326950020593051,-0.5354319472718275,-0.537225289494577,-0.5487165954097847,-0.5766537185083579,-0.6221114157119166,-0.6724589727374933,-0.6285326136964999,-0.40235260267655165,-0.2243032926291297,-0.17468188307412613,-0.20254308212453065,-0.25339768253265704,-0.27103935320474215,-0.25009538748995674,-0.20993376446810436,-0.1594754698987531,-0.09722984643895237,-0.017421116266712517,0.07801865777681954,0.1675204697304733,0.2264116505585875,0.262487347531505,0.30043190288758476,0.35904342700535696,0.4490580268531949,0.5638313897295542,0.6530331526190861,0.6209538955459627,0.4365186040063246,0.22900585511641725,0.0757472362323612,-0.03931658618934583,-0.14459625058345568,-0.2492307713128329,-0.3538570643063947,-0.45216078967616136,-0.5340052501542171,-0.5867951956750712,-0.5472885799451359,-0.29526374824073653,-0.06048174673754731,0.056943975404985796,0.12867924587545443,0.19274226951030846,0.2727038913341256,0.3990968225289824,0.5905764545792328,0.6958795040528571,0.6522584271430387,0.619357200124362,0.6057275481481086,0.5675330348647873,0.46631629841884964,0.2702074038004718,-0.004810217266419762,-0.2477893311479732,-0.3853607532845273,-0.4456505647682662,-0.46478556098229384,-0.4549936309328338,-0.40103646546897753,-0.2483017167145355,0.025880791884723035,0.2506549206999818,0.334142745006658,0.3309500748134798,0.2847240914425892,0.21540352920996164,0.14035159860334498,0.0793166795217326,0.05931944317781689,0.0928815713276793,0.16384200191289722,0.2416061592486185,0.284038974280005,0.2603799199390562,0.11694646572065323,-0.2083716375921892,-0.5421192003951042,-0.6725351973053791,-0.6675873309656175,-0.6020722274799907,-0.5120051271725562,-0.4232337948131284,-0.3539996196804502,-0.3111733781307691,-0.31318004538146715,-0.3705529572127981,-0.46413006049520766,-0.5652010682658433,-0.6495146980806851,-0.7073639700718591,-0.7372651210718137,-0.747479113119258,-0.7438293635691501,-0.7195155433608663,-0.6563473654042653,-0.5177926039307287,-0.2797489742103634,-0.02144398046159566,0.16242793772559613,0.2723116147565348,0.34645441551238376,0.44089168464693307,0.5893624516228143,0.7590480939132692,0.8677510765468772,0.9082596285147277,0.922352523850814,0.9323346872775271,0.9428517333127817,0.9504082963981033,0.9518636453491192,0.9494443769916342,0.9458457173540736,0.9408084352151296,0.9353029750910717,0.930222225959857,0.9186432365978118,0.877237040918271,0.7650755511270415,0.5589661135016537,0.3038762103166963,0.05961603557300798,-0.15904948113754558,-0.37743182331473607,-0.5788182760399868,-0.7254943191075978,-0.8299582858009211,-0.895293084034634,-0.9196210077469666,-0.9182625291071288,-0.9133128199652605,-0.9156653986252532,-0.9228954247885447,-0.9274577120552149,-0.9254020579720555,-0.9246223684341864,-0.9321647315271806,-0.9394221295665891,-0.9302914273061514,-0.8782668090108219,-0.7372103963906876,-0.4724337147892038,-0.1567461793350843,0.11489649904080036,0.3191428255661623,0.4753560720207193,0.591497684919436,0.6674056518008197,0.7208197635919096,0.7721464010256734,0.7747214338260296,0.35993517095754196,-0.1297357753708996,-0.33248203232522927,-0.42049574100665366,-0.47131334380977485,-0.5195452319561564,-0.5823626319263592,-0.6684462988978264,-0.7779362178162134,-0.8823640581212656,-0.9371758017111441,-0.9433993963767595,-0.9305430705535271,-0.9104917051979601,-0.8776584697352293,-0.8111245344816641,-0.6772855688704125,-0.4423670465742104,-0.14377965583782118,0.04173231138987679,0.02287583941170226,-0.16337789049721363,-0.4147208956940476,-0.6175666991239537,-0.7492550506703072,-0.8285013124890338,-0.8684038286863738,-0.8742483514495338,-0.8319800082595707,-0.6765725078048189,-0.27376126446932114,0.25121245749589644,0.6101815188683064,0.7997305611571088,0.889526904913972,0.9297109617492076,0.9464105975775806,0.9528240918129267,0.9544488642293895,0.9528881083304848,0.9482597624080988,0.9373370148206343,0.9172060730805693,0.8798026140728833,0.7953107692385467,0.5721056822222867,0.09106968810850888,-0.445951576689656,-0.7420153530992661,-0.8586558548982152,-0.8875814362389781,-0.848301656948781,-0.691984461616777,-0.2815012961464346,0.4201233320340345,0.8413184929854488,0.954959254521424,0.9825142711123495,0.9888170882785241,0.9875093440351461,0.9809838960446623,0.9621033737329279,0.8549974690413037,-0.15384709890594925,-0.7373609945456717,-0.8048187100365923,-0.7955037141892681,-0.7634220937607057,-0.7320195991255519,-0.7115114134212338,-0.6959786519653216,-0.6842857901042063,-0.6786759846478193,-0.6823837279911417,-0.6905493402250867,-0.6967267942373556,-0.6970348211672222,-0.6894285350033488,-0.6795259017308796,-0.6762649724945148,-0.6791903017052627,-0.6819219406308085,-0.6840239448405109,-0.6803345097299469,-0.6644158760042285,-0.6221598132247826,-0.5403594575741854,-0.42510784921997485,-0.30271138503387934,-0.20345168886965034,-0.1391395453494867,-0.10437641968668979,-0.08595986649716564,-0.07298997396252722,-0.054525990836115305,-0.021426931486204944,0.02972214441788713,0.10164864589425025,0.20794867171178383,0.3673182115602489,0.5649605599317743,0.7057303440641716,0.746989627076181,0.7353058249145611,0.6883641429689249,0.5778317426406332,0.38963572863175666,0.1875961648819127,0.03878512180419541,-0.04174178371561686,-0.06533369562952557,-0.05331771090791985,-0.029523976179317134,-0.007457709391379804,0.013529353018280857,0.042142782946381734,0.08795807631723838,0.15674695508796904,0.24866964448149945,0.3492847584822284,0.43694505553878715,0.49907778287007604,0.5322373885359751,0.5336422553691013,0.5001022863543974,0.41334420254535237,0.19518581198507162,-0.2433766121808823,-0.3384376343087323,-0.23620507649079417,-0.08526139123341228,0.062458688917553476,0.15616107076044405,0.18970021101604237,0.16913905514676422,0.09596089280732531,-0.025917381217909253,-0.1814713770151764,-0.3355246534588688,-0.44610794247760366,-0.4963332111111573,-0.4958055993504225,-0.4564716749159754,-0.38320989326045696,-0.28079117328105174,-0.1839263137776838,-0.1544461996039526,-0.1715063054548181,-0.17368267548895341,-0.12764700987332253,-0.060870804005090345,-0.027226835130412363,-0.038448009805247915,-0.08889748869146784,-0.15129468252817208,-0.19679674483344758,-0.20815597934007857,-0.18888203940226578,-0.1481529892145081,-0.10500635939657306,-0.07803816771595802,-0.07583464424718679,-0.0937702765541164,-0.11032994133818179,-0.11304515823272092,-0.10040200207494707,-0.07700550112036422,-0.04537409074871788,-0.0021319817886163925,0.05027684218570988,0.09687841824112103,0.11649101372231979,0.10813924514970279,0.08988562036904547,0.08286000756080707,0.08806434920714493,0.09348081020625089,0.08983115914004897,0.08250798353844781,0.08245614963534575,0.09723389674525859,0.11575930675511358,0.11496519790987854,0.08108941952855121,0.027593846892081338,-0.026488742483983647,-0.06866841185602045,-0.09646394424281232,-0.10546721689467738,-0.09953415155592753,-0.08437584618568929,-0.0378114831581896,0.02891428684508316,0.058889728165226016,0.0445096269481499,0.02948604515860169,0.033612472197484596,0.051775059330710436,0.07356616528110362,0.09167744365009961,0.10524862819917812,0.11277141381633964,0.11652364960017239,0.11691244687133573,0.11766663411874513,0.12165191625392727,0.13038486636153934,0.139808781440731,0.1402960131628048,0.12731912448691543,0.09809453766188665,0.05880957015965038,0.023689519681478307,0.010332623417535908,0.020958846315385703,0.04293807569640545,0.060944466588106525,0.060792094616724836,0.03302372619784947,-0.0252527063709036,-0.11497604392770962,-0.22202420303193623,-0.31206510717699953,-0.3655172324259889,-0.4050127436346344,-0.4631917190945741,-0.5142109782154907,-0.5109976659376505,-0.45615404013648386,-0.35922317001838383,-0.23234234360468287,-0.09564094069988047,0.010986717737311776,0.05082874653359034,0.07832382481325156,0.13306910312717923,0.20810079794596348,0.2830462100559403,0.34294583220130415,0.37716265302117813,0.3829242109293701,0.3598481516777992,0.3142058419521108,0.26315148960662177,0.21393845179893137,0.1554024128960073,0.08446858400580892,0.010459668711240665,-0.04330507577947619,-0.050472848725477894,-0.006072168272845827,0.060809312365978536,0.08892313756004447,0.04988285350586003,-0.08173331120924479,-0.37843991059865995,-0.7553816039126321,-0.8827439914532519,-0.8494046252137659,-0.7755571840012241,-0.6628619716712644,-0.47897465279043433,-0.19657844634199967,0.13382247480618184,0.378119586626857,0.48388707783776047,0.5149826074161769,0.5518663572515571,0.653964557022803,0.8095676445963583,0.5430045495172489,0.3114015059124858,0.2489234101958104,0.2553781205357309,0.2905278665950919,0.325233260999296,0.33601292763281027,0.2963149903697244,0.18318867727892285,0.0047113165794259795,-0.17649584351160236,-0.3198905329777007,-0.42737730843355765,-0.5121453036601344,-0.5256704538115288,-0.22256982563494332,0.056580666886728505,0.22213565936652302,0.36638263945297456,0.5007826548243096,0.6082411128518865,0.6742796203799817,0.6964203921943327,0.6661357124513546,0.5524052358336352,0.3171724638662202,-0.004723714221856569,-0.2729674971157266,-0.4472351583066206,-0.563588305315342,-0.600946153192015,-0.4993832760248612,-0.44222190274067763,-0.6019240958006905,-0.779444615238898,-0.8213326057284877,-0.8288726140734158,-0.8375898834820644,-0.8468112528824191,-0.8534160077330256,-0.8483717390788148,-0.8082738512883898,-0.6632934801978511,-0.21385127807615517,0.4471098962149373,0.7396070047662884,0.8229995314958964,0.8392335912969159,0.8173235949008323,0.7586840605774753,0.6560524243332854,0.4998106088213847,0.2882467212573358,0.03669619744399567,-0.21389325803034967,-0.4298020415480711,-0.5839176796042577,-0.36736026307358716,-0.0878151336820547,0.028883127081907194,0.07687260124235565,0.10131816075419625,0.12590599901452718,0.16890726997201486,0.25789082398656354,0.4490764673877869,0.6387712764555128,0.47767349949695775,0.34667803171270434,0.27238217460904945,0.21490932709166088,0.1577714601763035,0.1019144806470377,0.055174125040212955,0.028161839527438802,0.031136482659364532,0.05632992711326393,0.07138936968643775,0.03198571377250499,-0.12185484123798807,-0.43884823730263994,-0.7748418637475759,-0.9373595555735978,-0.8768409751281011,-0.5506292308206421,-0.2236380275615204,-0.05677341426139546,0.007830701110843653,0.02197446725263868,0.011275670198562142,-0.012708680928250933,-0.04196546945302161,-0.06715930605607935,-0.07745061734907897,-0.055296475855078325,0.036411176421239165,0.060056392144570855,0.05909954150277777,0.053077912915232645,0.03579440239219831,-0.012820930258114234,-0.10863955637555217,-0.23202561864271123,-0.32553699481959514,-0.3665002623403852,-0.3517283589396336,-0.2691486186150957,-0.10293410561134124,0.12799513089975334,0.3540548247267995,0.5169592383869455,0.6112935957270245,0.6572193739840341,0.6850076351966624,0.7176372826639968,0.7627847453885043,0.808492829566039,0.8402704173532883,0.8239324601444481,0.7039981729562371,0.46972948478978416,0.2004454151904556,-0.028532514812952797,-0.20682862160108478,-0.3558801585752007,-0.4875322974563966,-0.5796322569255129,-0.5696948688139957,-0.47575053352053803,-0.3810361306259441,-0.31708813610345304,-0.2840346900444782,-0.2731591403480136,-0.26998085679001743,-0.24486055516668714,-0.15176935796964092,-0.053851143219416,-0.03396023918254121,-0.044723503401060065,-0.05819817079407451,-0.0649241208806326,-0.06223474187330728,-0.04837038806763775,-0.03268085985962879,-0.02758483732764239,-0.03565422154707661,-0.05173416207379152,-0.06770491256569638,-0.07835485051235118,-0.08877092935171912,-0.10868675431804385,-0.1433674387855497,-0.19374064974205923,-0.24621281837709955,-0.29182159148976866,-0.30298844740562714,-0.20857007344556017,-0.026468849778148958,0.10622471428581137,0.18055851671219594,0.22334882948716994,0.246525126244681,0.2633244380103831,0.2802868431279049,0.29308827381757446,0.2910511833907437,0.27035975707753396,0.22889115848019714,0.17186247306214705,0.1205604836347226,0.08291281345433096,0.05877933764883781,0.046146109059281626,0.042648961659112604,0.04336071895016712,0.04068653685803769,0.028422973829378095,0.0077003116115106456,-0.01974681447798335,-0.05067035900517613,-0.08669260937675288,-0.12090535957656139,-0.14527409982951534,-0.15737932717791905,-0.1560119315115843,-0.1330523831206766,-0.07768085558695177,0.0031866113045385088,0.07963187000407387,0.12011679026614859,0.10010901662461183,0.034973048396668524,-0.04061150099384531,-0.09163851876195298,-0.116299948800733,-0.14254741212091118,-0.19491418014571665,-0.28780446209842026,-0.41314269366527584,-0.5399220713074876,-0.6361507127993262,-0.6955998040538202,-0.7229024402290772,-0.7287076046940042,-0.7200769420433457,-0.7059155855874515,-0.7023743598696776,-0.6981361237485115,-0.6490548369522967,-0.5515314978436301,-0.435195948271839,-0.328532744232707,-0.2700839221875891,-0.2692003705503819,-0.3232166936292168,-0.4045235871588797,-0.4181317003434256,-0.2550032862426535,0.0684850678555345,0.39346085138492615,0.6088887928078616,0.7330102501178885,0.800386382216778,0.8330530231686839,0.8432918425614097,0.8319211773895924,0.7822770545868838,0.6462578197637275,0.4076026274515845,0.17548505308341694,0.03216585527209718,-0.05510207454612282,-0.14888904716084764,-0.28687452162896804,-0.44993604308529905,-0.5809385200945724,-0.6516365341319641,-0.6630953650748185,-0.606083895784117,-0.444885117071556,-0.18980719620712588,0.03890919266285767,0.1527836264413127,0.1495161626423458,0.048491894776088854,-0.10993953515861377,-0.2561856471102123,-0.3324290537627215,-0.310574529927884,-0.19041016451536966,0.008487439379833917,0.2404378919085617,0.4447050708014514,0.5889356565066154,0.6780871456731278,0.7277674768876167,0.7474099151214364,0.7354732105171701,0.6787626459333577,0.555277626986052,0.3832035957266536,0.26633777724361846,0.28049227342625416,0.3793944490712214,0.49745403191946436,0.6085485526688309,0.710634829200772,0.7999102931098191,0.8171626651082535,0.5765137364493723,0.2003989617366949,-0.008336565555050567,-0.09944183124049463,-0.15014874181749632,-0.20493983507313052,-0.2759203640437966,-0.35906833575958186,-0.4462344152194912,-0.5246439036753974,-0.5773755158923167,-0.5952198938043587,-0.5831607211871858,-0.5487516901783833,-0.5060865173726349,-0.47148968068415364,-0.45726897100360614,-0.4709795981242121,-0.5101727152659414,-0.5613529918124875,-0.6068607466269333,-0.6361521191561265,-0.6514160475723119,-0.6641099254901991,-0.686375853334611,-0.7245663106281913,-0.7750672531255104,-0.8240978167681875,-0.8521037574219187,-0.8434219217676651,-0.8041042598176092,-0.754542043484973,-0.7081295974514034,-0.6663968675204863,-0.6266503556427279,-0.5907346193511787,-0.5625347438440393,-0.5420870182532246,-0.52041331605764,-0.4890013581107263,-0.44462055720763616,-0.39279160724961876,-0.34040746503506436,-0.2933174389930475,-0.2527090046001835,-0.21302540717301519,-0.15710853754108026,-0.07989357994978588,-0.003256871164814765,0.054347134680618844,0.10635122759053925,0.16002907495408034,0.22492121481382146,0.28573423011071414,0.3293835432908577,0.35967935702751724,0.38404924606174257,0.40842353448157204,0.4343103201725444,0.4652229250058141,0.5046077337447014,0.5534793519251269,0.6044002550889952,0.6506737713588581,0.6850630027992392,0.6948633537399679,0.667517101666256,0.6026190380617127,0.5163646241146931,0.431229509658427,0.36264087260409533,0.3198490764695043,0.3026207697843165,0.3042827613455289,0.31595535868104574,0.3270622568224306,0.3358503164999392,0.3461777182342341,0.3582763263120699,0.3699041316429504,0.3830750923837459,0.40109911124989567,0.4222068501420012,0.43581706160140965,0.43030676267476353,0.4088622314979189,0.38454504824196634,0.36533126622062956,0.35479582177847585,0.3555314795279764,0.3600620006383498,0.3534783448296926,0.3244414400874172,0.2740679682867883,0.2204309971181934,0.20137545841385507,0.2460227509868043,0.3761341522564464,0.5517279682080045,0.6794742444370847,0.7360856183507648,0.7502820506915647,0.7126500105777616,0.610929587357593,0.4601639516419727,0.30031931048730337,0.20773775186574706,0.24374280851437508,0.35139609134659344,0.44310957848157295,0.48104614655811256,0.4664653054909829,0.3930319610568537,0.2506343541418315,0.06990539789440384,-0.07491911501153566,-0.0708614546540503,0.1320713798742863,0.34781726665778306,0.48282139432561977,0.5705740624759356,0.6321126695134136,0.6764035665695235,0.7039524445501858,0.7067972979763614,0.6776857259237979,0.5818077750730437,0.35333169788056773,0.006676164934879312,-0.2956658539243994,-0.4719863819491639,-0.542849659231603,-0.5298932281614914,-0.4195776150403667,-0.13401517148987796,0.35406809748419804,0.6737622988624928,0.7625498654988841,0.7803777471265196,0.7848242860130178,0.7826733464955097,0.7568953809855378,0.6871976342385039,0.5735348353243256,0.4394949478778643,0.26616732617432753,-0.04290103022121129,-0.43685252351927295,-0.6792963419790665,-0.7780468869202234,-0.812554095994449,-0.8213655672715913,-0.8160481781826228,-0.7949448186528,-0.7475723221260272,-0.658376914350958,-0.5211211228037721,-0.3366444592687083,-0.09282078316716569,0.22353875966289546,0.5358941708623857,0.7187481315534373,0.7928773752096636,0.8107233546991495,0.7928843258854612,0.7444931278402093,0.6764610798920568,0.6051868258596944,0.5383107342259786,0.4656439022801714,0.3837141225184408,0.31690211931695117,0.29581887057996153,0.31638497083329475,0.3371741951345755,0.30164370377240657,0.15848709284861046,-0.06975035636381886,-0.27561872490016204,-0.41124546284466695,-0.48880436300441277,-0.5235532471060049,-0.5224331589425918,-0.49767107278315537,-0.4686403709723456,-0.45403886785872394,-0.45275160115420277,-0.45222625135290534,-0.4476899304631255,-0.43389017773267863,-0.4111691093976709,-0.37425553032500325,-0.320661982838925,-0.24799566742993953,-0.15722909574455515,-0.059193323126107415,0.037457511920452435,0.12247340387791514,0.18646258686120604,0.21892210198179385,0.21760868257566368,0.1844225128589975,0.11287635268471505,-0.0038583389248333134,-0.15897529835560145,-0.3251671010795479,-0.4703940141607846,-0.5838924186627489,-0.6686586785035135,-0.6952029659065352,-0.602108860774968,-0.42718582389253,-0.27935459498209236,-0.19503249270073772,-0.16308084174792634,-0.162599532123897,-0.18110470547542637,-0.2075808626400805,-0.22605491299249134,-0.2173633027277257,-0.1675679236973908,-0.08119647384627413,0.01229715327429212,0.08622597154286754,0.13052517086754323,0.14936796404379937,0.14907579265968024,0.13433818448207419,0.10533625247444547,0.06482520378314884,0.02171884460352656,-0.014607029490562293,-0.0416877603605401,-0.0645217352577355,-0.09568858338218937,-0.16796163419974394,-0.31385425768564496,-0.37453192818684145,-0.3370851562214307,-0.25539214972705865,-0.14059353376633502,-0.013099199759603455,0.10372641055841005,0.20102550355198862,0.27447157585408577,0.3125174672677428,0.3133648791743584,0.2861346879441304,0.24672741875690232,0.2092673083113862,0.17342368388726703,0.1333752526475594,0.08756278892645296,0.04035352649119877,-0.00465745778128223,-0.0450890424054345,-0.07725666778320084,-0.10154087689512527,-0.12192595219551437,-0.1394720065659423,-0.1498148473815668,-0.14769577148220567,-0.13124839233433186,-0.10093357639439818,-0.07099507354096193,-0.04694839121732319,-0.03100366728518071,-0.023741139034801857,-0.016264734305651275,0.0031019820587261356,0.03410079716397422,0.05590768370724956,0.05023070445932681,0.02602972124424427,0.010229335407035139,0.01580852675404731,0.036024158345061695,0.06138140582288465,0.09354139884154618,0.13747931363320104,0.19672907954033025,0.2688671806946925,0.3481570965261982,0.42879379597132594,0.49400367065414913,0.5330509243420871,0.5517963310765719,0.5699626129265414,0.6137898714491291,0.686546054710964,0.7791361733283018,0.8432048991442627,0.8497330204172685,0.8273131092446893,0.7904661516200274,0.7401894810847641,0.6813121500173627,0.6177737045717241,0.5603043033574638,0.534702537769169,0.543475677595816,0.5742514000042801,0.616794511781907,0.6547932439053901,0.6681467758701444,0.6394648353030509,0.571204957899376,0.47240640882400353,0.35767888944985454,0.25924524917754266,0.18838619764369105,0.15401680234398704,0.11692899412482606,0.08450510528733282,0.0987590485181646,0.1300423831907648,0.1788426631641025,0.25620635004971387,0.3702125467285078,0.4554768823358796,0.3795405056600305,0.22063957426788505,0.05978947358405603,-0.09603789324144478,-0.18779487597124106,-0.1837917636349687,-0.13936291740350942,-0.09515652325635618,-0.08262625391667194,-0.16059811943141036,-0.2956376005515364,-0.37908372704452764,-0.4074212731042154,-0.41946576184875556,-0.4265569454036987,-0.4246682518722827,-0.3584980607716119,-0.16440514843144907,0.03787365836840571,0.16606369461348564,0.23619448574157023,0.26665103892317776,0.2657658289682898,0.2341224104182945,0.17360722443299417,0.09432339062963982,0.011392294209273473,-0.0618487004264954
