0.008205890045080164,-0.0046103935448583416,-0.012963501809935874,-0.016617978069849788,-0.01576833754174601,-0.01132563484337514,-0.0048970197902785334,0.0014394659170636071,0.0061585617057958566,0.008707485816656188,0.008942928600939374,0.006895602788204059,0.002913543660419275,-0.002337857471261404,-0.007957776617597192,-0.013004444536367092,-0.016843188330711408,-0.01939211623139523,-0.020896903546123304,-0.02173630523443304,-0.022401684544478898,-0.022647366168556126,-0.02200245822172588,-0.020251989282920574,-0.01746762491432605,-0.013997397239725094,-0.010557886084506276,-0.007671152267088744,-0.0055316920555009775,-0.00486630958726888,-0.006412046576437901,-0.010322443300223092,-0.015717155975520744,-0.020426017977556936,-0.02213553787355854,-0.01992441588960843,-0.014642311502927826,-0.007998725660400892,-0.001918154732194792,0.0023095809665692364,0.004182887559226915,0.004254544910128524,0.0034151394319953,0.002258398137069478,0.0009583434036149358,-0.0002700544210840718,-0.001160642918208229,-0.0013346659281093548,-0.0004850240735673537,0.0010811829523790547,0.0027395206505181494,0.0044592774914020555,0.006199508222050562,0.007417669922995692,0.007479090329014999,0.006271164941314923,0.00463330113294043,0.003916735203571324,0.004838033714213961,0.007059386326673891,0.00955712634475997,0.01114381174509544,0.011020970933056824,0.00938310396649609,0.007479090329014999,0.006578261918313476,0.007274357747741468,0.009280740834045566,0.011798958531719736,0.01393841495348401,0.015187288120713292,0.01579124702473984,0.015842434907337586,0.015084918671890284,0.013528949790936948,0.01143043609560389,0.00904529804976238,0.006731812933361744,0.005247499508398272,0.004930163691605674,0.005513652495691111,0.00685465374540036,0.008123998275845248,0.008420861466147742,0.006834182382184752,0.002790703480017908,-0.0030134762527385542,-0.008561741837996224,-0.011878412181176426,-0.012144565168469266,-0.009687774193186886,-0.005511218797373625,-0.0009047268757976905,0.002995436692928688,0.006138088447668503,0.00942405300929979,0.014347880116031074,0.020571768272589382,0.025536544422124365,0.026764939909765556,0.0233356612779683,0.015955036879582156,0.0061278515027862026,-0.003627675259833646,-0.011039010492866692,-0.014908464490220666,-0.015379350058787036,-0.013188705754425014,-0.009401143526305958,-0.005408851875099611,-0.002317384213134051,-0.0004543141232125991,0.0007024273612043972,0.0015725424107100269,0.0020639012374037502,0.0018898782275026246,0.0010095268647519428,-7.555815305559275e-05,-0.0009149631890427428,-0.0012937194118546487,-0.0010480396826891625,-0.00016768794095613158,0.0014804124333183135,0.004326200997755636,0.008257077927677908,0.012802150074871784,0.017521244600329538,0.021278096625438937,0.02326400834852743,0.023345900117762344,0.02201513518129815,0.01991662148596509,0.017244852773242652,0.014173857737767196,0.010631977133725372,0.006516841512294168,0.0023095809665692364,-0.001211826379345236,-0.0033308127011684005,-0.0034229420469228658,-0.0005771539246316173,0.005677439192347185,0.01462427194311796,0.02415459791943491,0.03160687524726192,0.03518970489410745,0.03429912163957245,0.029416237259272383,0.02221986776257168,0.014808533161175882,0.008697253293234626,0.003937208461698678,-0.00019839789131088613,-0.00419069080579173,-0.007783754239333313,-0.009974398543695336,-0.009636586310589144,-0.006708909766740394,-0.003074896658757862,-0.0008023599535236765,-0.0010275664245618095,-0.0034843624529421733,-0.007210505538316418,-0.011090192059091954,-0.014611601299918172,-0.01814324306416595,-0.022237901006009066,-0.026649899817742764,-0.030324853757244766,-0.032341469366970424,-0.03203437365324637,-0.029280713171289018,-0.02450019823981196,-0.018583418429722668,-0.012809950794887606,-0.008459372389173216,-0.00628920450112479,-0.0059821043659399956,-0.006555358751692124,-0.007230976901532027,-0.007323107510560988,-0.006545119911898079,-0.005101753003189313,-0.0037402784953527116,-0.003300102498158747,-0.0042725844699383906,-0.006319915967408939,-0.008346770416928646,-0.009841318891862676,-0.010557886084506276,-0.010547647244712232,-0.009994869906910944,-0.00900191720355294,-0.007650680903873136,-0.006115181491223663,-0.004467080737966869,-0.002286674010124397,0.00048745758239366574,0.004019102125845339,0.008042106506610332,0.01210605424544379,0.015688883892289316,0.018125203504356088,0.018923662466234604,0.018544907506697194,0.017377932425075314,0.015432969744790522,0.01277143987186213,0.009413814169505746,0.00530891991441758,0.0004976942746210671,-0.004385187705457457,-0.008705054013250448,-0.011581548990873934,-0.012400485632340542,-0.011264214437355832,-0.009022388566768548,-0.006207310836978128,-0.0037709886983623656,-0.00230714726825175,-0.0016520023765392011,-0.0008842536176703373,0.0009276338322425302,0.004356911200765289,0.009290979673839612,0.015269179889948208,0.02182063512344618,0.02822878449806241,0.03354160540412515,0.03656141887337534,0.036592129076385,0.03411486042151453,0.030245406424160556,0.026130270802729352,0.02278288394016701,0.020172535633463884,0.017470063034104276,0.014368357795619166,0.011082391339076134,0.008001157463806632,0.005441996408063999,0.003916735203571324,0.0033946661738679467,0.0036505822162784854,0.004305727739628282,0.004704957220567542,0.004305727739628282,0.003067093412193048,0.0017977488817481598,0.0013370996264268414,0.0019410616886396319,0.0026269174149990827,0.002422184202088303,0.0009890536066245897,-0.0011811161763355823,-0.0034741255080598726,-0.005255302754963086,-0.0061663643207234215,-0.006350626170418593,-0.006575830114907734,-0.007568782818265738,-0.009216888624620516,-0.010957112407259294,-0.012564269170810376,-0.014212368660792672,-0.016177802704293073,-0.018358214485233528,-0.02026222812271462,-0.02126541966586667,-0.021173289056837706,-0.019914183366186864,-0.01765187981601149,-0.013956454513293878,-0.008735764216260102,-0.0026756671778186032,0.002944253231791681,0.007438141286211301,0.010846948554792948,0.013682500805985218,0.016487342854167836,0.01907721348128287,0.021001704798352054,0.022137975993336764,0.02278288394016701,0.023069508290675462,0.022680514491344006,0.021114313086969108,0.018145681183944176,0.013856523184249096,0.008779145062469542,0.003609635700023779,-0.0006385738885048513,-0.0033922324755504604,-0.00493796630653324,-0.006156127375841121,-0.007834935805558576,-0.01023031269119413,-0.013076103782180444,-0.016085678411636592,-0.019003122432063778,-0.02184890720667761,-0.024244284092313162,-0.02532936740470013,-0.02441830647057704,-0.021081158447808744,-0.015481713191237562,-0.00815227667544916,0.00030319788026513845,0.009526422458122796,0.019589048092652942,0.031197410084714862,0.04479169643261023,0.05918443542601164,0.07109993103003251,0.0770269623126608,0.07498986902334706,0.06581780137786197,0.052366820888848344,0.03782053088039867,0.02456405676560949,0.013743921212004526,0.0056262557312101785,-0.00021887121260196412,-0.004395424018702509,-0.007722333833314006,-0.010742147302564198,-0.012861132361112868,-0.012902081403916566,-0.01009723935573395,-0.004989149767670247,0.0006205340128763605,0.005247499508398272,0.008472043032373004,0.010222511971178308,0.00993588762066986,0.007427908762789737,0.0033741929157405934,-0.0016212921735295472,-0.006964823914239188,-0.012165042848057356,-0.016894369896936674,-0.02090713606954487,-0.0241521534832842,-0.026649899817742764,-0.028482254209410498,-0.029946098797707356,-0.031123312719123282,-0.0319217716810018,-0.03232099800375482,-0.03220839603151025,-0.031379226866622076,-0.029495684592356592,-0.026762501789987334,-0.023537955739463608,-0.020231517919704966,-0.017109341318004248,-0.014335209472831286,-0.01170438980291255,-0.00900191720355294,-0.005910448278312884,-0.002092177742095918,0.002371001372588544,0.007110567892899153,0.011706827922690774,0.015453441108006128,0.0175724261665548,0.017879528196651336,0.016855858973911196,0.015811724704327932,0.015330600295967514,0.015299890092957862,0.01551486151402544,0.015781014501318278,0.015729832935093016,0.014685692349137266,0.012208423694266798,0.008758673699253934,0.005267972766525625,0.002780467166772856,0.0020639012374037502,0.003497032464504712,0.006690870206930527,0.010457954755461494,0.013170666194615148,0.01388723338725875,0.012402917435746282,0.00982328564842529,0.007520033055446216,0.006199508222050562,0.005759332224856597,0.005687675505592237,0.005390812946926993,0.004807324142841555,0.003937208461698678,0.0026269174149990827,0.0006614808449496909,-0.0019795751382141,-0.005132462574561719,-0.008264878647693732,-0.010578357447721886,-0.011428004292198148,-0.010445284112261706,-0.007875884848362276,-0.0042725844699383906,-2.4374875093387738e-05,0.004356911200765289,0.007540510735034307,0.008236600248089818,0.005943591548002776,0.0017056189043564462,-0.0025425906841721837,-0.004436371166594464,-0.0025118804811625297,0.003138750131457408,0.010570556727706064,0.016784206044470326,0.01886224837658778,0.015555804240456654,0.008154708478854902,-0.0006181005040500485,-0.008213697081468468,-0.01291231392733813,-0.014304499269821634,-0.012513087604585112,-0.007916833891165976,-0.0016315291184118479,0.004234071020363922,0.007704294273504139,0.007837373925336802,0.005441996408063999,0.002493840921352663,0.0010709466391340022,0.0023095809665692364,0.00576956853810165,0.009516183618328752,0.01150209534141724,0.011317834123359318,0.010150852725364956,0.009956358983885468,0.011532805544426896,0.013743921212004526,0.014521902494294952,0.012525758247784898,0.007694061750082577,0.0014701761200732611,-0.003811935214617072,-0.0061663643207234215,-0.00493796630653324,-0.0008944899309153897,0.004817560456086608,0.010908368960812254,0.016026689809023026,0.019517395163212072,0.020919813029117138,0.020008752094994052,0.01732675085885005,0.014020306722718928,0.011246174877545964,0.00955712634475997,0.008891747034714112,0.008758673699253934,0.008369679899922478,0.006916074151419668,0.004060048642100044,0.00013941149942768913,-0.003842644785989478,-0.006923874871435489,-0.008940496797533632,-0.010271261733997828,-0.011387055249394448,-0.012594979373820028,-0.013843852541049308,-0.01489822565042662,-0.015829757947765314,-0.016822716967495804,-0.01782590851064785,-0.01826608387620457,-0.017047920911984944,-0.013280836363453976,-0.006770323856387219,0.0021662681596777643,0.013068303062164624,0.024287671254895084,0.033091191198774385,0.037431537081067216,0.037329167632244205,0.03435030320579771,0.030368240919826688,0.026283815501405138,0.02190253320905358,0.016610183666206448,0.009956358983885468,0.0023505281144611916,-0.0053781423037272055,-0.012052434559440304,-0.016597506706634176,-0.01863459999594793,-0.018552708226713018,-0.016669165952447534,-0.013250126160444322,-0.008633394767437094,-0.0033103388114037995,0.0021457949015504115,0.006936545514635276,0.010376062986226578,0.01154303806784846,0.01004848959291443,0.006322347770814681,0.0014701761200732611,-0.00311584254337532,-0.006801034059396874,-0.00947280277211931,-0.011663447076481332,-0.014243078863802326,-0.017590465726364666,-0.021306368708670368,-0.024551386122409702,-0.026721552747183634,-0.028144448292676788,-0.02961852540439521,-0.03172727162314983,-0.034337619929852965,-0.0365487355974306,-0.03696843328339922,-0.03474708509240002,-0.02973112737663978,-0.02234027045483207,-0.013301307726669584,-0.0027780334684553687,0.00933192240027083,0.02362228562847675,0.04083010550985482,0.06018762696916369,0.07827583547989009,0.09050862773919416,0.09347725964221909,0.08684393158860365,0.07319841945987564,0.05665597888854343,0.04097341768510904,0.028658721023825082,0.020551290593001294,0.016159769460855684,0.013917943590268404,0.011624929837083374,0.008001157463806632,0.0028009404249002092,-0.003300102498158747,-0.009442092569109656,-0.014570652257114472,-0.01795898184610803,-0.019351167188591534,-0.018849571417015508,-0.016761296561476496,-0.013925744310284224,-0.011059481856082302,-0.009186178421610864,-0.0090940478125819,-0.01121303287113057,-0.015195088840729112,-0.020006313975215826,-0.024254522932107208,-0.026670371180958368,-0.026455399759890794,-0.02377339852374679,-0.020088205744450742,-0.016986500505965636,-0.015471480667815998,-0.01567621324908953,-0.016443962007958394,-0.016392774125360648,-0.014949407216651882,-0.012380007952752452,-0.009278302714267344,-0.006207310836978128,-0.0038835919338814327,-0.0025425906841721837,-0.001969338193331799,-0.0014882156798831276,-0.0002700544210840718,0.0022174516208147716,0.005482942292681457,0.008738196019665844,0.010908368960812254,0.010570556727706064,0.007212937341722161,0.0018079851949932121,-0.004016667795890603,-0.00896096816074924,-0.01217527537147892,-0.013239887320650278,-0.011898889860764516,-0.008418429662741998,-0.003985957592880949,-0.00018816126224720957,0.0018796419142575722,0.0018591686561302192,0.00023154135049195277,-0.0016622386897842535,-0.0024811702781528757,-0.0017338954090486136,0.0002724879299103839,0.002483603976470363,0.003640345903033433,0.0034458496350049535,0.003241116422094174,0.0049813465211054325,0.009864228374856506,0.017357454745487222,0.025782219729829116,0.032507703657963447,0.03570153950547752,0.03547633556098838,0.0331526116047937,0.030368240919826688,0.028413045716120335,0.027379143969958632,0.026672809300736594,0.025915299381661774,0.02489163647529412,0.02338684284419356,0.021114313086969108,0.018237811792973138,0.014890424930410798,0.01143043609560389,0.008472043032373004,0.006588500758107521,0.005892408718503017,0.0060459584702767894,0.006803472179175097,0.008287788130687562,0.010509136321686756,0.012730490829058432,0.01382581298123944,0.012648599059823514,0.008901985874508158,0.003466322893132307,-0.0021024146869782186,-0.00608447128821401,-0.007353817713570643,-0.005726188323529457,-0.001969338193331799,0.0024631307183430096,0.005933355234757723,0.007427908762789737,0.006752284296577353,0.004684483962440188,0.002452894405097957,0.0011323664135160616,0.0010709466391340022,0.002012718407903992,0.003886025000561671,0.006373529337039944,0.008359441060128434,0.008594883844411618,0.006404239540049598,0.0017465654206111527,-0.004149744289537023,-0.00933972312028665,-0.012584740534025982,-0.01349580146814907,-0.01219574673469453,-0.00947280277211931,-0.006708909766740394,-0.005101753003189313,-0.0047434700385047615,-0.004917493048405887,-0.004579683341848688,-0.003566255485451586,-0.002286674010124397,-0.0012937194118546487,-0.0010992231438261694,-0.0021433612032329247,-0.0038835919338814327,-0.005132462574561719,-0.004958439564660593,-0.003760751753480065,-0.002829216929592376,-0.003023713197620855,-0.004313530986193097,-0.006238020408350534,-0.008643633607231138,-0.01143823681561971,-0.01412023805176371,-0.015942366236382368,-0.01637230276214504,-0.015215560203944722,-0.012707581346064598,-0.009452331408903702,-0.0060128145689496496,-0.0029213462753468413,-0.000495260765794755,0.0009481070903698834,0.0011118931553887087,0.00023154135049195277,-0.0009252001339250436,-0.0013449028729916556,-0.0006181005040500485,0.0012654429071624813,0.004408094661902296,0.008318498333697218,0.012177713491257144,0.01567864505249527,0.018800827970568472,0.021441880163908772,0.02317187773949847,0.023294718551537082,0.02134974955487981,0.01770550581838746,0.01346752938491764,0.009987069186895122,0.008134237115639294,0.007683822910288531,0.00781689624574871,0.007520033055446216,0.0060459584702767894,0.0033332463994858873,-0.0002700544210840718,-0.0041292710314096695,-0.007230976901532027,-0.008715292853044492,-0.008316060213918992,-0.006575830114907734,-0.004231637953683684,-0.00177484192530332,0.0008662134262232224,0.0036505822162784854,0.006209744535295615,0.008103526912629638,0.008748434859459888,0.007663351547072922,0.0045821170401661735,0.00023154135049195277,-0.0039450110766262435,-0.006534881072104034,-0.006913642348013925,-0.005408851875099611,-0.0030339495108659075,-0.000986619908307103,-0.00016768794095613158,-0.0009456733920523967,-0.0032284457788943864,-0.006657721884142649,-0.010690965736338938,-0.014212368660792672,-0.01637230276214504,-0.016996739345759678,-0.016454194531379956,-0.015471480667815998,-0.014642311502927826,-0.014069056485538448,-0.01366983016278543,-0.013076103782180444,-0.012369775429330888,-0.011735100005922204,-0.01132563484337514,-0.011141373625317218,-0.011028771653072648,-0.011100430898886,-0.011428004292198148,-0.0114177654524041,-0.009953927180479726,-0.006207310836978128,-7.555815305559275e-05,0.007376720880191993,0.014480959767863736,0.020070166184640876,0.023683706034496054,0.024983760767950596,0.023949865338161375,0.021656851584976346,0.01972212142811312,0.01908745232107692,0.01972212142811312,0.021134784450184716,0.02237341877761995,0.022588383882315044,0.0213702272344679,0.019015793075263562,0.016282610272894304,0.014440010725060036,0.014573090376892696,0.016794438567891888,0.020448927460550766,0.024441222269943354,0.02730748472414528,0.028095704846229752,0.026447605356247454,0.02311045733347916,0.01889295226322495,0.014501431131079344,0.010683158699950634,0.008185418681864556,0.006608972121323129,0.005247499508398272,0.003752948506915251,0.0019410616886396319,0.00029296125120146187,-0.0006283371962774499,-0.0005669172955679407,0.0002622513008467073,0.0011221301002710092,0.0012859161652898343,0.00035438115191097097,-0.0016622386897842535,-0.004559210083721334,-0.007671152267088744,-0.009790137325637412,-0.009831086368441112,-0.007742811512902096,-0.004467080737966869,-0.0011811161763355823,0.001367809197799247,0.002841886941154915,0.0032308794772118736,0.0023402911695788904,-0.0003314743217935809,-0.0050403332288072545,-0.011602026670462024,-0.01920785501333731,-0.026475877439478886,-0.03176822066595353,-0.03383602415827693,-0.03254620194824396,-0.029168111199044448,-0.025523867462552096,-0.022637127328762083,-0.02032364852873393,-0.017774720628050106,-0.013987164716303532,-0.008203458241674422,-4.484817111897578e-05,0.010734346582548378,0.02433885282112035,0.03987809553292803,0.05407634078484995,0.06247040188255468,0.062060936720007606,0.05318575121394247,0.03892609187237373,0.023448263250212868,0.010068960956130038,0.0006000607547490073,-0.004753706983387062,-0.006627011681132996,-0.005961631107812642,-0.0036481485179609987,-0.0006692840915145051,0.0017465654206111527,0.002780467166772856,0.002575733953862076,0.0022174516208147716,0.0025552606957347226,0.0038655517424343176,0.005871935460375664,0.007960214737375416,0.008973638803949028,0.008420861466147742,0.006424717219637689,0.0036505822162784854,0.0006819541030770441,-0.0021843077194876313,-0.004374950760575156,-0.005429325133226964,-0.005050569542052306,-0.0036072020017062926,-0.0021433612032329247,-0.0015189258828927814,-0.0019283916770770925,-0.0027882704133376695,-0.003719805237225359,-0.004374950760575156,-0.0041292710314096695,-0.0025425906841721837,0.00040556436039307863,0.003886025000561671,0.006885363948410014,0.008594883844411618,0.008697253293234626,0.007417669922995692,0.005370339688799639,0.0033741929157405934,0.0019410616886396319,0.0012347327041528273,0.0009583434036149358,0.0005693508043942529,-0.0002905277423751498,-0.0017134221509212606,-0.003709568292343058,-0.006074234974968957,-0.008571974361417786,-0.010220073851400084,-0.009790137325637412,-0.007179795335306765,-0.0039450110766262435,-0.002133124889987872,-0.0034229420469228658,-0.007742811512902096,-0.013014683376161136,-0.016720347518672796,-0.017262892333052518,-0.014713964432368696,-0.010332682140017136,-0.0057466615816568105,-0.0025630639422995365,-0.0016929488927939073,-0.003054423400630509,-0.005316722529345146,-0.00690340350821988,-0.007210505538316418,-0.006309677759252143,-0.0047434700385047615,-0.0035560191722065334,-0.0034229420469228658,-0.004293057728065743,-0.005357669045599853,-0.00560334814312809,-0.004159981234419324,-0.0012015894344629351,0.002504077866234964,0.00597430175101243,0.008420861466147742,0.009250030631035914,0.00893269607751781,0.008646065410636882,0.009076008252772034,0.010120142522355302,0.011348544326368974,0.01210605424544379,0.01214700328824749,0.011614697313661812,0.011000499569841218,0.010846948554792948,0.01125641371734001,0.012157235811669052,0.013385637615682724,0.014726641391940966,0.015873145110347237,0.016722785638451018,0.01766455677558376,0.018565385186285283,0.019179582930105882,0.01922053197290958,0.018872480900009342,0.01873940756454916,0.01878035029098038,0.018565385186285283,0.01730627317926196,0.014450249564854082,0.010068960956130038,0.004684483962440188,-0.000792123640278624,-0.005511218797373625,-0.008295588850703384,-0.008316060213918992,-0.005572638571755684,-0.0009047268757976905,0.003947445406580978,0.007223169865143723,0.007796424882533102,0.005616018786327877,0.0015725424107100269,-0.002993002994611201,-0.006606540317917387,-0.007722333833314006,-0.005439562078109264,7.799159871818e-05,0.007468851489220954,0.015187288120713292,0.021288329148860502,0.024318381457904742,0.023724655077299754,0.019937092849180698,0.014347880116031074,0.00891221839792972,0.005032530613879688,0.002790703480017908,0.0013882824559266,-0.00038265759343941345,-0.003371759217423107,-0.007599493021275391,-0.012717820185858642,-0.017600698249786228,-0.02090713606954487,-0.021541811492953554,-0.01916690597053361,-0.014939174693230318,-0.010895698317612468,-0.00926807019084578,-0.010639777853741192,-0.013976925876509486,-0.01746762491432605,-0.01956613860965911,-0.01994489356919652,-0.019269275419356618,-0.018358214485233528,-0.01762117592937432,-0.016740825198260884,-0.015481713191237562,-0.013843852541049308,-0.01197054279020539,-0.00989250677446042,-0.007190027858728328,-0.0033103388114037995,0.0013473359396718938,0.005472705979436405,0.007591692301259569,0.007335778153760776,0.005257736453280573,0.0028214136830275616,0.0016032526137196807,0.0024733676632253104,0.00523726319515322,0.008861036831704458,0.012402917435746282,0.015310128932751908,0.017224381410027044,0.018534674983275632,0.01969141122510347,0.021452119003702818,0.024021518267602248,0.027368905130164586,0.030767473558952187,0.033050248472343176,0.033193560647597396,0.031095046952264338,0.027256296841547536,0.02267027565154996,0.018677987158529853,0.016241661230090604,0.015606992123054398,0.016129059257846034,0.016272371433100254,0.014235278143786504,0.00942405300929979,0.002493840921352663,-0.0047434700385047615,-0.010557886084506276,-0.01402810744273475,-0.015062009188896452,-0.013946215673499834,-0.011294924640365486,-0.008254639807899686,-0.006463228142663163,-0.006698670926946349,-0.008295588850703384,-0.009636586310589144,-0.009257831351051734,-0.006770323856387219,-0.0032591559819040404,-0.00043384086508524596,0.0002724879299103839,-0.0012937194118546487,-0.004200927750674031,-0.006719142290161957,-0.00786564600856823,-0.008008958183822456,-0.007804225602548923,-0.007558550294844174,-0.00724120942495359,-0.006964823914239188,-0.006514409708888426,-0.006104944546341363,-0.006115181491223663,-0.006862454465416181,-0.007927066414587538,-0.008561741837996224,-0.008367241780144256,-0.007374289076786251,-0.0053474321007175515,-0.0020102847095865056,0.0031285131865751072,0.010355591623010968,0.019036270754851654,0.027501978465624768,0.03414557062452418,0.037503190010508086,0.03715514525398032,0.033336872822851624,0.02704133173685244,0.01976307047091682,0.012710019465842822,0.006793233339381052,0.002831650627909863,0.0010300001228792958,0.000999289919869642,0.002237924878942125,0.004397857717019995,0.006670392527342437,0.008185418681864556,0.008164947318648948,0.006312110825932381,0.0029851997480463874,-0.00096614665017975,-0.00507104280017966,-0.008735764216260102,-0.011612259193883588,-0.013147756711621316,-0.012769001752083906,-0.010803567708583508,-0.008049907226626152,-0.005204119293826079,-0.002880399759092135,-0.00103780336944411,0.00025201467178303074,0.0007126636744494497,0.0004362743739115581,6.775496965450344e-05,-6.532146082819134e-05,-0.0004850240735673537,-0.002419751135408065,-0.006309677759252143,-0.011735100005922204,-0.017406204508306745,-0.022534764196311556,-0.026844393559222246,-0.029679945810414516,-0.030222490624794242,-0.028410601279969628,-0.024551386122409702,-0.018962173389260078,-0.011489424698217454,-0.0023992772456434635,0.008246839087883864,0.020981233435136446,0.03678662281786448,0.055110242531011655,0.07269683632104458,0.0848375358695546,0.08761162350012018,0.07989320581774528,0.06430275627422241,0.0457948816593898,0.029037475983362492,0.016876336653499288,0.00906576941297799,0.0037017656774154923,-0.0012425359507176417,-0.007138846292503065,-0.014355680836046896,-0.022637127328762083,-0.030969761704075012,-0.03812518215797202,-0.04354036619648528,-0.0473381609480259,-0.04989732137213129,-0.05152494949889797,-0.05203677779389557,-0.05089028039186177,-0.04752241584971134,-0.04206628908476686,-0.03495181767367356,-0.026527059005704148,-0.016894369896936674,-0.005705715065402104,0.007386959719986038,0.022168686196346418,0.036725208728217655,0.04757606080120476,0.051629776016616655,0.0479855322801243,0.03852685923324822,0.026468083035835546,0.015381781862192778,0.007356249516976384,0.0028521232543999675,0.0007331369325768028,-0.0005976272459226953,-0.0021843077194876313,-0.0046411037478679956,-0.00813179899586107,-0.012390246792546496,-0.016771535401270538,-0.020753591370869084,-0.02373244948094309,-0.02441830647057704,-0.021500862450149854,-0.01453994205410482,-0.004456844424721817,0.006639682324332783,0.016149530621061642,0.02201513518129815,0.023304951074958648,0.020244194879277234,0.014480959767863736,0.008031867666816286,0.0029851997480463874,0.0008969236292328763,0.002422184202088303,0.007018437283870192,0.013549421154152558,0.021022176161567662,0.02815712525224906,0.03345971363489024,0.035537755967007686,0.033930599203456605,0.029201265838204805,0.02289548591241158,0.016692075435441364,0.01182966873472939,0.00879961642568515,0.007663351547072922,0.008093288072835594,0.009290979673839612,0.009976830347101076,0.009434291849093836,0.008001157463806632,0.005933355234757723,0.003067093412193048,-0.0008535434146606835,-0.005623821401255443,-0.01000510874670499,-0.01264616094004529,-0.012666638619633382,-0.010240551530988176,-0.006749852493171611,-0.004037141054017956,-0.0031363164331399216,-0.004487553996094223,-0.007773515399539269,-0.011776049048725902,-0.01485727660762292,-0.015809286584549706,-0.014550180893898864,-0.01179652041194151,-0.00824440096810564,-0.004579683341848688,-0.0012630092088449947,0.001490649378200614,0.003804131968052258,0.005421523149936646,0.005841225889003258,0.00463330113294043,0.002176504472922817,-0.00096614665017975,-0.004078088201909911,-0.006627011681132996,-0.007886123688156322,-0.007793993079127359,-0.006780562696181265,-0.005367905358844904,-0.0042725844699383906,-0.004016667795890603,-0.004405660331947562,-0.004886782845396233,-0.00493796630653324,-0.00419069080579173,-0.002747323265445715,-0.0010685129408165156,0.0001598848207187671,0.0009890536066245897,0.0018898782275026246,0.0031285131865751072,0.004438804233274702,0.005462469666191352,0.006353057973824336,0.007131045572487245,0.007939737057787326,0.009055536889556426,0.01114381174509544,0.014143147534757544,0.01768502813879937,0.021216676219419632,0.024420744590355262,0.026898019561598218,0.027522456145212856,0.02520897102881222,0.01965046849867225,0.012075344042434136,0.004838033714213961,-0.00024958116295671867,-0.0023276211580163515,-0.0015803456572748408,0.0010300001228792958,0.003947445406580978,0.005882172405257965,0.006414478379843643,0.005554599011945817,0.003988391922835685,0.0026064441568717294,0.0018489317112479185,0.0016339621850920863,0.0015623060974649743,0.0011221301002710092,0.0004976942746210671,9.846492000925798e-05,0.00029296125120146187,0.0008457401680958692,0.0012654429071624813,0.0009890536066245897,-0.0005669172955679407,-0.0036583854628432994,-0.007978254297185282,-0.012277644820301926,-0.015205327680523158,-0.016003786642401676,-0.014877754287211012,-0.012431195835350196,-0.009329490596865086,-0.006053761716841604,-0.0034024687887955125,-0.00184649864456768,-0.00184649864456768,-0.0032591559819040404,-0.005613585088010391,-0.007599493021275391,-0.008428662186163562,-0.008172748038664768,-0.00752784009183452,-0.007005766640670405,-0.006627011681132996,-0.006063998030086656,-0.0051938829805810265,-0.004067851257027611,-0.002859926500964782,-0.001549635454265187,-7.555815305559275e-05,0.0014292296038185548,0.0027599939086455027,0.0038553154291892646,0.004684483962440188,0.005513652495691111,0.00634281913403029,0.007479090329014999,0.00969020599659263,0.013273035643438154,0.017582665006348846,0.021687561787986004,0.024922346678303772,0.02721535411511632,0.02883274340208896,0.029754043176006096,0.029774514539221704,0.02845398844255155,0.025649146394368934,0.021206437379625586,0.015392020701986822,0.009290979673839612,0.00429549142638323,0.001050473381006649,-0.0007102306077692114,-0.0015701087123925403,-0.002000048396341453,-0.0020512312258412113,-0.002409514190525764,-0.004200927750674031,-0.008254639807899686,-0.01451947069088921,-0.021541811492953554,-0.026854632399016296,-0.027919238031815168,-0.023711978117727486,-0.014580891096908518,-0.001600818915402194,0.01384628434445505,0.030961967300431673,0.04905013791292318,0.06662648654678957,0.0809578303996616,0.08875817143313383,0.08780616777257952,0.07818367960537119,0.062306612027712364,0.0435121130623713,0.024799505866265156,0.008277549290893518,-0.005316722529345146,-0.015553372437050912,-0.022401684544478898,-0.026312087584636566,-0.027909005508393606,-0.027847585102374298,-0.026721552747183634,-0.025073453257201332,-0.023578904782267308,-0.022862337589623707,-0.02378363736354084,-0.026762501789987334,-0.03139970454621017,-0.03610856023187387,-0.03898505520949736,-0.03922049799378055,-0.036978672123193265,-0.03301709383318281,-0.028379891076959977,-0.023804108726756448,-0.01990394452639282,-0.016884137373515108,-0.014754913475172396,-0.013035154739376746,-0.011264214437355832,-0.009175939581816818,-0.006862454465416181,-0.004620629858103394,-0.0028087436714650227,-0.00184649864456768,-0.002163834461360278,-0.003760751753480065,-0.00628920450112479,-0.009053098769778204,-0.01153036742464867,-0.013280836363453976,-0.013976925876509486,-0.013301307726669584,-0.010885459477818422,-0.006770323856387219,-0.0019795751382141,0.0023095809665692364,0.005472705979436405,0.007489329168809045,0.008420861466147742,0.008758673699253934,0.008983877643743074,0.009188610225016604,0.00891221839792972,0.008093288072835594,0.007090096529683545,0.006424717219637689,0.006844414905606315,0.008646065410636882,0.011604458473867766,0.014972316699645714,0.018043311735121168,0.020643421202030252,0.022363179937825904,0.02263957176491279,0.021615902542172646,0.020193013313051972,0.019619758295662596,0.020059933661219314,0.0206536600418243,0.020018984618415614,0.016947989582940158,0.01188085030095465,0.005943591548002776,0.0006614808449496909,-0.003054423400630509,-0.0050096230257976,-0.005552165313628331,-0.005030096283924953,-0.004037141054017956,-0.0035048357110695266,-0.004149744289537023,-0.005623821401255443,-0.006893164668425835,-0.007261687104541681,-0.006504170869094381,-0.004968676509542894,-0.0036072020017062926,-0.0028906367039744354,-0.0029111099621017887,-0.0036686217760883515,-0.005265539699845387,-0.007486891049030821,-0.009309012917276996,-0.009401143526305958,-0.007138846292503065,-0.00258353720042689,0.003916735203571324,0.011184754471526658,0.017623614049152546,0.021677322948191958,0.022424600343845212,0.01998827441540596,0.015443202268212084,0.010324881420001314,0.005882172405257965,0.0027292837056358487,0.000978816661742289,0.0008355038548508168,0.0023300542246965897,0.004766376994949601,0.007274357747741468,0.00893269607751781,0.00910671845578169,0.007632641344063269,0.005032530613879688,0.0023812376858335965,0.0007126636744494497,0.00020083140013719823,0.0006717171581947434,0.0015008856914456665,0.0018591686561302192,0.001541832207700373,0.0009890536066245897,0.0013166263682994883,0.003067093412193048,0.006189271277168261,0.00993588762066986,0.01346752938491764,0.015760543138102667,0.016620422506000494,0.016538524420393094,0.015760543138102667,0.014501431131079344,0.013068303062164624,0.011891089140748696,0.011133572905301394,0.010550085364490454,0.009618546750779276,0.008113759436051202,0.006086904986531496,0.003978154977953384,0.002493840921352663,0.0019717718916492854,0.0023505281144611916,0.003261589680221527,0.004346674255882988,0.005452232721309052,0.006066432360041391,0.005585309214955472,0.004377384458892642,0.003630108958151132,0.004049811697217744,0.005554599011945817,0.007253880068153378,0.007960214737375416,0.007090096529683545,0.00429549142638323,-0.0003417110140209823,-0.005961631107812642,-0.011161851304905308,-0.014509231851095166,-0.01485727660762292,-0.012001252993215042,-0.006688432087152304,-0.00011650473247402388,0.006250691683187569,0.010683158699950634,0.011706827922690774,0.008605122684205664,0.002504077866234964,-0.004088324515154964,-0.008612923404221486,-0.010168892285174822,-0.009247592511257688,-0.00716955649551272,-0.005214356238708379,-0.0036788587209706527,-0.0023685676742710576,-0.0009252001339250436,0.0008662134262232224,0.002422184202088303,0.0026064441568717294,0.0008355038548508168,-0.002573300255544589,-0.006708909766740394,-0.010598835127309976,-0.013628881119981732,-0.015778576381540052,-0.017027449548769336,-0.017457386074532004,-0.016935318939740374,-0.015696684612305136,-0.01404858512232284,-0.01221622441428262,-0.010281500573791872,-0.008377480619938302,-0.006555358751692124,-0.004825363071014174,-0.0031670260045123274,-0.0016315291184118479,-0.0005976272459226953,-0.0003621843353120603,-0.0010889861989438687,-0.0024504607067804707,-0.0036072020017062926,-0.0038324084727444255,-0.0028496901877197293,-0.0009968568531894038,0.0008662134262232224,0.0020946114404134042,0.0026883371893811426,0.003251352735339226,0.004623064188058129,0.006803472179175097,0.00933192240027083,0.011645407516671466,0.013180905034409194,0.01413291501133598,0.015146339077909592,0.01728580181604635,0.02112454561039067,0.026335003384002884,0.03126906933052821,0.034329831842582106,0.0345857459900809,0.032200601627866914,0.028239017021483976,0.024123881400052772,0.021001704798352054,0.018954372669244258,0.017122011961204036,0.01447072092806969,0.010130381362149346,0.0036505822162784854,-0.004538736825593982,-0.012850893521318822,-0.019340928348797488,-0.022319792775243978,-0.021081158447808744,-0.016228990586890816,-0.00969800671660845,-0.0035048357110695266,0.0008559771129781701,0.002964726489919034,0.0038143689129345585,0.005145133217761506,0.008676775613646534,0.016067638851826726,0.028064994643220098,0.04318453335268667,0.05709615425410014,0.06497835547494486,0.06403658433781212,0.05437319765877996,0.03890561419278563,0.021830873963240228,0.007059386326673891,-0.0028496901877197293,-0.007579021658059783,-0.008561741837996224,-0.008254639807899686,-0.008950729320955194,-0.01190912238418608,-0.017058159751778986,-0.023179672143141806,-0.028850776645526346,-0.03256667962783205,-0.03368247314322866,-0.032341469366970424,-0.02953662731878781,-0.026107355003363038,-0.022360741818047678,-0.01826608387620457,-0.01402810744273475,-0.009820847528647066,-0.00588997502018553,-0.0030646597138755615,-0.002020521654468806,-0.0025016441679174776,-0.004078088201909911,-0.006186837578850775,-0.007681384790510308,-0.007773515399539269,-0.006432517939653509,-0.00405761431214531,-0.0011504059733259283,0.0015213589495730198,0.003118276241692807,0.003138750131457408,0.001838695398002866,-0.00021887121260196412,-0.0022969109550066975,-0.0038016982697347715,-0.004303294041310796,-0.003965484334753596,-0.0035048357110695266,-0.0033410496460507012,-0.003791461956489719,-0.005060806486934607,-0.007271919627963245,-0.01023031269119413,-0.013506040307943116,-0.016720347518672796,-0.019555899769865062,-0.021654413465198124,-0.022923757995643012,-0.023128490576916544,-0.022104827670548888,-0.019576371133080674,-0.015399821422002644,-0.009687774193186886,-0.0029418201651114427,0.00456164441367607,0.012935223410331962,0.022281288168590988,0.032896697457294906,0.044238912778436466,0.05331883086577513,0.056676450251759034,0.05280698993803258,0.04308217022023615,0.030634393907119528,0.018258283156188746,0.007397198559780084,-0.0013960857024914145,-0.008213697081468468,-0.0130249158995827,-0.015758105018324444,-0.016464433371174002,-0.015420292785218252,-0.012707581346064598,-0.008541264158408132,-0.0031363164331399216,0.0026269174149990827,0.007182227138712506,0.009239791791241868,0.008164947318648948,0.004070284955345098,-0.0015598723991474878,-0.006749852493171611,-0.01011771071894956,-0.010936641044043686,-0.009288541554061388,-0.006176600633968475,-0.0026244837166815964,0.00047722095332998916,0.003261589680221527,0.0061278515027862026,0.008881508194920068,0.010765056785558032,0.011624929837083374,0.011952503230395522,0.01190132166417026,0.01156351574743655,0.010867419918008558,0.009546893821338406,0.007376720880191993,0.004275018168255877,0.00046698432426631257,-0.003515072024314579,-0.006964823914239188,-0.008950729320955194,-0.00907357013299381,-0.007681384790510308,-0.005695478120519804,-0.0033410496460507012,-0.0003314743217935809,0.0038450784843069644,0.008994110167164638,0.014573090376892696,0.01991662148596509,0.024410512066933704,0.027839790698730958,0.030061145206102632,0.030982444980019768,0.03072652451614849,0.029713094133202396,0.028750851632854044,0.02811617620944536,0.028034284440210444,0.028208313134846803,0.028259494701072068,0.027686239683682688,0.026335003384002884,0.024297910094689134,0.021646612745182304,0.018534674983275632,0.015064447308674676,0.01136901568958458,0.007878316651768018,0.004971109576223132,0.002841886941154915,0.00166467238810174,0.0013575728845541947,0.0008764503711055231,-0.00096614665017975,-0.00480488981288682,-0.009820847528647066,-0.014447811445075856,-0.016771535401270538,-0.015870706990569014,-0.012205985574488574,-0.007333340033982552,-0.003177262949394628,-0.0013960857024914145,-0.003146552746384974,-0.00824440096810564,-0.015031298985886798,-0.021050448244799094,-0.024745879863889188,-0.025615998071581058,-0.024254522932107208,-0.021449680883924592,-0.018040879931715426,-0.015195088840729112,-0.013680062686206994,-0.013546989350746814,-0.014447811445075856,-0.015440770464806342,-0.015502184554453168,-0.014437578921654294,-0.012840660997897258,-0.011305163480159532,-0.01011771071894956,-0.00920664978482647,-0.008418429662741998,-0.007804225602548923,-0.007691623630304353,-0.008531031634986568,-0.010035818949714642,-0.011663447076481332,-0.01279971195509356,-0.013137524188199752,-0.01264616094004529,-0.011745338845716248,-0.010209841327978522,-0.007783754239333313,-0.004722996780377408,-0.0016315291184118479,0.0007331369325768028,0.0018898782275026246,0.002227687934059824,0.0025552606957347226,0.0030261468959383417,0.0030261468959383417,0.002647390673126436,0.0021457949015504115,0.0017568017338562053,0.0016237258718470337,0.0018489317112479185,0.0025347874376073698,0.003497032464504712,0.004408094661902296,0.005411285573417097,0.007038914963458283,0.009475234575525054,0.012566707290588598,0.016006218445807418,0.01929218490235045,0.02186158416624988,0.023366371480977952,0.023612053105055184,0.022915963591999673,0.022097026950533068,0.021718271990995658,0.022189157559562026,0.023745126440515362,0.0263759461104341,0.029539071754938515,0.0321801302646513,0.03392036036366256,0.03493379074660865,0.03580390895430052,0.036878753426893444,0.03777958183759497,0.03760555945933109,0.035906272086751054,0.032139187538220086,0.026027901353906344,0.01772597718160307,0.007694061750082577,-0.003044186455748208,-0.013229654797228714,-0.02068193212505573,-0.023537955739463608,-0.020866193343113654,-0.013332017929679238,-0.003095369916885215,0.006394007016628034,0.01188085030095465,0.01148161766182915,0.005329393172544932,-0.0042725844699383906,-0.01459112362033008,-0.02313872941671059,-0.02823657890170575,-0.02899408882078057,-0.026015224394334076,-0.020835483140103996,-0.015225799043738766,-0.010864988114602814,-0.008858605028298716,-0.009503512975128964,-0.01164296939689324,-0.013567460713962424,-0.013905272947068616,-0.012349297749742796,-0.009554694541354226,-0.006381336373428247,-0.0038324084727444255,-0.002706376749191009,-0.0033922324755504604,-0.005449799022991565,-0.007763282876117706,-0.009718484396196542,-0.01136658388617884,-0.012840660997897258,-0.014130476891557756,-0.015338401015983336,-0.016474665894595564,-0.01731407389927778,-0.017273124856474083,-0.016116388614646246,-0.014110005528342146,-0.011857940817960818,-0.00960587610757949,-0.007220738061737982,-0.004334003612683202,-0.00038265759343941345,0.005124659959634153,0.012392684912324722,0.021605670018751088,0.03352112772453706,0.04862020138716051,0.0657871038075973,0.0816538946472272,0.09153232222742423,0.09184965678094234,0.08216577347320463,0.0656027920585595,0.047115414072432436,0.031524983478027006,0.021544249612731776,0.016579473463196794,0.01439906799862882,0.012740729668852476,0.009874467214650552,0.005022293668997388,-0.0007102306077692114,-0.0054600359678738655,-0.007732572673108052,-0.007732572673108052,-0.006811272899190919,-0.006667960723936695,-0.008377480619938302,-0.01210362244203805,-0.01708886995478864,-0.022196958279577846,-0.025964042828108814,-0.02725385872176931,-0.026342797787646224,-0.023906478175579452,-0.020630750558830464,-0.017406204508306745,-0.015328162176189292,-0.014662782866143434,-0.01474467463537835,-0.01485727660762292,-0.015113197071494196,-0.015512423394247212,-0.015962837599597976,-0.016300643516331686,-0.016781767924692104,-0.017907800279882768,-0.020098444584244788,-0.023220621185945506,-0.026629422138154668,-0.029516155955572203,-0.031368994343200514,-0.031983185770648626,-0.031143784082338893,-0.02857438481843946,-0.0241521534832842,-0.017969220685902076,-0.010690965736338938,-0.0037505154402350123,0.0009276338322425302,0.002493840921352663,0.0017363291073661002,0.0004976942746210671,0.000374854473202049,0.001715855849238747,0.0035686891837690723,0.0042238347071188705,0.002841886941154915,-9.60314111829459e-05,-0.003371759217423107,-0.005552165313628331,-0.005695478120519804,-0.004016667795890603,-0.0010275664245618095,0.002872597144164569,0.007366488356770429,0.011952503230395522,0.016323552999325516,0.020203245836473534,0.023038798087665808,0.02456405676560949,0.024932579201725334,0.023939626498367332,0.021789924920436528,0.01920005429332149,0.017162961004007736,0.016620422506000494,0.01836065260501175,0.022700992170932098,0.029129606592391454,0.03640786785832707,0.04286719879916857,0.04685949360856116,0.04746345251258771,0.04474050855001249,0.03955052213961588,0.033029770792755084,0.02621216257196427,0.019947331688974744,0.014716402552146922,0.010478426118677102,0.007069625166467937,0.004131704729727157,0.0015520691525826736,-0.0002700544210840718,-0.0005976272459226953,0.0008662134262232224,0.0034151394319953,0.005534125753818465,0.005933355234757723,0.00429549142638323,0.0010811829523790547,-0.0024811702781528757,-0.0050403332288072545,-0.005664768549147397,-0.004722996780377408,-0.00311584254337532,-0.0016315291184118479,-0.0006488102017499037,-0.00022910784166564068,-0.0006692840915145051,-0.0020819414288508653,-0.0041087977732823175,-0.006350626170418593,-0.008305821374124948,-0.009912978137676026,-0.011428004292198148,-0.012922552767132176,-0.01400763607951914,-0.01440686871864464,-0.014294260430027588,-0.014058817645744404,-0.01389503410727457,-0.013393438335698546,-0.01190912238418608,-0.009134990539013118,-0.005736425268411757,-0.00258353720042689,-2.4374875093387738e-05,0.0017056189043564462,0.0022993446533241843,0.001715855849238747,0.00010870154907293455,-0.002337857471261404,-0.005152935832689072,-0.007896356211577886,-0.010127949558743606,-0.011253981913934268,-0.010936641044043686,-0.009483035295540874,-0.00752784009183452,-0.00588997502018553,-0.005265539699845387,-0.005582875516637985,-0.0061663643207234215,-0.0062175471502231815,-0.005644294659382796,-0.0049789128227879466,-0.004456844424721817,-0.003719805237225359,-0.002419751135408065,-0.000413367543794168,0.002504077866234964,0.00591288197663037,0.008830326628694804,0.010222511971178308,0.00991540994108177,0.008942928600939374,0.008195657521658602,0.007663351547072922,0.006864892585194405,0.005544362698700765,0.0036198720132688315,0.0010914198972613554,-0.0014575054768734739,-0.003269392926786341,-0.0028496901877197293,0.0010095268647519428,0.007990924940385068,0.01641568360835448,0.024359330500708442,0.030112326772327894,0.032487232294747835,0.031023387706450984,0.026201923732170226,0.01940478687459502,0.012750962192274038,0.007714533113298185,0.004715193533812593,0.003609635700023779,0.003752948506915251,0.004356911200765289,0.004541171155548716,0.003947445406580978,0.0028111773697825095,0.0020024820946589394,0.0023812376858335965,0.004315964684510584,0.007489329168809045,0.011471385138407588,0.015760543138102667,0.019568576729437334,0.021738743354211266,0.021738743354211266,0.01978354183413243,0.016477104014373786,0.012791911235077738,0.009127189818997298,0.005564835956828118,0.002084375127168352,-0.0014677424217557744,-0.004825363071014174,-0.007988486820606846,-0.010926408520622122,-0.014017874919313186,-0.017273124856474083,-0.02014962615047005,-0.022360741818047678,-0.02394742090201067,-0.025319134881278564,-0.026475877439478886,-0.026936524168251208,-0.02602545691775564,-0.02294422935885862,-0.017600698249786228,-0.0107011982597605,-0.0035560191722065334,0.0024426574602156564,0.00662944980091122,0.009321683560476784,0.01127688508055562,0.012965933613341616,0.014665214669549176,0.016538524420393094,0.018391362808021408,0.019210293133115532,0.01766455677558376,0.013221854077212892,0.00634281913403029,-0.0014984526247654284,-0.008612923404221486,-0.014099766688548102,-0.0181125328611563,-0.02090713606954487,-0.022637127328762083,-0.022647366168556126,-0.019760632351138594,-0.01349580146814907,-0.004313530986193097,0.006598739597901566,0.01817638507058135,0.030020196163298932,0.042406552070396245,0.05522284450325622,0.06717929546645328,0.07562453813038325,0.07782541495816685,0.07251258773573163,0.06079158587319024,0.04556967771490066,0.030327298193395472,0.017787397587622378,0.009147661182212906,0.0040907582134724505,0.0011835498746530686,-0.00103780336944411,-0.003494598766187226,-0.006596301478123342,-0.010312204460429046,-0.01400763607951914,-0.016955790302955978,-0.01867554903875163,-0.019146434607318002,-0.018921230662828862,-0.018665310198957587,-0.018808622374211808,-0.019453530321042058,-0.01996536493241213,-0.0195047182036398,-0.01769282885881519,-0.015195088840729112,-0.013352489292894848,-0.012656399779839336,-0.013157995551415362,-0.014089527848754056,-0.01501082762267119,-0.016362063922350994,-0.018890514143446727,-0.02275997445717318,-0.027171966952534394,-0.030939051501065365,-0.0329147243843598,-0.032280055277323604,-0.029403553983327634,-0.02534984508428822,-0.021398493001326846,-0.01833773680564544,-0.016249461950106424,-0.015154139797925412,-0.014754913475172396,-0.014222607500586716,-0.013096575145396052,-0.01143823681561971,-0.01007676167614586,-0.009595643584157926,-0.009943688340685682,-0.010281500573791872,-0.00938067216309035,-0.0061458910625960695,-0.000413367543794168,0.006578261918313476,0.013365166252467116,0.019138633887302182,0.02355063269903588,0.02650902576226676,0.02800357423720079,0.02804452328000449,0.02719488275190071,0.026222395095385834,0.025536544422124365,0.024799505866265156,0.023448263250212868,0.02112454561039067,0.017695266978593416,0.01346752938491764,0.009372871443074528,0.006301874512687328,0.0047561400500673,0.004868743917223615,0.006168798019040909,0.007632641344063269,0.008523224598598266,0.008666543090224972,0.008052339030031896,0.006721580409940182,0.005001819779232786,0.0033639559708582927,0.0021867414178051176,0.0014701761200732611,0.0004465110029752346,-0.001549635454265187,-0.004620629858103394,-0.007855413485146666,-0.00943185372931561,-0.008060146066420198,-0.0041292710314096695,0.0015111226363279673,0.007970447260796978,0.014552612697304606,0.020889102826107484,0.027368905130164586,0.034002252132897474,0.03942768132757727,0.042263233578769537,0.04229395009815168,0.039847385329918376,0.03505663155864727,0.028320915107091373,0.02072531297126517,0.013743921212004526,0.00855393480160792,0.005462469666191352,0.004193125135746464,0.0037734217650426042,0.0029340169185466283,0.0009685803484972364,-0.001826025386440327,-0.004589920286730989,-0.006667960723936695,-0.007722333833314006,-0.007927066414587538,-0.007814464442342968,-0.007660913427294699,-0.007712101309892443,-0.007927066414587538,-0.008193219401880378,-0.008316060213918992,-0.008254639807899686,-0.007886123688156322,-0.007292397307551335,-0.006821511738984964,-0.00716955649551272,-0.00860268456442744,-0.010998061450062994,-0.013506040307943116,-0.015328162176189292,-0.016126621138067808,-0.015942366236382368,-0.015031298985886798,-0.013690301526001038,-0.01181699177515712,-0.00926807019084578,-0.006729381129956002,-0.004856073274023828,-0.0038528817308717783,-0.003207972520767033,-0.002317384213134051,-0.0008433071014156311,0.000999289919869642,0.0027702302218905552,0.003947445406580978,0.004152177987854509,0.0034151394319953,0.0024426574602156564,0.0020639012374037502,0.0025143141794800165,0.004152177987854509,0.006711341570146136,0.009495712255113144,0.011583987110652158,0.012423388798961892,0.012290315463501714,0.012044633839424484,0.01237220723273663,0.013416347818692378,0.014532141334088996,0.015525094037447004,0.016231422390296558,0.01641568360835448,0.016640893869216102,0.01766455677558376,0.019281952378928886,0.020090643864228964,0.01873940756454916,0.01475735159495062,0.009086240776193598,0.00335371965761324,-0.0009149631890427428,-0.0027677965235730685,-0.0019795751382141,0.0008150305967234637,0.0038450784843069644,0.005267972766525625,0.004019102125845339,0.0006921904163220966,-0.0030646597138755615,-0.005920684591557936,-0.00775304403632366,-0.009257831351051734,-0.011376816409600402,-0.01416118709456741,-0.016740825198260884,-0.018194424630391216,-0.017928271643098376,-0.01576833754174601,-0.012246934617292272,-0.008367241780144256,-0.00527577601309044,-0.0035457822273242327,-0.002737086952200663,-0.002286674010124397,-0.0020717044839685646,-0.0018976814740674388,-0.0014984526247654284,-0.0005362073452131862,0.001224496390907775,0.003578925497014125,0.006240454738305269,0.008379912423344042,0.009393342806290136,0.009147661182212906,0.008502753235382658,0.008482281872167048,0.009546893821338406,0.01114381174509544,0.012044633839424484,0.01156351574743655,0.009628785590573322,0.006035721525394489,0.0009173968873602295,-0.005091516058307013,-0.010711437099554546,-0.014754913475172396,-0.0161061497748522,-0.014232846340380762,-0.009790137325637412,-0.004180454492546677,0.0015008856914456665,0.006240454738305269,0.009301212197261174,0.010324881420001314,0.009884699738072116,0.008830326628694804,0.008564173641401964,0.010161091565159,0.013293507006653764,0.016743257001666626,0.019322895105360102,0.019998513255200006,0.018463015737462278,0.015299890092957862,0.01156351574743655,0.008195657521658602,0.005687675505592237,0.004234071020363922,0.003988391922835685,0.004827797400968908,0.006373529337039944,0.00844133282936335,0.010529614001274846,0.011604458473867766,0.010887891281224164,0.008543702278186358,0.005523888808936164,0.003292299883231181,0.002749756963763202,0.0037427121936701984,0.005063240185252094,0.005482942292681457,0.004807324142841555,0.003118276241692807,0.0008252669099685162,-0.0013039557250997009,-0.0028394532428374286,-0.0036788587209706527,-0.0039450110766262435,-0.003494598766187226,-0.002460697651662771,-0.0012732461537272954,-0.0005771539246316173,-0.00096614665017975,-0.0025937735136719424,-0.004825363071014174,-0.006156127375841121,-0.005245066441718034,-0.001969338193331799,0.0024119478888432505,0.006148324760913556,0.007868084128346454,0.006946784354429322,0.003886025000561671,-0.0006181005040500485,-0.006350626170418593,-0.012953262970141828,-0.019535428406649454,-0.025267953315053302,-0.030038229406736318,-0.03426596068403961,-0.03807399427537428,-0.041349721892123256,-0.04418527414331553,-0.04631449804165824,-0.04690821810589074,-0.044871124816577,-0.03970162240214096,-0.0317784531893751,-0.021900095089275356,-0.010506704518281014,0.002053664924158698,0.015842434907337586,0.031289540693743824,0.04765795888681216,0.06214282848924253,0.07109993103003251,0.07270706884446615,0.06756825768392233,0.05763869906847987,0.045078320783118686,0.03162735292685002,0.018422073011031062,0.006639682324332783,-0.0028087436714650227,-0.009564933381148272,-0.013526511671158724,-0.014949407216651882,-0.014058817645744404,-0.010864988114602814,-0.005971868052694943,-0.0008023599535236765,0.0031796966477121145,0.005360102743917339,0.0061585617057958566,0.006465659946068906,0.006997965920654583,0.008011396303600678,0.009516183618328752,0.011307595283565274,0.013252557963850064,0.015453441108006128,0.018217334113385046,0.021421408800693164,0.02384749588933837,0.023980569224798548,0.020889102826107484,0.015074686148468722,0.008482281872167048,0.00335371965761324,0.0011528396716434148,0.002227687934059824,0.005636492676092479,0.009905177417660206,0.013221854077212892,0.014716402552146922,0.014460488404648126,0.013191137557830756,0.01163516867687742,0.010099671159139692,0.00872796349624428,0.007796424882533102,0.007171988298918461,0.005902645663385318,0.002831650627909863,-0.0020819414288508653,-0.007302629830972898,-0.010926408520622122,-0.011602026670462024,-0.009503512975128964,-0.005920684591557936,-0.0028394532428374286,-0.0020102847095865056,-0.003924538450136138,-0.008029435863410546,-0.012564269170810376,-0.016024258005617284,-0.017590465726364666,-0.017631408452795885,-0.017047920911984944,-0.01708886995478864,-0.019003122432063778,-0.02309778037390689,-0.028257050264921358,-0.032802122412115234,-0.03554554405427854,-0.035975480580041214,-0.034399040335872266,-0.03185011243518845,-0.029383082620112022,-0.027581432115081458,-0.026230195815401654,-0.024848249312712192,-0.023108019213700936,-0.02048743206720376,-0.016761296561476496,-0.01197054279020539,-0.0061663643207234215,0.0006717171581947434,0.007970447260796978,0.014716402552146922,0.019906382646171044,0.02326400834852743,0.025045181173969904,0.025853878975642466,0.027102752142871746,0.030112326772327894,0.03473929700512917,0.03987809553292803,0.04394204958813397,0.04544683690286204,0.04359400483160622,0.03862922236569875,0.03188326707434881,0.025034948650548342,0.019742599107701212,0.016804677407685934,0.015545571717035092,0.014839243364185536,0.014071494605316672,0.012894280683900744,0.011512327864838804,0.010437483392245884,0.010222511971178308,0.010969789366831564,0.01192179934375835,0.012454099001971546,0.012740729668852476,0.013078535585586186,0.013344688572879024,0.013037592859154968,0.011665878879887074,0.009055536889556426,0.005472705979436405,0.0017977488817481598,-0.0008228338432882779,-0.0016520023765392011,-0.0007102306077692114,0.0008252669099685162,0.0015315958944553205,0.0003850911022657255,-0.002798506726582722,-0.007087664726277803,-0.01136658388617884,-0.014703731908947132,-0.016403012965154694,-0.016075439571842546,-0.014263550227017934,-0.012165042848057356,-0.011049243016288254,-0.01143823681561971,-0.013086336305602008,-0.015276980609964028,-0.017303835059483734,-0.018859810256809554,-0.019668501742109632,-0.01967874058190368,-0.0187881510109962,-0.017170761724023556,-0.015102958231700152,-0.012635928416623728,-0.009769665962421804,-0.006801034059396874,-0.004016667795890603,-0.0017646049804210192,-0.00025981785518412005,0.0007433738774591036,0.0012756798520447818,0.0014497028619459079,0.0013370996264268414,0.0008662134262232224,4.72816673125429e-05,-0.0009559097052974493,-0.0020307579677138585,-0.003054423400630509,-0.0036481485179609987,-0.0031363164331399216,-0.0011913531212178828,0.0023198179114515376,0.006926312991213713,0.01182966873472939,0.016333791839119566,0.02002922345820966,0.022854536869607884,0.024912107838509726,0.0264578441960415,0.027972864034191136,0.029743810652584534,0.03198563020679933,0.0345447969472772,0.036581890236590954,0.03692994130949119,0.034862131500795306,0.030532030774669004,0.024758556823461456,0.018790589130774422,0.013662023126397128,0.010130381362149346,0.008482281872167048,0.007919265694571716,0.007448380126005346,0.006547551715303821,0.004878980230468667,0.0022993446533241843,-0.0009047268757976905,-0.004589920286730989,-0.008817655985495018,-0.013823374861461218,-0.01967874058190368,-0.025749071407041236,-0.031020943270300277,-0.03434785876964701,-0.03445022190209753,-0.030386274163264074,-0.022094588830754838,-0.010752386142358244,0.0023300542246965897,0.016303081636109912,0.030572973501100224,0.04389086802190871,0.05373853486811624,0.05756703982266652,0.05433225493234874,0.045078320783118686,0.03240533420914044,0.019036270754851654,0.007100335369477591,-0.002163834461360278,-0.008786945782485364,-0.013372966972482938,-0.016710108678878746,-0.019218093853131352,-0.021029976881583486,-0.022104827670548888,-0.022401684544478898,-0.021818197003667956,-0.02068193212505573,-0.019259036579562572,-0.01784637987386346,-0.016269933313322032,-0.01459112362033008,-0.01275876291228986,-0.010752386142358244,-0.008838127348710624,-0.007312868670766943,-0.006360858693840156,-0.006125417804468716,-0.006647489360721086,-0.007927066414587538,-0.010046051473136206,-0.01275876291228986,-0.015082486868484542,-0.016116388614646246,-0.01583999678755936,-0.014816333881191702,-0.013731250568804738,-0.012994212012945528,-0.012564269170810376,-0.012267405980507882,-0.01192960006377417,-0.011305163480159532,-0.010383863706242398,-0.009523984338344574,-0.008776706942691318,-0.0080191970236165,-0.007312868670766943,-0.006852221941994618,-0.006432517939653509,-0.006278967556242489,-0.00609470823309631,-0.0048970197902785334,-0.0013346659281093548,0.005114423014751852,0.013836051821033486,0.02315140637628286,0.03132025089675348,0.036520469830571646,0.03791265517305514,0.03570153950547752,0.031197410084714862,0.02650902576226676,0.022987616521440546,0.020858392623097834,0.019619758295662596,0.01840159533144297,0.016692075435441364,0.014532141334088996,0.012505286884569292,0.011645407516671466,0.01259741117722577,0.015003026902655368,0.017562193643133238,0.018831531857205642,0.017787397587622378,0.014429778201638472,0.009434291849093836,0.003804131968052258,-0.0014575054768734739,-0.00588997502018553,-0.009749188282833714,-0.013465091265139418,-0.016945557779534416,-0.01963779153909998,-0.021070925924387182,-0.020559091313017114,-0.01784637987386346,-0.013321779089885192,-0.007783754239333313,-0.002245728125506939,0.0023607644277062437,0.005759332224856597,0.007909026854777672,0.008963406280527464,0.008994110167164638,0.008226367724668254,0.006895602788204059,0.005605782473082825,0.0049813465211054325,0.004971109576223132,0.005206552992143566,0.004786850253076954,0.0031592233895847612,-3.901574646338957e-06,-0.004139507976291971,-0.008203458241674422,-0.011264214437355832,-0.012717820185858642,-0.012349297749742796,-0.010619306490525584,-0.00849008259218287,-0.006688432087152304,-0.005777371784666464,-0.00568524180727475,-0.00587973807530323,-0.0057159513786471565,-0.004907256735160835,-0.003177262949394628,-0.0004236041728578446,0.0030773297254381004,0.006547551715303821,0.00895316744073342,0.00946500205210349,0.008154708478854902,0.006189271277168261,0.005401049260172045,0.007038914963458283,0.011194993311320704,0.016681836595647318,0.021738743354211266,0.025024709810754296,0.026314525704414796,0.025843640135848424,0.02396009786158294,0.021155255813400324,0.0182889933591984,0.016333791839119566,0.015709355255504924,0.016200718503659384,0.017429113991300576,0.018657515795314248,0.019394548034800972,0.019261474699340794,0.018258283156188746,0.016753495841460676,0.015095157511684328,0.013170666194615148,0.010468193595255538,0.006557790555097867,0.0017772756236208065,-0.003023713197620855,-0.006975056437660751,-0.009616114947373534,-0.010629545330319628,-0.009923216977470072,-0.007681384790510308,-0.004364714447330104,-0.0010992231438261694,0.0014701761200732611,0.002841886941154915,0.0025859702671071285,0.0006921904163220966,-0.002358330729388757,-0.005705715065402104,-0.008745996739681664,-0.011294924640365486,-0.01331154656646363,-0.014887986810632576,-0.01599354780260763,-0.016873898533721066,-0.017590465726364666,-0.018102294021362254,-0.01829679407921422,-0.01793851048289242,-0.016761296561476496,-0.014724203272162742,-0.01208314476244996,-0.009411382366100004,-0.00724120942495359,-0.00567500486239245,-0.004078088201909911,-0.001477979366638075,0.0020331916660313453,0.005186079734016213,0.00681370470259666,0.007386959719986038,0.008185418681864556,0.009956358983885468,0.012443866478549982,0.014962077859851668,0.016876336653499288,0.01771573834180902,0.01743935283109462,0.016466871490952224,0.015228237163516992,0.013672261966191174,0.011696589082896728,0.009035059209968336,0.005830988944120958,0.002575733953862076,-7.555815305559275e-05,-0.0016110552286472467,-0.0015905819705198934,-8.579478211926932e-05,0.0025347874376073698,0.00530891991441758,0.007366488356770429,0.008349202220334388,0.008390151263138088,0.007909026854777672,0.007509800532024654,0.007356249516976384,0.007274357747741468,0.006977494557438975,0.006322347770814681,0.005851462202248311,0.006414478379843643,0.008318498333697218,0.011399725892594234,0.014839243364185536,0.017357454745487222,0.018217334113385046,0.017111779437782474,0.014122676171541934,0.0098028079688372,0.004715193533812593,-0.000413367543794168,-0.0048151261261318735,-0.008387719459732346,-0.01153036742464867,-0.014417101242066204,-0.016966029142750024,-0.018921230662828862,-0.01996536493241213,-0.02003702417822548,-0.019003122432063778,-0.016863659693927016,-0.014304499269821634,-0.012124093805253656,-0.010864988114602814,-0.010353153503232746,-0.009882267934666374,-0.00904286624635664,-0.007896356211577886,-0.00701600548046445,-0.006760091332965657,-0.007118374929287457,-0.00752784009183452,-0.007650680903873136,-0.007445948322599604,-0.007773515399539269,-0.009370433323296304,-0.012267405980507882,-0.01588094583036306,-0.018910991823034816,-0.020518148586585894,-0.020876425866535216,-0.020651221922046076,-0.020180336353479704,-0.01952518956685541,-0.01825584503641052,-0.015983308962813584,-0.012850893521318822,-0.008940496797533632,-0.004467080737966869,0.0003236712015562164,0.00489945348859602,0.009280740834045566,0.01392818243006245,0.019302423742144494,0.026089321759925656,0.035240886460332715,0.04713588543564804,0.06037188818722162,0.07125348204508078,0.07580878671569621,0.07221571822905665,0.061610522514656846,0.046798079518914334,0.03153522231782105,0.018841770696999688,0.010058722116335992,0.004950636949733028,0.002831650627909863,0.002872597144164569,0.003926972148453624,0.004684483962440188,0.004387620772137695,0.0027088104475084954,-1.4138227080593716e-05,-0.0028701634458470826,-0.0047639432966321135,-0.004518263567466628,-0.001744131722293666,0.0023505281144611916,0.005871935460375664,0.007663351547072922,0.008042106506610332,0.007919265694571716,0.008011396303600678,0.00844133282936335,0.008789383902263588,0.008502753235382658,0.007571220938043961,0.006670392527342437,0.006752284296577353,0.007796424882533102,0.008994110167164638,0.0094854734153191,0.008789383902263588,0.006670392527342437,0.0033434827127309394,-0.0004031309147304914,-0.0037300421821076595,-0.006248257353232835,-0.008264878647693732,-0.010220073851400084,-0.01279971195509356,-0.01625970078990047,-0.02026222812271462,-0.02396789226522628,-0.026557769208713798,-0.027397170897023534,-0.02629161622142096,-0.023497006696659908,-0.019688973105325244,-0.015952598759803933,-0.012963501809935874,-0.010967351247053338,-0.009943688340685682,-0.00958540474436388,-0.009575165904569836,-0.01000510874670499,-0.011161851304905308,-0.012902081403916566,-0.014642311502927826,-0.01572739481531479,-0.015778576381540052,-0.014601362460124126,-0.01246190603835985,-0.00938067216309035,-0.005429325133226964,-0.0009354364471700961,0.0033434827127309394,0.006168798019040909,0.006762523136371399,0.005319156227662632,0.002974963434801335,0.0007843203937138098,-0.0005362073452131862,-0.0009149631890427428,-0.00032123769272990435,0.0009685803484972364,0.002422184202088303,0.003824605226179611
