0.4097867893251042,0.5287823032318113,0.5437190399496706,0.4763237947240192,0.33804858776329,0.19612881773415441,0.1139776725848629,0.08673968700772432,0.08850545934103383,0.09900286893463119,0.10873085914398685,0.11748386374282815,0.12669857179380167,0.1379915848211916,0.15214513201890717,0.16915993302204377,0.19207771745246585,0.22965731219997065,0.30236614963780817,0.4366472830371998,0.6493914653483233,0.8185433742764883,0.7651321061503257,0.6211632982898947,0.49651487953119056,0.40567056436439836,0.3353387343363128,0.2702170830279115,0.19967466198860218,0.11782124525652639,0.02899295418739858,-0.05493698079687791,-0.1229257963720893,-0.16870864663425386,-0.195044445082126,-0.20937889565226653,-0.22158433249142648,-0.23658405752028588,-0.25715460211699576,-0.28424934167634314,-0.31964863820713724,-0.36795282550802155,-0.43068078790407716,-0.4883013132131103,-0.48110427414668805,-0.4245654278773439,-0.3897341233370155,-0.38277404632483114,-0.3910014222964948,-0.3953516821855268,-0.3764109077148359,-0.3250273664021542,-0.24489019344627572,-0.15877704598861628,-0.08629080355040293,-0.039334367369104166,-0.046182396574560684,-0.1305915391808073,-0.2124282033430789,-0.2735383737496016,-0.3157744639405137,-0.33734110948255513,-0.34359536745229535,-0.3398778746982864,-0.33065597124065976,-0.31574911713470766,-0.299731506483538,-0.28941067517976965,-0.28582492532500736,-0.2842715278021441,-0.2757424453110232,-0.2532748726995865,-0.21622066678896687,-0.16283003048230188,-0.09687428984526854,-0.015668798489356067,0.08580972365608323,0.20137978959623723,0.3184696449104556,0.41721107242136457,0.48615537032618317,0.5042570342765111,0.4894047923364529,0.481164024342987,0.4896688961950846,0.5002493671177045,0.4974991212878044,0.4733892503313565,0.42529082619637304,0.3499473641394436,0.24891535958459107,0.12551727526451215,-0.010697553303776565,-0.14132164375285533,-0.25101658304394414,-0.33643134387997703,-0.41579099252495905,-0.48300030019360696,-0.4768466395328935,-0.32130625248474526,-0.1555044300892508,-0.05794478376133521,-0.008778388611989152,0.014124827439534146,0.0281340735958652,0.04809841533378197,0.08426582370027906,0.1440264166370736,0.22024570049677486,0.28782076459834144,0.3127359777596643,0.2841602177586199,0.20677668493600054,0.09030035425346276,-0.05687784435697451,-0.2096953431260795,-0.3536139463220433,-0.4749017494051021,-0.5521984705444135,-0.5656799935119611,-0.5186197077791994,-0.44303651268148164,-0.37025607038059655,-0.3118893731179753,-0.24453192047794212,-0.1172028765184746,0.17328236934932156,0.614031039461732,0.8775676907461788,0.960610459725998,0.9840526600572825,0.9907579234986204,0.9915729306117008,0.9875560826223965,0.9718459542056272,0.9096637550392858,0.630266798666724,-0.057965127719279676,-0.48728950686120354,-0.6158234970618055,-0.6077143389139084,-0.5250141375266726,-0.40862227675670615,-0.2912417811269284,-0.19075821028013984,-0.11020671612330075,-0.045312822155204664,0.010867100794866061,0.06652435771580155,0.11959423712800007,0.16275426787460126,0.17232801949587156,0.14676783832769036,0.1215340231210657,0.12593217807926066,0.16540431468722655,0.21350003883786367,0.20099194748159732,0.11310992590237362,-0.018309242792884668,-0.11759069010827994,-0.16116007899154444,-0.18326445056613588,-0.2220133287408454,-0.2924216287577139,-0.38821647673426246,-0.4917260688010365,-0.5757218778567144,-0.6204042681732482,-0.6288165478687925,-0.612845832101332,-0.5874307797561684,-0.543222671940063,-0.43672673815023705,-0.25523449553240674,-0.0736280053931262,0.0371075827511275,0.0779155162571501,0.08536114924969918,0.08447450811643442,0.08738582727720114,0.11760659078118614,0.1916660029873841,0.29097095378149823,0.3750302499491421,0.42978379390380067,0.48016196586734916,0.5514964632162689,0.6582114791210436,0.7904026962596653,0.8468598550818511,0.7753349906486142,0.6813046709455383,0.6196325333049406,0.588534275391052,0.5770766108310112,0.576161682794512,0.5825004100847821,0.5791956431551526,0.5507079493797414,0.4868226965154155,0.39627857198713384,0.3051405590161885,0.24726436059578874,0.22597749343988063,0.20680880915499145,0.12311389390509862,-0.13606636968078809,-0.5505882103727984,-0.81166705898811,-0.9030454070589625,-0.933417652019146,-0.9439159385899488,-0.9463996981997767,-0.9439147623846516,-0.9366849382017458,-0.924694572179986,-0.907776889697189,-0.8830563568549092,-0.8352990571053236,-0.7151861388637155,-0.4258156443603566,0.021952983079164438,0.38744685964256786,0.6065784273686347,0.7360040996619265,0.8087644181961781,0.8411874609370013,0.8542129512291077,0.8659538203620671,0.879502939244527,0.8906448973248724,0.8968120260414596,0.8918259858623475,0.8691210687675897,0.8213616467719317,0.7318125347108942,0.5562576024520092,0.20836445742659568,-0.25945890068897476,-0.5173948001781778,-0.5552107491658095,-0.5048699803819358,-0.42416233446052964,-0.3335092771133675,-0.25578800658643114,-0.2174184331024356,-0.2349370421606396,-0.29498810080681864,-0.2938449611415697,-0.1415059281305681,0.03983476076683317,0.19484579911487718,0.3176761716197255,0.4137090179194824,0.4942488609316816,0.5690278811153584,0.6416418570740363,0.7100928827282005,0.7655109171863933,0.8000793604278278,0.8116731847503512,0.7999657227295086,0.7632555096894675,0.6952097068745787,0.5819975165569239,0.4186065814718793,0.2197813028916207,0.013399016812442257,-0.16950385849934885,-0.310388058927475,-0.4129196379072192,-0.48931923430650787,-0.5352127855577493,-0.5457147549511732,-0.5310345242567751,-0.5022835580604492,-0.4722755068812613,-0.4481558010922162,-0.4361243503017269,-0.41633415259833706,-0.3457915864182038,-0.23280025965397713,-0.14350493311221563,-0.10877528100436931,-0.11670138778176982,-0.15038420782417758,-0.203683788167157,-0.28278605872256923,-0.4036698506689987,-0.5614961462305943,-0.6005738175100169,-0.5012170126984204,-0.41757678984568,-0.35937328697674126,-0.30424634892751906,-0.24557483056945795,-0.17683931880111317,-0.09603142539534587,-0.000771572510322652,0.11052209615030616,0.23895222891615484,0.3640577409922141,0.4623719604985023,0.5204214408528632,0.4284589986875286,-0.09593111224468003,-0.33446658882769637,-0.37292347684918,-0.3362835515421556,-0.27074933973327436,-0.20643510896800363,-0.15792435131738336,-0.12789748091466766,-0.10785482663680176,-0.08575820729673957,-0.042981894596126516,0.05645246471245272,0.24484337894638078,0.4387651944154557,0.49751307656571764,0.4454802807815836,0.33485165491841135,0.20771644099082004,0.10908952952887073,0.05469978467766228,0.03589515658699598,0.03747465959221769,0.04312367446928066,0.03161977545687993,0.0013102840200012215,0.006877865446785042,0.19387411822199788,0.5903084827906661,0.8423990427102643,0.9249827711413344,0.9509959136591529,0.9538832217415412,0.9401435636147414,0.9084101362374698,0.8567084031648959,0.789322405762731,0.7209887964739075,0.6631279248283904,0.6149996530983565,0.5728004412029597,0.5315162690581071,0.4785052910548193,0.3867937766978325,0.23070566353739558,0.017045946881102753,-0.19327911514569363,-0.35034550964080025,-0.44894472337312985,-0.49807645595904904,-0.5196710747128617,-0.5338472721008445,-0.5491200918093793,-0.5643769501135737,-0.57651661070011,-0.5912819007654113,-0.6058863552908401,-0.6123814422255991,-0.6069453289111626,-0.5891688693339736,-0.557374781534736,-0.5057678880506863,-0.4368241654635162,-0.3551908400246796,-0.26257563226435343,-0.15225028015959047,-0.05798832540850069,-0.024618235336755532,-0.06577734553400204,-0.11250050498453938,-0.10031758176122209,-0.05259960108904691,-0.0824523429152245,-0.24964435091314421,-0.462678904578098,-0.6122080092300229,-0.6899509326879227,-0.7178088456566939,-0.7140521292744484,-0.6889008077326602,-0.6486594760333,-0.5948350691089676,-0.5408130655554088,-0.5004076935980692,-0.473469989486255,-0.41799574953724783,-0.3082865368896819,-0.14572837769694102,0.03425241451066939,0.1750227076942284,0.23205881437221235,0.17638137292535455,-0.014083479985624675,-0.2710821597557591,-0.44585110218108137,-0.4636456946722654,-0.3061237584858259,0.12070197346090396,0.6163848068773541,0.8069305978191421,0.8436265998252254,0.8319866310475232,0.7909452740405675,0.7375318407346902,0.6859765855950325,0.6290615282148605,0.5647479012952432,0.49062023857548476,0.4051347954588692,0.31069314758484845,0.22702737582187416,0.17571756158309626,0.14473611453720633,0.11086855728790428,0.04754558367425401,-0.038794586000722546,-0.11986536539223967,-0.15928848895380282,-0.14153668490716828,-0.0633919912275867,0.059670984465559275,0.1950052870008571,0.2966947896283151,0.3304153759655679,0.28989757831056834,0.2017063425990451,0.11490892932959584,0.06320812559079982,0.04568212357222676,0.047851261621043306,0.05639379751300229,0.06470957021545422,0.07045974054701003,0.07137899846574172,0.06476798773459634,0.049438100281438795,0.028096158851577426,0.006907881975770676,-0.011347489546736648,-0.031109308498666294,-0.05613485624894181,-0.08830950735137612,-0.13725397598622854,-0.24241125979115294,-0.4146736015279509,-0.27627470507946117,-0.19960541999698872,-0.17851724567944582,-0.17936461682567056,-0.19184750881386042,-0.21231613134431493,-0.23858935194999384,-0.26542356597953515,-0.2837793764982146,-0.2858398231953195,-0.2690697673766098,-0.2356302562466726,-0.1888437223715328,-0.12892027299289693,-0.05668868233189879,0.02775094879663894,0.12962263314912348,0.24872724908434854,0.36967260921293144,0.46870414690763396,0.5312681083480019,0.5535994022295434,0.5228863919504209,0.3940126261920714,0.0717046861639649,-0.40579959928411685,-0.7153870558120906,-0.8325317372050224,-0.8466741300139262,-0.7508463228331581,-0.48457615435942264,-0.12313890362884962,0.16112922930727644,0.33088194655292663,0.40684853200330673,0.4009015964043371,0.35179381929863546,0.30461827169279043,0.2665409846244932,0.23062834948981858,0.189724441434596,0.1513000168364752,0.16271432488649124,0.2558147064768201,0.42197989883841497,0.5842288395922645,0.6837374120466276,0.728571686591654,0.7423749720183632,0.7357301004430795,0.7085616798147332,0.6531078938449764,0.560303443126578,0.4261874890820539,0.27217456217260205,0.1476789481084122,0.09306025331941464,0.11743866798443017,0.1898464990903358,0.25902594610232094,0.2803495747839977,0.22395596182078642,0.09027496677625886,-0.08944484891774497,-0.2586339550719293,-0.3647096952027993,-0.3854297632176553,-0.31340661867767766,-0.16346266653099278,0.0147286316579466,0.19053580891937277,0.35682021044346823,0.5074653043400135,0.6415887071606513,0.7654251939372563,0.8762226638075286,0.9512428259861024,0.9704282595172742,0.9267546034077297,0.8058654788988433,0.5918183790973002,0.33218230919640496,0.08320914654249269,-0.13300439246298998,-0.3123153173808738,-0.4474076069491371,-0.5325998332173085,-0.5638887841449997,-0.5519144717259828,-0.5245284903564587,-0.509061367470653,-0.5113869105855009,-0.5240084117349605,-0.5319750236684978,-0.5218718097841201,-0.490892134973622,-0.4447169337753369,-0.3907237382394395,-0.3329663480235888,-0.2779243321931813,-0.2293792007354938,-0.19021360587769007,-0.15942457514120448,-0.13419338737011818,-0.1116302016062996,-0.09253904373423467,-0.07966486316182192,-0.08705924080597417,-0.1487744418801405,-0.30646319852965265,-0.5336363036070975,-0.7045768123242175,-0.7415994383926606,-0.6762590271716094,-0.5678108138780501,-0.4602741312952141,-0.3595138390417171,-0.2505163544151104,-0.12038938586537663,0.023188937374862988,0.15669411995076485,0.27320908474780764,0.37041375517556513,0.4485296309629717,0.511254680107033,0.5602449282649844,0.6034143870909872,0.6507664745138304,0.714471502360752,0.8085460152827741,0.8927022741534495,0.685877277808032,0.3425039730249514,0.187617019319258,0.16185191127945509,0.21426337759484337,0.31601618039322793,0.4374584001095296,0.5430962792372613,0.5998490291273675,0.570438315958232,0.404497259592955,0.11904074677915527,-0.16576726988430232,-0.35155676516172424,-0.4652021060916371,-0.5880813366756878,-0.718016620810944,-0.8121002707631405,-0.8572312120090969,-0.8765505092123599,-0.8841958602285808,-0.8536010128349003,-0.5216142513217449,0.6235620595682698,0.8921446420957292,0.9400803844033285,0.9502963194603502,0.9436456096205905,0.9162698932187453,0.8395920091498236,0.6190452353692178,0.12483335907176962,-0.3686750424674411,-0.6253881189418822,-0.7544318174066809,-0.834294034752256,-0.8586141701437466,-0.773007789915775,-0.6232032088971543,-0.5073433511811813,-0.453699716568765,-0.4681858668825044,-0.5570727340293887,-0.7042208901229431,-0.8346489601241235,-0.8843630610861407,-0.8710641924325722,-0.8211687536013096,-0.7423628219528908,-0.6493317336401548,-0.585005960693129,-0.5764683848218853,-0.6082957017508943,-0.6399197913093072,-0.6289119514514041,-0.5016862785417135,-0.06719393989612857,0.388253626042505,0.5601304632448794,0.6211744933654588,0.6478224574569234,0.6582252666559599,0.6591035502692538,0.6472664744554938,0.6155807235436408,0.5499728251842676,0.4531596727918414,0.3614872648800637,0.3258969212878239,0.4175196328961502,0.6304029791864455,0.786592890128656,0.8770705466148936,0.93040527799336,0.9442207042269962,0.9269754709111317,0.8879317481664095,0.8217779576553836,0.6995809124153374,0.48726480930687927,0.26772243507392623,0.18596760629287204,0.25672998180251233,0.38776815377959784,0.500397419374327,0.5603710416179806,0.563729801607499,0.5186761385502148,0.44129454876290913,0.3676527965088622,0.33490254244506074,0.3435975266439848,0.3804181333161624,0.43462360148895013,0.4953097419093855,0.5553772396471618,0.6128518639360067,0.6656168183346866,0.7065684199413416,0.7360120410683988,0.7380576282358466,0.64894690242706,0.3944132418266114,0.07412420153008356,-0.15153825087864642,-0.26797864470101257,-0.3084943730137523,-0.3103322330377434,-0.321385145614219,-0.37635571331657663,-0.4665821504316687,-0.5578204749421825,-0.6357298803282067,-0.6945607873409119,-0.7374537387437435,-0.7687594243857112,-0.7930958948999622,-0.8125314050912473,-0.8299142468187813,-0.848540903547542,-0.8737670841464081,-0.9043289626576232,-0.9271231613865106,-0.8778361164763255,-0.628739311488772,-0.29475586631719475,-0.1008425376144554,-0.03720672900226269,-0.04112338233230343,-0.06789167456162493,-0.08884960934911347,-0.08608891823098884,-0.05337893959527794,0.004472523218197021,0.07222295994040108,0.1356701852748752,0.1804306131110135,0.20339182474790649,0.21432254258862188,0.24793827783187034,0.3021445822111483,0.3636065110166297,0.4291727385582983,0.501528805705232,0.5894744139640079,0.6856161615913703,0.7655961911499495,0.8227194860343388,0.8575508635197184,0.8709189743881945,0.8657286522528798,0.8398599140210363,0.7845840826748114,0.6692619452282784,0.4614638421857698,0.2455246348365025,0.12233336051971477,0.08730756287329056,0.10285341690889115,0.14829602242670778,0.1845862134464622,0.19374283900905806,0.1899250695212565,0.19351093527392937,0.2169012817453015,0.2609396547117104,0.33374481059377026,0.4467458613964151,0.5961598638438143,0.5296959286056483,0.19813079969134315,0.008684356314748641,-0.09352568515714235,-0.15019955491555173,-0.1808252140131471,-0.2059545990850986,-0.24969427694730978,-0.30667093327565437,-0.36615708255844276,-0.4098682439992769,-0.41486622120970623,-0.36811512001111246,-0.28402380629446256,-0.1897031730194033,-0.10375736339353324,-0.014231225700999774,0.0820529311099975,0.16932027708797345,0.231139935002159,0.27425480645567857,0.3127832326781228,0.34781313403145786,0.37060216248652394,0.37378674894898306,0.3458990617980275,0.28767361819323833,0.21422610627963753,0.12967831605217695,0.032918581498843254,-0.06267652448705731,-0.138404144947321,-0.19003237754092103,-0.2070035555845963,-0.15525940113639836,-0.029673145506041207,0.1188255491406412,0.23348087434090206,0.28828970631957307,0.2855684182116893,0.24113077274295336,0.17608241793602297,0.11823360392446723,0.08283650545700273,0.0673570635552836,0.05861143609011227,0.050148116982443924,0.041191142721029,0.03314022781254442,0.028426938083489048,0.029203389019071543,0.03707808691063445,0.05422998453998573,0.07887858562889898,0.1000407641765009,0.0970804378051105,0.06507662797966417,0.02644957696018283,0.006115491492626145,0.017906514759378152,0.059908013906657544,0.11881072431065098,0.16821146762884434,0.18214221119827764,0.14251260111839661,0.041242279308044916,-0.12158917439307965,-0.30862674005384944,-0.47708984593662757,-0.5910334590578651,-0.6143918181972826,-0.5053187525633789,-0.2849979936881376,-0.05125625261886254,0.12343696139483032,0.22684986952785213,0.2615451943113341,0.23141398659283208,0.1499855037020115,0.040139785579146596,-0.0762687020805089,-0.18332060389410154,-0.2711448776878593,-0.3344139568434615,-0.3733032413927489,-0.39552325521035425,-0.41530982823281803,-0.44962765005344446,-0.5052332686836349,-0.5773999368201281,-0.6549248535703913,-0.7290344105878974,-0.796608513078794,-0.8553260616620613,-0.8921965338905938,-0.8833109637734455,-0.8331978262469334,-0.7675246486333711,-0.6621158250337146,-0.38375139851093265,0.22886682662295207,0.7298082286299248,0.9014288203991889,0.9541457122703568,0.9712751848993463,0.9751041892319211,0.9712768603383455,0.9609045600460374,0.9452476865680128,0.9286473990399564,0.9155554071869708,0.9092467002652409,0.909001398861181,0.9109922562706341,0.9032263852621428,0.7955907053075761,0.3303754125950492,-0.08120849370586088,-0.2269536286468426,-0.26607128309425176,-0.26764093158524366,-0.2574105685580757,-0.24798387616906886,-0.2463095925875739,-0.25770030791413,-0.2858144462578639,-0.3376036210470132,-0.43361716779879445,-0.600322202886262,-0.7912015903645003,-0.8180904008181297,-0.7162998246752477,-0.6060152373439018,-0.5205289962544649,-0.46029350032936345,-0.4132069008064062,-0.3490665273684324,-0.2426285352203923,-0.1143133309760482,-0.018655936909509913,0.02496684189705826,0.0335539316589545,0.05477755364425869,0.12475712934382617,0.21441250160641198,0.24406859726711144,0.19155231021291924,0.09192683538381137,-0.012665427864160583,-0.08686918595203116,-0.12125024877182483,-0.10963928343980477,-0.07476778236326087,-0.044622350915865756,-0.042798149519512614,-0.06749191396899214,-0.10643929058646588,-0.14550361933133069,-0.1759211349606815,-0.19126829116885977,-0.1898285929489426,-0.17717164179952208,-0.15788216862061075,-0.13886582811326326,-0.12553161361075524,-0.1232464602683219,-0.1253443159361928,-0.11205922905788067,-0.07184828458278571,0.0023187508482116347,0.1168689630690539,0.2960362649753101,0.46068774837492127,0.4287886020098238,0.2610809290653035,0.0865516615234473,-0.04129778242371653,-0.10103250172099457,-0.09403840175007912,-0.03702622965768845,0.038849608090664005,0.10158067597958781,0.13647308320885637,0.14947439382805666,0.14904664547324595,0.14518225872315974,0.14374258542060442,0.1559633616421801,0.18621626885895975,0.2326693832395174,0.26958261560874314,0.26007234880839025,0.19518652725823815,0.11569440012543789,0.06434834105844664,0.03927423864150931,0.009366640772819842,-0.06135540392773044,-0.21837456780507922,-0.49300987383566064,-0.7441453403831814,-0.8411524919339282,-0.8617105280047744,-0.8441221203031138,-0.7746233668871474,-0.6492394772104607,-0.49499627724232753,-0.3417892752299433,-0.18961382413048497,-0.011851444589820962,0.19714417103019719,0.39996784658630957,0.5161402861479397,0.5147584038366013,0.403122066079025,0.21048490732647093,0.023227019889759976,-0.07639233648429801,-0.09230896552882817,-0.0623347911466168,-0.0140858377006463,0.03675599276753395,0.08941305212691386,0.14960905525413296,0.2239215196848299,0.3194615370102532,0.4480873980852106,0.6111013625191071,0.7798163102479393,0.9065058611925818,0.9667189915042234,0.9696841893574304,0.9275033385093194,0.8491670477944196,0.7571099760936192,0.6639808278542417,0.567222136170653,0.4605109956553903,0.34336312765109084,0.2141749770260803,0.07087717471794248,-0.08019351309766463,-0.2360702328169356,-0.4010477538897819,-0.5717143963282829,-0.7223277337960426,-0.8309414190191737,-0.8956683707001106,-0.9186651473913284,-0.8942172027369626,-0.803437177429487,-0.6016098235696355,-0.20146743565396477,0.3556345870108698,0.7249790095585,0.8734429161759306,0.9286659457585714,0.9483901316335017,0.9494512063064715,0.9300946617222565,0.8709582357438364,0.7324813389704549,0.49187756527239285,0.19251733720430086,-0.1040308664209504,-0.3584835433766098,-0.525121151283266,-0.6069815710046067,-0.6356080400838542,-0.6449478365634987,-0.6588838349812125,-0.6905258964217044,-0.7356264352500228,-0.7767845533122067,-0.8037840892475625,-0.810869536470229,-0.794982140569929,-0.7568071167545322,-0.6994613314741199,-0.6217324745087122,-0.5223211321417487,-0.39646961824434074,-0.24122263223734206,-0.05882547257944846,0.151048325806883,0.37648857340380626,0.5626412561524703,0.6714906188020129,0.7002227407296242,0.6402986205147793,0.43908221160206423,-0.019094266666879956,-0.5724457810710835,-0.8201342280567575,-0.8800007644731184,-0.8754063401778551,-0.8205360232633904,-0.6832910964210047,-0.4463206886685181,-0.15617216672868617,0.11410011903480052,0.35151085877048976,0.5453347842128946,0.6737662482888902,0.740949198153027,0.76924199187802,0.7760572429977288,0.7741607352323606,0.7754803046094019,0.7871539672960992,0.8107288745743552,0.8392971054391718,0.8657011522825492,0.8833044145334359,0.8917238067117519,0.8916484974314248,0.8793383183143229,0.8360914867120423,0.6856116881476746,0.18101402596023833,-0.5123013827509405,-0.7998688140635986,-0.8960240108058887,-0.9346219937844108,-0.9424131924349717,-0.9035740922018061,-0.774017936802528,-0.5163784062030324,-0.23746084855134977,-0.08292655277302774,-0.07147946797296588,-0.16748390681279138,-0.3128395256880986,-0.4449588581947732,-0.5338693285783712,-0.5838455765683269,-0.6045272976970293,-0.6058939277000431,-0.6022700757261843,-0.6084077286068256,-0.6290493038312193,-0.6534918290733533,-0.6718434326109125,-0.6784769589576194,-0.6779581374131005,-0.6684054657920007,-0.6462475386090293,-0.6105626562424628,-0.5737795916789937,-0.553939439350525,-0.5597123928336205,-0.5842771027464524,-0.6112999011838138,-0.6266887828160865,-0.610382785695242,-0.5192533086317224,-0.31526725712801223,-0.058781462440680665,0.16239586832724467,0.3374955403435174,0.45556748580022766,0.5051769817025845,0.48662420423946956,0.4092967726480513,0.291732775957145,0.1710870457791906,0.09437822711180983,0.10108669553973887,0.21557174191621803,0.3998469370839064,0.5517439458921127,0.6331529068604261,0.6640918872154635,0.6621153525985306,0.6250473102947882,0.5395806093531053,0.36513980749587366,0.04555911966923209,-0.26532822795277483,-0.3969834164539625,-0.43134733054670515,-0.44122737634852827,-0.4339318410195324,-0.3806805521577993,-0.22127300934391567,0.04986001244102059,0.2766590362031797,0.388041870567099,0.4306720322478285,0.43625839391633914,0.408102666266343,0.34648247337589544,0.2642183796230142,0.19225894988015546,0.14006969213273612,0.08427561924804813,0.005770713001126745,-0.08492270638430444,-0.14605253868405607,-0.15882242828385362,-0.10753055335612591,0.01864217713978753,0.20465264437188582,0.3813927377316096,0.4963983394354588,0.543907751233694,0.5351657735968105,0.4672265108044902,0.33661469410506856,0.16478716139606348,0.015436199447866759,-0.025950694656267856,0.018016472051273394,0.05590678434466766,0.08140791021810978,0.09587678711445627,0.0987434046482411,0.08221088419841407,0.04947284499318559,0.010799461187238095,-0.020126249956721215,-0.00874229544434291,0.11766530949322712,0.36985106093161624,0.5702164994103827,0.6100177392321833,0.5110376733353877,0.3777457278938521,0.28725087608789523,0.2302983239592062,0.187500850782015,0.15185821665291752,0.12423157515405561,0.09900402360450833,0.0669493859450091,0.021308369463174333,-0.023668100831809057,-0.026943456464315278,0.032972355353308044,0.1392326873041698,0.2607482051112693,0.37886887001074465,0.5030490143682187,0.6595187181201008,0.7980027372211868,0.788765252304496,0.7369168334510166,0.7074075224982328,0.6822922988147551,0.6441708920896431,0.5846714207530136,0.5072342451270361,0.4336466675146254,0.36973868156771866,0.2998072457075123,0.20115474209376058,0.07297656510513512,-0.07688987278332957,-0.2232640183118892,-0.3403467849775421,-0.41438646117744693,-0.44594797661494456,-0.44172282272856644,-0.4174734112968291,-0.39197814099380623,-0.38261187348372433,-0.3922254584394076,-0.4190747040160788,-0.45294558825656533,-0.4795002129707066,-0.49004165724658394,-0.4801667573523409,-0.45338568855699823,-0.41185899509369195,-0.3497332973652343,-0.25026084434115264,-0.10411841143857031,-0.0069675290861038125,-0.006267967796007381,-0.05431728908081524,-0.12042052888084322,-0.19531503171369663,-0.26679753506647547,-0.316353189725445,-0.31614318048367157,-0.2622853376080131,-0.17953136078829218,-0.09151771210046195,-0.011564276944120634,0.05166184718827846,0.10567158313101294,0.16687769444028006,0.23731405355857735,0.31264516919600144,0.38878957724542124,0.45502191013064025,0.5006151678477466,0.5223947979044039,0.500087003375951,0.38361749969564357,0.20075718703672352,0.0637425161832681,-0.013373947167869838,-0.055464401042179916,-0.08124307437019633,-0.09946837762713356,-0.11369670514227603,-0.12088224084302233,-0.12361049054035587,-0.12901238216875538,-0.14545517604668387,-0.17408820473004546,-0.20999347892987233,-0.24634931154532305,-0.27426978356065446,-0.27863839303320664,-0.24787417882182122,-0.18235119422819013,-0.11201913709029916,-0.08370825286243677,-0.1252709390504488,-0.20386496395515222,-0.27159388979886184,-0.30212283048148153,-0.27624939445094976,-0.1878347287458303,-0.07195546738233725,-0.005798165337130766,0.00977522016571987,0.021972143381664262,0.05153805875755857,0.10517857119787583,0.1661434683366146,0.21844783904035758,0.2559738792808952,0.2750393724980079,0.25903557000497446,0.19981384126639667,0.11987147414029818,0.05023247745658539,-0.00298088444426322,-0.02628509077614569,0.005937453085214177,0.12555935019599518,0.34253431412172924,0.5865263802104033,0.7558619426870062,0.8402958202535304,0.8751276197424246,0.8826092275229307,0.870161429626148,0.8386090696532937,0.7841879285071807,0.7037116000426941,0.6034303847314898,0.4950011330073127,0.39031946643090126,0.28904173130493016,0.1908773297074452,0.11523962813049773,0.085005425234805,0.08579518129548082,0.0825931386200296,0.029269976010925552,-0.11293108900261904,-0.2759728237782846,-0.3642587761359901,-0.4047389171990206,-0.437839066137039,-0.47856519194507624,-0.5269312553647865,-0.5690187480504182,-0.5956256640614388,-0.6109911593880236,-0.6261119166793757,-0.6496169012065482,-0.6830116074262224,-0.7226997288569273,-0.7589266984543642,-0.7775674370738225,-0.7735387498500185,-0.7530333376934499,-0.7342691000993509,-0.7303360150716293,-0.7426724431353395,-0.7667997052095535,-0.787712008138341,-0.7806869877516542,-0.7363395079142248,-0.6784375747451608,-0.6291431600520216,-0.5994183079153861,-0.5888843214254333,-0.5906015317118226,-0.5837364199992108,-0.5428633466141463,-0.4998134685936206,-0.4867484054874068,-0.467035170655351,-0.35853883697804056,-0.15548781540558315,-0.013202967520941425,0.051872608998475005,0.06980526797733806,0.06042135322886461,0.03830698620595194,0.01869880043163401,0.014773647756418939,0.0413314372344018,0.10473783534895362,0.19461049012476908,0.29116126058030667,0.3741570819377297,0.42669543940486077,0.4328987734437977,0.3612101193033245,0.20760323215152607,0.05260454017669654,-0.010482648300751534,0.01848036936065487,0.0794921132588003,0.13057228060874335,0.1593673391606669,0.17070204683749524,0.1395356644264184,0.06693317798257703,0.016551555615064485,0.045428091158897024,0.17569849262835682,0.39460325763559484,0.5991780305346545,0.701957463701167,0.7119690125654309,0.6524304134338764,0.5307570610550436,0.36887751492016935,0.23418262071867982,0.1744666134536935,0.18078679293467448,0.22736588974887972,0.2930085554748954,0.35084601907091545,0.37876994414101833,0.3784270226241661,0.3634989708804232,0.35154411030215904,0.3574115794814434,0.38836346619681467,0.4392289160763411,0.5001129042049682,0.5614572648306079,0.6162028725321063,0.65494531979855,0.6682785714818662,0.6453509318065037,0.570232682567796,0.41903757928787266,0.17189118118172567,-0.13843240724857478,-0.40211407376076813,-0.5451864681054465,-0.5639999469364054,-0.4651257220788114,-0.315458034540783,-0.1991260912986905,-0.13509873916251045,-0.1115943315608184,-0.11544620984702907,-0.13625343745519714,-0.16471453672688124,-0.19101998664382777,-0.20609404798562922,-0.1999971540927621,-0.15998093222316026,-0.08461034751877103,0.006767458216036642,0.08408910018267138,0.13258439085888038,0.1657556852877346,0.21670388080621605,0.31479519877659495,0.45196050148681804,0.5975755851434744,0.7014349010958931,0.713264155422496,0.5895621200026689,0.36102464974654197,0.1285677808726807,-0.04031006559908178,-0.14419559391421458,-0.20129462306050722,-0.22441492484203607,-0.22263104755001065,-0.19766309564257228,-0.13348066194107255,-0.0025687780861565635,0.1812288418617624,0.3562967299089773,0.49073471132865787,0.5817014562265185,0.6241559770601425,0.6275306901934721,0.6090635480689,0.5620030522909456,0.441577346239406,0.19018018347281274,-0.13692814343289414,-0.3880126192036118,-0.5223956411155849,-0.5761708392162485,-0.5752355888176315,-0.5288137154263816,-0.44734800068960945,-0.3537043202837067,-0.26903714686288516,-0.20225074333436346,-0.13805869176726954,-0.05861161357015243,0.053081736350725044,0.18884252170556914,0.319017923645414,0.4186673198786183,0.48200310163405863,0.5177756670144472,0.5446170102118258,0.5737791953466593,0.6145182071413829,0.6686956294642461,0.7284927085754074,0.7878393672501655,0.8473758809329783,0.8942197841998386,0.8930048932658782,0.7922684518591592,0.5602165336917871,0.26785180305792405,0.019263781147368413,-0.1653852237492507,-0.2948381549304919,-0.36721052901829876,-0.36966805584415857,-0.3032279742241581,-0.20398254500273344,-0.11691068648019204,-0.0565669246487081,-0.02891432303642985,-0.04464327761698882,-0.12195965438193979,-0.28269820978787097,-0.5225334397175597,-0.7623558028462403,-0.9115350463353578,-0.9743680174764363,-0.9917572315204967,-0.9864713352920151,-0.959391176165266,-0.8659883086770734,-0.43457023938470934,0.48567931983333806,0.8127085490008124,0.8875664691815082,0.9019406452926089,0.8862162405795293,0.8335789948253576,0.7141558385381134,0.4907034153436921,0.2004147264338366,-0.04186202322606272,-0.1828433436721846,-0.24865580090744868,-0.2712648256665009,-0.25923707673865576,-0.19976376399314977,-0.11093421754736366,-0.03744292763729743,0.006766264267904698,0.03532341948968829,0.06201689466407018,0.09063661368365537,0.12190407475445511,0.14996351731646151,0.16828071385068014,0.16565762330736827,0.14818130735432594,0.13634162623071333,0.16238448137762426,0.2238501421037074,0.306123299709166,0.38537143195006923,0.4243353091291475,0.39934016265977995,0.3048320733729915,0.15872148191539776,-0.0022732144542242606,-0.137572844429896,-0.2409251559072981,-0.3157480968315744,-0.3577145961468538,-0.3689419755509459,-0.35587616361344926,-0.3174661705891963,-0.24972251297513814,-0.16549504306646987,-0.10435102878739975,-0.0990024663107977,-0.1574886903425582,-0.2572385127065883,-0.3678755406263259,-0.4694494578705919,-0.552973203054014,-0.615801311293611,-0.6570871786492152,-0.6582483358439871,-0.5832731236872929,-0.43993688655958907,-0.2981403869479906,-0.1853765363830116,-0.10053268601766156,-0.03844632543958383,0.0015841664319788669,0.025709325683243443,0.04202079905242228,0.06460680780494409,0.10196350548435645,0.15413231654989007,0.2232113831562886,0.322162267832308,0.46621559530346357,0.6555254753806927,0.8157413866643393,0.8173185667299612,0.6859381718666633,0.4939382801812699,0.2844212221846559,0.0837582019056085,-0.14843179667078604,-0.39563168542126886,-0.5599739846793481,-0.6273905853995473,-0.6398265664381922,-0.6216798156318509,-0.5765276753069866,-0.49622688895432315,-0.3620908749633826,-0.14408752100549718,0.15276796014186061,0.4295024510528573,0.6008884896783615,0.6810490753970599,0.7149814920827408,0.7372619349526889,0.7725631008339615,0.8288515179537521,0.8882728690599582,0.9308156467574767,0.9517464566187076,0.9484674102523633,0.9137193234508029,0.843241853149447,0.7491902513163895,0.6486542257182809,0.5626689723682889,0.522576546879236,0.5484914012916337,0.6134356671204819,0.6737143964723119,0.7000149948840895,0.6762145597073341,0.5843656225614005,0.38808827381584304,0.09361748005459677,-0.18483203385595837,-0.3634124586920609,-0.45145832822856574,-0.4770702550165083,-0.4638880343158266,-0.4176004268377845,-0.338899253137226,-0.2314100533754581,-0.09206305679843871,0.05431681687647205,0.1423408417275288,0.09680501863111851,-0.11726320052480944,-0.4415971649347702,-0.6986303476230423,-0.8248978769575749,-0.8757239962229826,-0.8896471745826394,-0.8826632690827059,-0.8621201956808008,-0.828538968222179,-0.7673755039628967,-0.6538541795128346,-0.4878315542792986,-0.3123468847941617,-0.14795737695476577,0.023220237132117058,0.18943629945381807,0.3280835689944791,0.4213465648223907,0.48211299307630623,0.5367942815426076,0.5950879211183947,0.6328188823656736,0.6464884930597907,0.6926509085753142,0.7481995290173241,0.7761874786888603,0.7587502507867248,0.7096654954791272,0.6498892764982227,0.5943683532845567,0.5556053495419399,0.5364183860785627,0.5358389316725062,0.5483598540980019,0.5604933059593792,0.5590923832098043,0.5326640422064384,0.4734970170021587,0.3911789777054665,0.311416960803103,0.26267704248039914,0.2519939932270219,0.25638181651211345,0.24779354485031568,0.18891254388028877,0.11024916983525553,0.04561748819458535,-0.01474059814905012,-0.07500274687833564,-0.11868885935881988,-0.11186789286670835,-0.029242334601433256,0.05393487006171736,0.05641350856587599,0.021959167205142488,0.009639355959135176,0.06110778365358912,0.1608348140549871,0.23259515888748114,0.22123744882849666,0.17686404534847688,0.15902560473778685,0.17720811599569888,0.20875624384938254,0.22457191628614337,0.23692596481221656,0.2604255194729112,0.2777123013062615,0.2661218529421431,0.1973618011727371,0.1237344592328213,0.08807276328923996,0.06594472053963746,0.04086739709538142,-0.0001926094871269927,-0.042999174201511815,-0.06543678149990258,-0.03594137475993589,0.057843755319926186,0.1913119211605513,0.3195414828527794,0.4071089740276714,0.43804183766653093,0.400360987776195,0.3125145831520949,0.21719475874820007,0.13522239931038008,0.05591222242799066,-0.00491345236862584,-0.02473853869418335,-0.0036145340632407555,0.05293486674080931,0.12129775198958227,0.17384028343072105,0.1880691087136705,0.1630582870136971,0.12787012005908327,0.12309269266205013,0.18091686074238528,0.2625599841945176,0.30088997484954333,0.2508693538249328,0.1580340236334004,0.07907051845620652,0.026625550904584572,-0.012401903732457411,-0.046386875616433496,-0.0715163278550283,-0.08291778129586116,-0.06850137389904781,-0.010367926822722834,0.09320012622716026,0.18640549955798513,0.12610847617693047,-0.17079128625352774,-0.49949892733213375,-0.6855614155526413,-0.7730521990659505,-0.8116929700054246,-0.8216059837831519,-0.7957905104429814,-0.6832827658927294,-0.4031853229302987,-0.12532860632471735,-0.0930640831272265,-0.3033855017785301,-0.6125262143275932,-0.82103090877757,-0.9138300839514495,-0.9437619121491079,-0.940636939097399,-0.919322387690295,-0.8869001408692105,-0.8422917509095816,-0.7817627370256143,-0.707311962908592,-0.6360339078684194,-0.591250165206306,-0.5799497036261824,-0.5976356751014377,-0.6093306198664556,-0.5875178500585063,-0.5057069926875578,-0.3115111415688324,0.04496394004305756,0.44194152278625115,0.6790945527175247,0.7858768125741445,0.8413896813464118,0.8767445338918347,0.9007243259465437,0.916360131734284,0.9248696414454801,0.9261635023051682,0.9185359175814769,0.8977501980583592,0.8529061241242225,0.7570458074058248,0.562118348800821,0.25827552334064185,-0.04493122791077241,-0.2536561578430622,-0.3778893357120623,-0.45180418773597353,-0.5023832131428645,-0.5477629492355534,-0.5959644843567599,-0.64546391970801,-0.6902323633256471,-0.7070261038296387,-0.6507557562941975,-0.5153823739609209,-0.37237076933992147,-0.27616725345233417,-0.22366349282083464,-0.1963081392943721,-0.1828848240025552,-0.17752089918776076,-0.17818243417725335,-0.1867354811739736,-0.2049330544152163,-0.2380861694120884,-0.2953465614947963,-0.38622182489579115,-0.5112258585973144,-0.6469636453679841,-0.7462860410282331,-0.7901901985521098,-0.7984627142943166,-0.7905694513241064,-0.7718659382606141,-0.7354239321366581,-0.6755580923908974,-0.5870300794445374,-0.46590524473028305,-0.32664020893629414,-0.2046843326540203,-0.14342168529563024,-0.15365069653185104,-0.20458807000958976,-0.25362286193719485,-0.2664966656199722,-0.23196736627346237,-0.1505531926476434,-0.02114504875656373,0.15726824910656098,0.3600042813581778,0.5293064739950053,0.6273207544934866,0.6699503228294259,0.6829978212650368,0.6864981576232625,0.6893797048319954,0.6910003033898663,0.6843926207231996,0.6597363133912596,0.6126523508469806,0.5513925347897807,0.4999711437073144,0.4847764466022111,0.5108295705392254,0.559488594785396,0.60850761605697,0.6422912683471181,0.6539994352185224,0.6471342005077053,0.6332441329421717,0.625316642842793,0.6301007676434847,0.650474692515336,0.6840739180398557,0.727278683958296,0.7737900895142562,0.8133438371598506,0.8147184153569097,0.6705691143333383,0.28193084035633087,-0.07455642457959691,-0.2519598603975624,-0.33282119478847016,-0.3709827376961156,-0.3912933026291948,-0.4074212567029365,-0.4301744937797327,-0.4640847950785077,-0.51301545035819,-0.563033497383048,-0.602911425331085,-0.6296791722435241,-0.645381233145721,-0.6483515900454022,-0.6396610501855059,-0.6270185393818845,-0.621813558028274,-0.6305446994421314,-0.6454427829833631,-0.6523023752850563,-0.6442358134013072,-0.6225101566232132,-0.5928774235906926,-0.5606320258543657,-0.5255146032279057,-0.4656603883593917,-0.30065067954208446,-0.06788353571386763,0.0939755518904293,0.18853534545336392,0.21713351866237882,0.11731768807509356,-0.14170321686465767,-0.3861042197491281,-0.5287288750772232,-0.6145098854833414,-0.6721337848837262,-0.6940703473676186,-0.645002577182902,-0.510437004330665,-0.337715245024084,-0.17740928454627425,-0.05162638704998558,0.03789368950411263,0.10151059846672883,0.15043940341765136,0.18885341143729797,0.2168516153637611,0.2355257610352099,0.24894052775321768,0.2646827189544306,0.28380299858030833,0.3055689773077679,0.339379620766887,0.39518380098563927,0.47953068241982844,0.5770880273787868,0.657880274284872,0.7054054979012269,0.7186739310746795,0.6956892571874519,0.6324279024873988,0.5377034291536448,0.4402743814939988,0.38586632577739355,0.41197058991114366,0.50855730349829,0.6283017613975838,0.7183508514320209,0.7541868876382467,0.7333939553514424,0.6631097268442714,0.5733973130463157,0.49930721263403566,0.4514327366517102,0.42005619417666923,0.37570484675837235,0.22645580945274776,-0.2293367784757815,-0.721199441157566,-0.8452788182612789,-0.8572968058954336,-0.8479404298146276,-0.8343196246514458,-0.8191105256961619,-0.8024120690298513,-0.7816126241720571,-0.754145140929818,-0.7158429326003412,-0.6609731910864766,-0.5718217556204749,-0.4228294564355236,-0.19609075596606115,0.06955999772825651,0.3194905956997233,0.5133450691327397,0.6464535717635781,0.7412456788109175,0.8158830513641601,0.8831826575299946,0.939510857244791,0.9755856380961466,0.9902924426488537,0.9877536733106087,0.9687301803048235,0.9243699073293773,0.8345290335543579,0.6721420469551262,0.42392268195431104,0.14117356046749457,-0.08674101967757178,-0.22860307520820633,-0.3073799871720061,-0.3491780422464218,-0.3733068016141243,-0.3945561289765501,-0.41483162781449473,-0.42983441786471405,-0.4356878587971398,-0.42965620562192414,-0.4137022223035754,-0.39680983805855263,-0.39048124060430317,-0.40566665704809457,-0.43624543867311194,-0.46283548029667815,-0.47047982391302734,-0.4481336878275842,-0.3976494606498589,-0.3252485229108851,-0.24402315772412195,-0.15893276588375477,-0.060619967353926205,0.0666139458698028,0.2029410002089737,0.30679409934999025,0.32099598211000224,0.20372944637101686,-0.06474051553965192,-0.3612902985212666,-0.5187775199227108,-0.5466749171492766,-0.5040018449875271,-0.4144671903625795,-0.2752767633982466,-0.059620099709193276,0.23283560484770083,0.518334655662555,0.7078283368285869,0.8010176738602052,0.82999928454605,0.8099304009916586,0.7247792901267909,0.5339393381621469,0.2378593203072985,-0.04822075903402329,-0.23783855850086075,-0.34563477682953725,-0.4021971282910977,-0.43256570761260116,-0.4554134133635139,-0.47886529178229215,-0.4915586899868596,-0.4877963588471692,-0.48698102829528667,-0.5125889610064598,-0.5553749446557609,-0.5855453608885338,-0.5777688368897438,-0.5181077403262739,-0.39638568579433203,-0.23384667775628204,-0.07608936239412144,0.04657174806659235,0.12794177998829148,0.17821111047901608,0.21645973233312985,0.24834687579952613,0.2732232843543077,0.29039771044608925,0.30215392438833555,0.31761313430094695,0.34698384076666666,0.3869690315724993,0.4175667714107113,0.4204565645215626,0.3787041431149824,0.26870691367105726,0.07247654900407731,-0.17430898364764083,-0.378575428535311,-0.5019214652404326,-0.5737473298149507,-0.6247061774889042,-0.6783683230806997,-0.7536417580788738,-0.7744941331534206,-0.5378190824837759,-0.2797536532099071,-0.13111691729124608,-0.04692950625965336,0.005684094957043047,0.038639454243742585,0.05222856491262598,0.04599090210786292,0.019050969131192103,-0.02006432129632767,-0.0533658814130904,-0.0647926251275269,-0.05248178069527526,-0.02459820786158545,0.015259549595271444,0.0704387862044494,0.14427584789516495,0.24434180593102295,0.37754244483669436,0.5134614926572716,0.6033606643619798,0.659488421562822,0.6977436992270298,0.7134754196021978,0.7003362724191685,0.6569519991104095,0.5815547197298747,0.47521045422178004,0.36229809507586824,0.2947932033286255,0.27033942432413255,0.2591105280821826,0.24614478711135174,0.2278931307984003,0.21447851817547825,0.2125644166587422,0.22129085267385162,0.23171005099412573,0.2348170455543337,0.22621704114280464,0.2184346916677365,0.2240339256216028,0.23545168079913462,0.2495406076392667,0.26340299797794764,0.2687626080544866,0.25567103540000785,0.2351339479117965,0.22389692403404995,0.233899921496743,0.2529268727247628,0.24987478780555417,0.23148496373411875,0.20836798966415748,0.1829935351492051,0.16239503180814807,0.13908170161489053,0.10758075377379016,0.05731586646607561,-0.021588742863482138,-0.12473472007610781,-0.22996990009574778,-0.31444142889913923,-0.3744439937933381,-0.4079641213559282,-0.4138195417394192,-0.40435895802270866,-0.382142441425153,-0.3421392132205129,-0.2681883327889488,-0.14735823400112202,-0.004695228633636458,0.09638273097150621,0.13329129887005994,0.13717035940149003,0.13974654956829186,0.13257674201820085,0.0998563791487504,0.024653860330082784,-0.09548053476012873,-0.24678494079753654,-0.38305988333910646,-0.46133035127061417,-0.4679596881330821,-0.3983865123745531,-0.3165387797407556,-0.3011269394819253,-0.3594264227035799,-0.45076995594158303,-0.5206131498011259,-0.5308057297168745,-0.4539149700877109,-0.25214689322258754,0.021933216822880613,0.21616581617885458,0.30855801618292156,0.34989701252143285,0.3737868534848641,0.3932806292655707,0.4174080164853477,0.4520564924072308,0.5065643047750067,0.5927977648498343,0.7005581797022697,0.7972029590181099,0.8619934040121341,0.8989574959939579,0.9183857614381234,0.9239201808548528,0.9101390104838523,0.870578676274693,0.8101904192450852,0.7412508538477565,0.6683607892429425,0.5925305177264621,0.5137514214387766,0.428656344046157,0.3287381682027872,0.2026758932312912,0.05259328312928782,-0.11289831666746582,-0.279627135711138,-0.43959344835934006,-0.6047605893137076,-0.7908868621796726,-0.9046593755469174,-0.8156340122792013,-0.6472077559425411,-0.5158443277748513,-0.4284216646359407,-0.36939885945055506,-0.3314123357171514,-0.3075242160366666,-0.2877315988468424,-0.2603786946369649,-0.21889880519812588,-0.16101115891165504,-0.08714023754498447,-0.006216422410334262,0.07253161484833691,0.13339287038723105,0.15198899972488011,0.10510445322824342,-0.0111629942297701,-0.16443588837354725,-0.30183014090922683,-0.39229605684715946,-0.43659746579611663,-0.45045099718832765,-0.44976312294903975,-0.44721967397878454,-0.4454968102602078,-0.42959072215976524,-0.3792651548283668,-0.35788700539838053,-0.3922390915195761,-0.44336281554196677,-0.4674713822802856,-0.4502294759476367,-0.39830071686684154,-0.32277928076857537,-0.23865334002340732,-0.16614076244617784,-0.13049796000469205,-0.14291008800665195,-0.2102618385237831,-0.32448766489447967,-0.45899383781911907,-0.5733529135469904,-0.6460188181682122,-0.6734126273683121,-0.655465165054933,-0.5769759531311133,-0.4009741694667271,-0.11811584722769107,0.16725510305178382,0.3361162510007844,0.39348185605104163,0.37419961048852846,0.3006541204678778,0.17989469163267835,0.012400176148010915,-0.16734589330494443,-0.31426213533857394,-0.4027568737647178,-0.4256790017968226,-0.3797668934160816,-0.2596554439900731,-0.08396485506289043,0.09336154006507247,0.2504995681586131,0.38354120227855454,0.5005741266663031,0.6040828885967009,0.6917253571153192,0.75464301886652,0.7852669365845715,0.7870612151068158,0.7752714923330616,0.7616617495149015,0.7518735061791666,0.7444770390774563,0.73235269285188,0.7125951537098412,0.6898859516813153,0.6722711162238596,0.6610055325206918,0.6547177200225213,0.6452119572401658,0.619578232854327,0.5670822384779901,0.4905468661182765,0.4074843228984347,0.35168075916280744,0.34872774935646517,0.3862747410853396,0.41603918180796096,0.3657365124558543,0.17473142270123063,-0.12774263683280357,-0.3741156614333638,-0.5015181746815409,-0.556753905858261,-0.5741136175107597,-0.5759215722935532,-0.5692885594570806,-0.5643226613708098,-0.5551852212546181,-0.5381834593494768,-0.5238308167143587,-0.5348384459057333,-0.585116276660249,-0.6609613262863562,-0.7134520857311059,-0.6865528923592368,-0.5753833503300294,-0.3782038747696587,-0.011239963589133534,0.5318101806246252,0.8454397519746103,0.9381143225957221,0.9647199618876587,0.9716628631057136,0.9684225914137293,0.9509421380442912,0.8989149401389216,0.7546696728545607,0.45430268446601096,0.10906292240833472,-0.11658597895839998,-0.20972456116656799,-0.19350203837931587,-0.15800429640419647,-0.16420195207697827,-0.2044746583870047,-0.25545631183268325,-0.29937355239886254,-0.3358106372789536,-0.3639118353187227,-0.38038062329810496,-0.3787094339205157,-0.35740484234783554,-0.32314113726768307,-0.2866822960653136,-0.25936014813016917,-0.2503127122745629,-0.2690456264395698,-0.32977554179257546,-0.45153214707919914,-0.6300322637669996,-0.799007268942912,-0.8936028217194288,-0.9227368434706062,-0.9078537590609098,-0.8284359376603542,-0.5993847930773871,-0.18117043419294768,0.14606592820664346,0.22922966612651258,0.1647110897038316,0.0890862436567366,0.08968853472135523,0.23199190364332775,0.5037070211413587,0.7296096400341323,0.8257269920451233,0.8382788805615455,0.7736866917973764,0.6356784617732532,0.49942850980105996,0.44515324257054734,0.4988994250261837,0.6373167835939131,0.7265128083609605,0.6488160427042265,0.5257214136713279,0.4366049178675932,0.38935977641030567,0.36661284618064816,0.3632644292924281,0.37231761320574147,0.3814393721222879,0.377313447153317,0.3474115204899671,0.29843496801888936,0.23873641064618462,0.16162326359016152,0.04695806390404333,-0.12341217314812208,-0.3279342214039965,-0.5157731950475848,-0.649599952951858,-0.73090431530109,-0.7818898129566347,-0.8215438019563736,-0.8549001113423064,-0.8772435366958558,-0.8760460632417421,-0.8389768078106126,-0.7289693162473402,-0.359395902416201,0.4387902787630877,0.7208288758897574,0.7248692253763798,0.6885688091082718,0.6673401534876383,0.6821407219408809,0.7336006687845377,0.8003333573629511,0.8461456454387304,0.8575148467338225,0.8381160325577109,0.7937643524664817,0.7311908228241009,0.6559054592162259,0.5605633527364303,0.4283921070624058,0.23343349327318486,-0.03636576076045112,-0.3270514154151748,-0.5088125438385853,-0.540592420576728,-0.4948589552573509,-0.4257211253077018,-0.3312226854187353,-0.16785490225619082,0.14781621199399883,0.33099408892196275,0.28478553075062185,0.1746857102499126,0.05996184132571431,-0.030051098711196076,-0.09191824550730603,-0.1351787810675017,-0.16962297499622433,-0.2078743361394754,-0.2550730054997497,-0.3085500845386283,-0.3641931008776627,-0.41537427171924113,-0.41273780426463785,-0.22444607203242,0.03837128628864565,0.18341992057807713,0.22274126837336905,0.17567666757118394,0.05314909632129306,-0.09530705734614349,-0.19264443264872683,-0.21758610102353126,-0.1818165376391317,-0.10301127869174999,-0.006569164208388308,0.07959564748772595,0.14055577050112567,0.1719938192413994,0.18046213971925643,0.17804512216101234,0.18388028144444885,0.21723742986087005,0.18096925639554096,0.1456888480317528,0.1402608405569143,0.14016437273541105,0.1345194703283863,0.12332066888181543,0.09871319550284223,0.040791476355060474,-0.07389396046447844,-0.22742956796410776,-0.32012682317484287,-0.3374464031494186,-0.33245884498332967,-0.3137940669493587,-0.27918445567850997,-0.22658084607933734,-0.1676950735078302,-0.1207047646695167,-0.09781931529550196,-0.09653094068189808,-0.1070551375373595,-0.11813989095088026,-0.12453706828611988,-0.1259092082192462,-0.11862039648866864,-0.10095362243660862,-0.07644105827296863,-0.055866368960731196,-0.05466403782921033,-0.07681971026534412,-0.11063213243820678,-0.1265510133841231,-0.08743279981419885,0.020547403158393544,0.1714165560643797,0.3222991411012512,0.4421765524446488,0.5192018725153199,0.554734974517371,0.5527192553768938,0.5229245971408066,0.4763909711647972,0.4234442570498531,0.372356114621369,0.3330878212426234,0.3110510817990799,0.3055941918821466,0.3129317646151762,0.33115266968873447,0.3618983639861593,0.4115542778356556,0.48658442908294297,0.5842453763397089,0.6776640341587543,0.7275031638648086,0.7220088088726807,0.6568774808231889,0.4860608672495066,0.10721488346237887,-0.3668976863292902,-0.6258919686716096,-0.7126227267937398,-0.7217514007502176,-0.6787209040907178,-0.5760192264685878,-0.4156306103436663,-0.24323865155541102,-0.12372752258342201,-0.08105225216871077,-0.10249527295903732,-0.16983544207868803,-0.2738374625358581,-0.4040763900632318,-0.5124731507514599,-0.5458664854079153,-0.5077667705779431,-0.45006213251998667,-0.4029420854889419,-0.3684861375083599,-0.348916888659844,-0.3440224745320399,-0.3543849574987254,-0.3788173846734097,-0.41456811380270864,-0.45806668009698437,-0.5053015621092576,-0.5586988707948084,-0.6142245366197947,-0.6666392962696446,-0.7091196303858235,-0.7413541244984081,-0.762934351497243,-0.7734892061229315,-0.7783088778628742,-0.7815227626787008,-0.7902193421901381,-0.8132322722911229,-0.8433002565654657,-0.7778830112267675,-0.5668149736679461,-0.388920269639201,-0.2750535263136501,-0.1954223984892604,-0.13775765458848593,-0.09655874063200182,-0.07308080241082095,-0.07167511563015523,-0.09135756939714933,-0.12486870650299063,-0.15928662200340432,-0.17009212849825806,-0.13887830881397176,-0.060925253854523374,0.055128062530342026,0.19321995637365524,0.33714140225077144,0.467720016344961,0.568185723711952,0.6330005317869674,0.6677991725824148,0.6790605053871932,0.6730145376706212,0.6519499225392785,0.612286096181354,0.5438580479040028,0.48601079337087355,0.4576315871195927,0.4349214047843089,0.3921315520393397,0.31525584306962057,0.22023883043821293,0.14287976693094312,0.09666128495508279,0.06482048178241495,0.024942174413026683,-0.03058137756714886,-0.09122942346481015,-0.1402418496358414,-0.1676821664752503,-0.1709488954372881,-0.1531614358513265,-0.12160284923518545,-0.07850849184348169,-0.016605131038016866,0.06831598477065376,0.15973562391159596,0.23320381902938336,0.27790798598074606,0.283805674512952,0.24270688961217676,0.1510919278309816,0.019897278481764213,-0.12553598869425914,-0.25786452332825954,-0.3596382267080293,-0.4222151277510462,-0.38394040084352876,-0.16032718286181752,0.038778741851309334,0.13499841583703126,0.15646356638550327,0.07358518457932768,-0.09820059573122761,-0.23067867888215057,-0.30832937770419816,-0.35560483679947424,-0.3779437386015303,-0.36809233213076503,-0.317851919199282,-0.22350640414043974,-0.11510041368926745,-0.054593988599103256,-0.09591951106446887,-0.223270084705658,-0.36554838922746585,-0.4651371827215412,-0.5073629237598386,-0.4933660322196573,-0.4169787095540465,-0.27572694469149245,-0.10541857948859858,0.05455177036774793,0.1850003304025116,0.2747447682051429,0.3285503909697845,0.3629650363732589,0.4068433053642668,0.49208189638906746,0.5893992691322243,0.6630659490290828,0.7048492955260989,0.7203897821425317,0.7161791083768373,0.7003178527795664,0.6832079859790519,0.6688151559950767,0.6537284703239991,0.632907932619533,0.6067997042759398,0.5879832820890661,0.5709536995791428,0.5510789086766454,0.5241168587363454,0.48084234943463355,0.41802782217730444,0.321205366278312,0.17115461220684838,-0.02735804260623999,-0.22851170764399095,-0.37359092937451027,-0.43349675742499383,-0.4494449064785474,-0.4439228932747994,-0.4233844664174146,-0.3878537269898701,-0.35425809386310575,-0.33586528983209524,-0.33394616240467034,-0.35865929647647526,-0.4161874346533045,-0.5041419858300142,-0.5977714327202012,-0.6715100969287103,-0.7249351694424997,-0.7635890753043858,-0.794758870922261,-0.8218493277975047,-0.8427092928613423,-0.8511350080461896,-0.8410162955489312,-0.8119546106173899,-0.7612696844383608,-0.6855295561551213,-0.5767015144635893,-0.44925700442291555,-0.35004123415746274,-0.3038654030529751,-0.2854782277747782,-0.1772390576709297,0.16542257151612813,0.574882347972304,0.7878883366863842,0.8758415905485123,0.9155964922149243,0.93858286577442,0.9532566104992858,0.9619172113241147,0.9659368481637566,0.9673869242041032,0.9686882609545393,0.972252696388778,0.978396055629895,0.9841524053551937,0.9846924914976183,0.9728257778014169,0.9402685728067388,0.8830587336961715,0.8055418820058038,0.7080850071620942,0.5751767231950788,0.37900404772069624,0.11736718670983652,-0.1554865328621815,-0.3794942168643125,-0.5373589418860638,-0.6470452939454379,-0.7185121894331215,-0.7606019473967498,-0.7800518524571467,-0.7733944435620681,-0.7198679499864314,-0.5708099826730255,-0.2526198985157974,0.14134957944743498,0.4210418110018781,0.5895219821033267,0.6932420135793403,0.7579027273379983,0.8023603629625841,0.8290837354953969,0.8399304328949023,0.8416522743253286,0.837467120720485,0.8309568867000632,0.8208527168501512,0.8058931605540154,0.7841826110458205,0.7527053353571177,0.7069712107262786,0.6337765519199428,0.5185692153026986,0.3518795303978226,0.1275056463867863,-0.13700171463949098,-0.3884179595487387,-0.592724194971608,-0.7304751950163516,-0.8069772315502062,-0.8441748575165379,-0.8583858996487684,-0.859325308410899,-0.8505354116919961,-0.8310406769923988,-0.800059402190553,-0.7648170044451706,-0.743413744541643,-0.7517000635274557,-0.7805529366724611,-0.7997627523273084,-0.7912041693220281,-0.758700505980615,-0.7076131870580898,-0.6413989465486548,-0.5584084400145025,-0.4589421031697836,-0.34918299219030946,-0.23941703023690644,-0.12532257163201357,-0.002920552240517803,0.13259948643316366,0.265249999960811,0.36156497742545984,0.4084819598365867,0.4314773127975061,0.4512044557331634,0.43127375494008535,0.36379198375484795,0.27062072929841463,0.16958338038841864,0.08464616197437533,0.03343622697855476,0.017484002949552074,0.02205553676763159,0.0301330138679874,0.037323717304737276,0.049213635857267964,0.06624440269601284,0.08422118608871779,0.05454919771784833,-0.05811407281353828,-0.12864650351293447,-0.16366656405300922,-0.18144400382931977,-0.18927348629923127,-0.18984453332726353,-0.18626422067132273,-0.18364238678532244,-0.1913846861765335,-0.21485253856063985,-0.23822778713764187,-0.22722514874613972,-0.16532368925302396,-0.061554502673217236,0.06449366845920353,0.190473998134709,0.2921704131904197,0.3558372294710231,0.3784919899699782,0.36373208738716417,0.3212774765640787,0.2702373720404484,0.23118081217978087,0.217288942017589,0.23213360363354513,0.2761975357966163,0.3703243623987849,0.4202603678788086,0.09001155420488482,0.02438653342968418,0.03779529348022135,0.0707389622270603,0.09941349396476014,0.11080926259671638,0.10042378040189046,0.0712347481489686,0.028351759416709976,-0.02138462551551149,-0.07005601854055596,-0.10957663082327,-0.13427357551812136,-0.14001283004380555,-0.1252998877385409,-0.10079626915548123,-0.08053866494060898,-0.07322039480936819,-0.07695233347671775,-0.09229437933475243,-0.13748050237736523,-0.2605953967523284,-0.3758054482872296,-0.3509188471807191,-0.31612173369424423,-0.24169638743918256,-0.06132211963431194,0.18411150715286825,0.3456307467476934,0.41411276790687374,0.43015607968727604,0.40838903910972746,0.3450554401472076,0.21647551000601725,0.040788480313901206,-0.10585689042908354,-0.18419438615622138,-0.21768032730835468,-0.23505185441676374,-0.2628784389793997,-0.30312674812182855,-0.3472097447627982,-0.377982203468541,-0.3958362317192701,-0.4107004425516085,-0.4286762478385052,-0.45146033687385306,-0.4736363185142811,-0.48967044838983487,-0.48966091252294675,-0.460393692623216,-0.3844109694263787,-0.24823880950190425,-0.057700266570228954,0.14384664216828488,0.3200401194721369,0.46111323883746413,0.5838723872099298,0.7083316482591532,0.8134076503266292,0.8635624401560761,0.8780061565906759,0.8830480968760929,0.8777899438884539,0.851306944529457,0.7736105426508123,0.5721762578249214,0.16299565932786286,-0.27345384586514526,-0.48186834237458176,-0.49348489893048125,-0.38761328546947105,-0.22689485469889098,-0.08605312853579201,0.011330103921947561,0.07606146620443309,0.12371948083422127,0.1745550084183905,0.23263427329549966,0.29154392622523784,0.3518374385817763,0.4079088044549668,0.4606059867925251,0.5103862927969348,0.5600971482816737,0.6017893182674127,0.6279697022760039,0.6355073278968907,0.6185404589989435,0.5813844445593361,0.53987486598458,0.5242123222786479,0.5433706821508595,0.5660075179672903,0.5586568375845862,0.4870386572328627,0.3306614627445275,0.12809132580949706,-0.010604958789832086,-0.008398572973114561,0.13402405127514933,0.354774543769016,0.5514032637946539,0.6671669288995603,0.7153684785717003,0.7111071678076278,0.6470710919880504,0.49352599115595164,0.2437797995837568,-0.003375649989776813,-0.15187413216663168,-0.19568195279803421,-0.15918628303140728,-0.07190798848466122,0.020721544996041487,0.07948890001128844,0.09274857842844268,0.07317250515758739,0.02970616139439368,-0.03207086422008728,-0.09926641314578989,-0.1541892764362963,-0.18295241788603017,-0.1838234245748842,-0.15755008261780828,-0.09796694916895224,-0.012689242103394113,0.051683384252158494,0.05440293641587426,-0.014233928263908147,-0.1263738545219007,-0.2296898150541751,-0.2910970346070852,-0.28666411871994246,-0.20942026582630677,-0.10609643681326082,-0.04722459959670145,-0.07940326855518891,-0.21031892896199972,-0.42533336990001047,-0.6623696368970015,-0.8236010849315059,-0.8919446901959812,-0.9103950783615066,-0.8941305521629218,-0.8359520522543431,-0.7541219079112673,-0.7028557516417595,-0.7097236963860708,-0.7607579453885418,-0.8201728623761028,-0.8624012007165448,-0.8749081908107695,-0.8556261786349219,-0.7967878105629452,-0.6752418919670654,-0.4624147033969816,-0.17565799465466964,0.05542615840095941,0.17667039360045111,0.24058013419798996,0.2909429518322181,0.33593857192351834,0.38255997470880887,0.43887842662107923,0.5140287110943662,0.6158567327772312,0.7098156395285672,0.7354694794651039,0.6951280371994498,0.650225077303548,0.6350537151781019,0.657329694534649,0.7092956999210964,0.7727401473674692,0.8139625154250252,0.8300271570549165,0.8306867799426004,0.8247046452305071,0.8145636909425407,0.8000327081286023,0.772148436184916,0.7290255249301161,0.6862548447422778,0.6617853225204461,0.6617921893684112,0.6700321250856862,0.6669278175317156,0.6486532954833042,0.6084281233723079,0.5252965592051809,0.3683259581373284,0.1465632494097116,-0.058773151778565395,-0.16474436688986077,-0.15552519926232006,-0.051987519380639155,0.08198444817075845,0.14736434684499275,0.0825301022751858,-0.12562658439833035,-0.3924536339286577,-0.5864826327342463,-0.6801218154626066,-0.7224947399899453,-0.7554797544582996,-0.7989750334455112,-0.8495446813654247,-0.8932920455955449,-0.9161749302720097,-0.9130044326153318,-0.8865222229796103,-0.8511687389469944,-0.8191020486643602,-0.7932982789215259,-0.7676904318995418,-0.7256846506874178,-0.6442174950396544,-0.49720734869280186,-0.26299661690284626,0.05375414766880287,0.3750336212721627,0.6151696376571167,0.7630110637181553,0.8446281458924618,0.8835136621510723,0.886187154235519,0.8266935771667152,0.6042270384981016,0.12099462073789685,-0.30614592094406506,-0.5078113701889045,-0.5907579443119695,-0.624555762771796,-0.6412380072248672,-0.6519663658560967,-0.6579221410309982,-0.6622739971171683,-0.6684588716116737,-0.6831381157942246,-0.6891584850553455,-0.5888660673117408,-0.38868829778026237,-0.2045215138610277,-0.06514555450644259,0.04494587177462169,0.14546724411181167,0.2385339709261133,0.3227648102144096,0.39676007948137443,0.44401197084343574,0.44674832490677785,0.41755143733726696,0.38167850315294516,0.3469057445223725,0.309637558074162,0.25749407050223583,0.18418357553483425,0.11024221293852325,0.06175582272063387,0.04687158248033679,0.057786117450004226,0.08951736479842971,0.13497277680667216,0.1891769939211458,0.24283716765400898,0.28899406288637514,0.3220388552669899,0.341822254509473,0.35399352597467254,0.3643617461640531,0.376350144435745,0.3910818467418076,0.4055879657794783,0.41757516718242443,0.4230247526950995,0.4213439166384323,0.40598164220119953,0.3249478105337038,0.08638222903720362,-0.11763925251765282,-0.19942794221704774,-0.22692215064051852,-0.2254285681710409,-0.20016027904373823,-0.15817199115463434,-0.10707419987226653,-0.051684480555500324,0.0028883613358312845,0.053723529197933356,0.08770459567964879,0.09018108188694307,0.04746275195980007,-0.044230486988814696,-0.16114951754277548,-0.2527574140368067,-0.2700208186978664,-0.22671257409708567,-0.19967429083397437,-0.22536383692067508,-0.28673474834461943,-0.34787442487928943,-0.3742743828367984,-0.3476417823303471,-0.26524231179049323,-0.12472356233717077,0.07573935557368859,0.30762679509785884,0.5044062250077135,0.6415322315450294,0.7303445062190451,0.7856081481699608,0.8136836992472507,0.8192966533349432,0.8086330760228279,0.8045721578827939,0.8188917862813461,0.8417534462528036,0.8572873728137239,0.8520546837706607,0.8040915751587856,0.6695999813439508,0.43072642564399594,0.16723302434726647,-0.023727875212891474,-0.1379174148990285,-0.19902542686419009,-0.23030428962747718,-0.24559214814112137,-0.2519806785090297,-0.24980293549790006,-0.23836122944065938,-0.21734180983455204,-0.18894900629826575,-0.1739884841202594,-0.20886825684929267,-0.3008493810751604,-0.4158293456494788,-0.5127236003968225,-0.5709283619119405,-0.5823655076011753,-0.5183535177549836,-0.36434937928948974,-0.2185813160620771,-0.13818048100857275,-0.09160806471396836,-0.051654131290519135,-0.008294800072466205,0.04169686900849308,0.10218365740979904,0.17543463144813987,0.2616907209704351,0.3607806407073653,0.4564884882541735,0.5244818976811275,0.5593336949078074,0.5757537470022557,0.5937536275934615,0.6267196031737005,0.6774438876918808,0.7376468918985636,0.7931071987848421,0.8261070047732861,0.8061391875248454,0.6108744187034295,-0.07585807568328677,-0.5958881633485966,-0.7467433959048929,-0.7925225205615599,-0.8001853321869001,-0.7709816545723513,-0.6696873718757558,-0.42850399833768166,-0.09920612418144201,0.12382141828004334,0.17976264588980462,0.11972325291361122,-0.0022958954631620903,-0.13757284479003923,-0.2502405390732965,-0.325009369901559,-0.36629886835148273,-0.38437491686674063,-0.38516109628396916,-0.3891609454144363,-0.41086024110341507,-0.4571998751964061,-0.532324581078659,-0.630507556428032,-0.7333054015998174,-0.810527254581203,-0.8444039152390543,-0.8301150257293272,-0.7734550469043623,-0.6940056753333346,-0.6108805295153321,-0.5303043479903252,-0.46008108937199094,-0.40593824930181993,-0.38244986185789126,-0.3953800468101202,-0.42643836882566166,-0.42145647494315225,-0.3015460892819567,-0.09858985170257178,0.11926745712224816,0.3039716841043334,0.45367497657153466,0.5757318074546586,0.6550397862812346,0.6782671515094482,0.670545909053835,0.6657641366521294,0.6928962495995102,0.7552484372121313,0.7699522191022312,0.6687334818024401,0.5733464494398872,0.5331921921885171,0.511084609424168,0.47319466799167065,0.4025737717936233,0.29613857528229975,0.16185986901628077,0.016716132200408993,-0.13481945063444553,-0.2854965438637765,-0.4217541926597786,-0.5313336620518728,-0.6157405251486965,-0.6834575069495781,-0.7359183655168007,-0.7711449835832636,-0.7891785750799187,-0.7878440217701169,-0.7662066537801121,-0.7223223524351916,-0.6363797229992549,-0.40718870303209315,0.25120228366791525,0.834574610821999,0.9603834944485601,0.9857584819153895,0.9927943760097684,0.9947728998272521,0.9933859869228129,0.9851428849621316,0.9508869786941896,0.7768180872588103,0.1710588928782369,-0.30109293608249765,-0.46067036125433725,-0.5184147630985596,-0.5412705500910725,-0.5510015696336839,-0.5411556700170749,-0.3612809444196613,0.3994595763851967,0.6382176801652525,0.6841002012040378,0.6971840032810159,0.6894041878415768,0.6447161971914998,0.5071045945868488,0.1528693989005401,-0.25546429366293505,-0.46553087872795224,-0.5889298372593195,-0.695601548494296,-0.7775656370444687,-0.8165104842817529,-0.8089400743290502,-0.7371040857780492,-0.5346244718710428,-0.15056442177542664,0.22833519701061494,0.4613700368859155,0.5920724787053553,0.6679294406692294,0.7071690308689436,0.6926310486617135,0.46181987257632334,-0.1621173014270209,-0.4858121442326645,-0.5753886493257987,-0.5091314166614811,-0.06918309058565206,0.2900277664432748,0.3804755562134264,0.34840700981569644,0.19674460802213165,-0.07929903569597023,-0.32015332946864117,-0.42923867282640715,-0.4541883311040589,-0.4325730037903068,-0.3775812096071974,-0.2870540247595544,-0.14854400353525718,0.028814364318093904,0.1977683426027788,0.3309623095016554,0.41739822855609626,0.4602841328368103,0.45258778870677707,0.39587558527197764,0.3186462807499649,0.2556713926309371,0.23242626253976242,0.24394897374486674,0.26169414867522656,0.2655916693187414,0.23522569822369307,0.15880848128195543,0.03782035086762966,-0.09915652914474546,-0.21571990738719626,-0.2908264215635958,-0.30524427199540766,-0.18474410249957401,0.023592890997016117,0.11127365977603504,0.11168378856782067,0.07632631700408507,0.03317851173217157,-0.006902048259244157,-0.037651938788344545,-0.05709843319621112,-0.06624310019135513,-0.07179102326140929,-0.07615701739982375,-0.07861240631684883,-0.078365739925049,-0.08373520814397245,-0.1101272768681095,-0.18340836053765214,-0.32116355140049085,-0.48668324441311805,-0.6085535608521893,-0.6652185356597848,-0.6688167826318204,-0.6334825809465863,-0.5631363847181419,-0.4504628391869047,-0.28266719100446047,-0.08137843298926457,0.09930875365424266,0.23449892533480793,0.3172960318690299,0.3631736781951087,0.38281733775323495,0.38394323809003295,0.38898742574933726,0.41865555906996693,0.4828593181775763,0.5708582262813484,0.6631764754394325,0.7353378521736126,0.7702969747147865,0.7679780344439554,0.7427970117389464,0.7073926193135965,0.6661832909143947,0.6065198869131656,0.5075601331819858,0.3559204720526541,0.16182732844631348,-0.0341948326064031,-0.18886499277177746,-0.29028366702383107,-0.35084013449022905,-0.3874266628958743,-0.40899426166031144,-0.41886771828107294,-0.4137277222709848,-0.3934124747118517,-0.35889803338442816,-0.303503501772978,-0.21429232564305936,-0.09719844311956588,0.027050187492205245,0.14361202597444742,0.2491928974103479,0.34424845998096515,0.43035111807356013,0.5085643099454146,0.5845307940737089,0.6552173661515782,0.7124650895970831,0.7441349000817432,0.7446193960900565,0.7251049973481384,0.711692487134181,0.7077376038937376,0.6953042995735744,0.659087785033467,0.5844713451190393,0.45469382064042946,0.2650574546276804,0.043566200005633,-0.15723192769978203,-0.3142665556826551,-0.42992748037745177,-0.39682067455420134,-0.05620131841396186,0.1355726282594692,0.20899406382367275,0.24222170428239062,0.25529755044835745,0.2510379546023936,0.22159790426741338,0.1519056401096758,0.07580192582663417,0.036908076025846503,0.03914392470272315,0.0684856420308365,0.11332622792489093,0.1571508664066892,0.17905871035233892,0.1660427354024551,0.11183258143828077,0.010127334356292275,-0.13693544321822548,-0.3032848375227493,-0.45093504045593746,-0.5380083094449213,-0.559633156819976,-0.53236077197768,-0.4755517036076627,-0.42371425718747185,-0.423441008498782,-0.491020501489667,-0.5972867073449841,-0.6865447068870084,-0.7062444468769501,-0.667249156134343,-0.6337052480775619,-0.6505659578884797,-0.7014237747009638,-0.7488201456685321,-0.7704589549715204,-0.7627635668211943,-0.7231907276501963,-0.6349085117861858,-0.4690167759283042,-0.21346637159025833,0.1124879921288866,0.4400696960914985,0.686639323453204,0.8300596936830181,0.9051340336848066,0.9440405812060542,0.9630881728647037,0.9704018384393862,0.9700380139687427,0.9638737317402062,0.9518775208058267,0.9372133182012342,0.9279410648502372,0.928058094134902,0.9325202296571138,0.932052909994172,0.9221428670715448,0.8951464529804212,0.8283486652554226,0.652099439871253,0.2515344948187521,-0.24745691766922898,-0.5711929411898503,-0.7398007627654797,-0.8139654282667784,-0.8256094217594959,-0.7907167525729857,-0.7304873486098217,-0.6847837769804322,-0.6714447770236548,-0.687666617577885,-0.7228751371912344,-0.768798651242889,-0.8179978016034085,-0.8593304767754937,-0.8871780657337842,-0.9052488372799765,-0.918397687374746,-0.9291628326657139,-0.9368535580226833,-0.9419711716362862,-0.9452725703055597,-0.9460545356132734,-0.9442708665912616,-0.9406269350735711,-0.9351993673837662,-0.9106181870548241,-0.5603873751934705,0.9021983334512408,0.9781465062332244,0.9874263793329684,0.9885676631467308,0.9855010956809998,0.9756168335150288,0.9516762861764956,0.9066611025728345,0.8498985703293952,0.805686859273195,0.7789499038364261,0.7504767658868335,0.7006203023953654,0.6134886321751245,0.4570176729956454,0.17590905204648696,-0.1336787521218449,-0.2982168335754764,-0.33466411555749753,-0.2979834557448305,-0.2069319241971291,-0.08420980385841889,0.0341563968333117,0.13049731630068587,0.2131906755317824,0.29183365239958686,0.3543816688328368,0.39849770992356304,0.4249276790485804,0.4116415912358389,0.3349549083982117,0.16986109509016192,-0.040512622683087154,-0.18369243581356576,-0.20887835593442086,-0.1371038456705788,-0.059626938947401516,-0.06273972785489561,-0.12719416264205863,-0.2313670979739604,-0.34555159053188794,-0.43708463858418845,-0.48049907851726836,-0.4765634856317528,-0.4304022431172307,-0.3027414657149609,-0.04281240850912578,0.22382119071548637,0.3330599258137367,0.32949337118885985,0.262217755752837,0.1569835511981374,0.055101369241739105,0.02766577244716192,0.12545085030967593,0.32293623738900207,0.5063551037024366,0.602321116287816,0.6279810801497955,0.6303615200670285,0.6422978414745751,0.6753026411734901,0.7200742204436749,0.7617287806440441,0.7893869524818454,0.7963869129050004,0.7839350695014365,0.7577112027450449,0.7155311910784559,0.6016479751813042,0.37773428822619287,0.15813494702460537,0.014927903656415381,-0.07452999369891497,-0.13423047048156753,-0.18499248670466642,-0.2395715307309449,-0.3052419219605937,-0.3813470841051069,-0.4591098276905214,-0.5289273291126307,-0.5927330557555788,-0.6452636422264961,-0.6171495495177022,-0.4732000395111828,-0.3311572176111513,-0.24284750213342535,-0.19188274644100242,-0.1600089715635059,-0.1377643362495416,-0.11983341571031389,-0.10224284774790857,-0.0858837576353509,-0.07615752224917771,-0.07820414642117024,-0.08763522798997755,-0.08027812772682132,-0.004568910539343932,0.15980486104261762,0.2504779777815498,0.23769425745189976,0.18275400868420663,0.12850683240534735,0.10147160598640807,0.12604263443519761,0.23303925578840223,0.42851406870231185,0.6360406993682516,0.7653546482955116,0.8279724168038687,0.855206753215258,0.8349583596888254,0.7469538928962868,0.6190050240198524,0.4956113187959001,0.3878559202172981,0.2911993737547079,0.20946717792808525,0.1513480375149003,0.11839341338405542,0.10477687332182611,0.09814365611407609,0.09189331956921545,0.08325500867838045,0.07163102205106185,0.055814210246485585,0.0412977721467026,0.031350792273777954,0.022441299123815057,0.006444470729947678,-0.020478217270557365,-0.06156673141042467,-0.12952184637675976,-0.227959401444297,-0.32917749289009096,-0.40011915146043575,-0.4212761977099739,-0.39056953673698674,-0.2977422553123681,-0.1408709850816328,0.036544542630213256,0.16126965020761302,0.19262961665480918,0.09938390419196785,-0.08080243923727803,-0.1941401213137717,-0.24736278896442448,-0.2787049474118542,-0.3013959194481265,-0.31967259100738,-0.3341636072800051,-0.3427028867053797,-0.3446841057464673,-0.33966861808832755,-0.326298348568967,-0.30369741795429867,-0.2671282048970374,-0.20537222041592487,-0.10876400647455649,0.0004112585427872104,0.07978523348924847,0.13587090444650618,0.19645414471834194,0.2928815507199831,0.4268304679689043,0.5693521730514564,0.6796185077337867,0.7446324332469391,0.7819003531345631,0.8086058479194164,0.8307217960074762,0.8492036448721566,0.8593023434745635,0.8587594886352224,0.8504156497555914,0.841233960271799,0.8295823917934695,0.8067895442053893,0.7589497495534644,0.6779713789150836,0.5641641044685455,0.43402072802385694,0.3090754617243691,0.1926399152428885,0.09339938348850872,0.02639223659741153,0.009609375933763467,0.054614292357755626,0.1517698287399797,0.27231047126307184,0.3695618097235078,0.4251964969752756,0.4627072290107474,0.5161058220201364,0.6001925765340747,0.7042844751962452,0.7971538241482076,0.8584008992959365,0.8741550657147228,0.8363920808075581,0.7557059758919015,0.6801079791438029,0.6552549927712028,0.6772746928275529,0.6962121145160627,0.6497110585308291,0.4493795093986937,0.012305033346173366,-0.4249884335835764,-0.6358373446599397,-0.717218492948559,-0.7490304311331211,-0.7600090944343537,-0.7589066376602509,-0.7482110218716534,-0.7265019748454463,-0.6979026718559467,-0.6779903144345073,-0.6780524372083646,-0.6968182757215455,-0.7261959275314858,-0.7536857361439055,-0.770966854958831,-0.7768880295418283,-0.7741167383559407,-0.7722334952878727,-0.7719713597012893,-0.7618073047447684,-0.7324426575106032,-0.6848909041065006,-0.6331444931521906,-0.5950266030791815,-0.5743298972135963,-0.5591938101152928,-0.5346035106648493,-0.4700680634936285,-0.35378777472253375,-0.21631243869718486,-0.12408572958852102,-0.10226629546811715,-0.15249579142233485,-0.266400518691582,-0.44814290617379243,-0.6327350648831886,-0.7032056335854359,-0.6290150280004491,-0.4899350291774743,-0.34826121576222824,-0.23602434062553143,-0.1621755798273713,-0.1257235887347383,-0.11492362178658073,-0.11381733240358773,-0.11520045867170566,-0.12201583416967812,-0.1381837445104614,-0.16759552403656175,-0.21025211245234782,-0.25452646929911277,-0.2794493796708088,-0.2652175583113275,-0.20997018148908764,-0.13361944812957,-0.056638757753664844,0.02338106574066574,0.10559590391123279,0.1870801980905593,0.26901993599900736,0.3734686524293559,0.5259559430843201,0.7112516594950697,0.8540337932141782,0.9296172474685518,0.9653943248624529,0.9834263993348308,0.9918392839603528,0.9914555786289554,0.9767159286750061,0.9307254738932708,0.828290662802368,0.6645553531001283,0.48504404901752995,0.33969382745640053,0.23637594338556156,0.15735094649753847,0.07440828037753072,-0.04293152257642614,-0.22905955034170378,-0.4622792308135486,-0.6294344437759919,-0.6966551600761528,-0.7231946293247713,-0.7416192454917956,-0.7562276780193645,-0.7484557320585007,-0.6191587718000852,-0.1173367712202971,0.37501182131309785,0.5629630735464588,0.6203730656151614,0.6117924184985055,0.5388655794993388,0.3899393581051913,0.17800841334263945,-0.023561864232975606,-0.14598907242044828,-0.17531619126890322,-0.1323263841182172,-0.06025625272199546,-0.015313239301046163,-0.05426093827179422,-0.1968568623192235,-0.38040657072325024,-0.5275379041257564,-0.621772400893222,-0.6749327099150295,-0.6959363259491174,-0.676053066634957,-0.5942794154673068,-0.4422370414844943,-0.28595949405481397,-0.22612166594250088,-0.28478212175388173,-0.4093641019669465,-0.5112071193475373,-0.5588210902936614,-0.5671399101154209,-0.5580422538068684,-0.5598319738304026,-0.5845182790259609,-0.629668781996519,-0.668370799235343,-0.6750424270012586,-0.6183843992286228,-0.4291803088381287,-0.030913105213046223,0.3975395707513682,0.6256578034021683,0.7204729694091493,0.7617947515603989,0.7831896974853547,0.7967509461790759,0.8132922386182818,0.8442246164940876,0.8919169938989329,0.9414355912070362,0.9544904630507498,0.9042069993251356,0.7833967363673735,0.5909583222279915,0.3510211106976742,0.12139506462603025,-0.059667582774286465,-0.17997095902900093,-0.2418296666175278,-0.2384981096089721,-0.1552032265521758,0.01166604789726571,0.2171825908744645,0.3894460744297834,0.5020219571305107,0.5680246583440134,0.6056847359505239,0.6201489008488132,0.6162455669298477,0.6075943473798093,0.6086249488810823,0.6183328968891786,0.6152644058923297,0.5920281130421238,0.548497376879403,0.48705682718562604,0.4014694321125365,0.2908364756758256,0.16643761725730757,0.05726456018493868,-0.010326955116026632,-0.04124240572949843,-0.0645610201017051,-0.10005834885287569,-0.1531891795435784,-0.21347918710360977,-0.27297245631475564,-0.3225529133762582,-0.35731287850599996,-0.3717666699827711,-0.36749088958808185,-0.36331647764242214,-0.40768249252159944,-0.5567259693356098,-0.764561577671095,-0.8837143940194847,-0.9086879648999789,-0.8939550403570812,-0.8667182287330034,-0.824796163297696,-0.7715135577853838,-0.7170791924827342,-0.6722367220576025,-0.6438403013592819,-0.6286913261480378,-0.6231936134824468,-0.6284539733831205,-0.6483668423147164,-0.684452968101978,-0.7281611108842883,-0.7606373139579808,-0.764994649823312,-0.7464457102877962,-0.7241915238370241,-0.7187789513171419,-0.7446547600972311,-0.7963630449350929,-0.8512437373612637,-0.8798810198624601,-0.8336676066292119,-0.6717803384107145,-0.43381642015720084,-0.2116614656679129,-0.04802355198128133,0.05850914864053054,0.11956425011557516,0.1435816146862356,0.15163541783626613,0.16899087866802562,0.20864609298056866,0.2858035452906177,0.4012252811125673,0.5333120227866794,0.6502502277780182,0.7363353903851556,0.7975588483132249,0.8425462166814555,0.8747759805985,0.8958446029332728,0.9085786023878407,0.91475599413261,0.9143165001054965,0.9073178047194476,0.8936964431349325,0.8717183214500415,0.835935445845087,0.7713330126398061,0.6517398462118488,0.46513871386617195,0.2317306125254147,0.013817723580751737,-0.15358352964898617,-0.27361564405821104,-0.35579531308567197,-0.4053680896455075,-0.42002723487454663,-0.3992164904465251,-0.3520231201989226,-0.30122580750106215,-0.27643645795472044,-0.3000720282522783,-0.37383672175922883,-0.46646084408810257,-0.5402448900462252,-0.5859540529706079,-0.6033164043960088,-0.5969748737077072,-0.5712838770976134,-0.5288358656039105,-0.4649533002705149,-0.37706086457590093,-0.27121073437161436,-0.13277951695062423,0.052552512379008744,0.2422344630668775,0.34180539312152064,0.31523606936337256,0.17646908704984313,-0.06582949833069651,-0.3384612144754291,-0.506624029517685,-0.5645914623748037,-0.5807794677574337,-0.5996889920855454,-0.6432077643365276,-0.7030067286726589,-0.7546654850378054,-0.7790184493035618,-0.7832195774334889,-0.7757613947227283,-0.7578982309922339,-0.7259591212660191,-0.6713799407100408,-0.5830530142677726,-0.4700122735847235,-0.3724559754356238
