0.687163637474011,0.21423612035054115,-0.027085053907111897,-0.16786189848113953,-0.29497430996107604,-0.4458743160792983,-0.6338500830140474,-0.8170019022114242,-0.8864906986451687,-0.8536975898814614,-0.841220405303484,-0.8936651521220623,-0.9675836169569635,-0.9802554859882249,-0.9048225684579022,-0.7396027814051036,-0.3656974137144737,0.3642741258439512,0.8264631238899938,0.9534306784819739,0.987677497179188,0.9950262244723624,0.9902928497333204,0.9763175840081572,0.9510406445223175,0.9040729232204897,0.7966180480163572,0.5175953242296196,-0.009212999109484457,-0.4504765865114254,-0.6583269869533666,-0.7234641307000749,-0.6633698436551124,-0.3928473941087852,0.20977863330557753,0.7035543485270693,0.8752585725539411,0.9334043219095687,0.9587437878187317,0.9585960267632271,0.8951606986836834,0.6798039234811775,0.24974912141389716,-0.23738473476584657,-0.5838882506634716,-0.7926900105703784,-0.9091804708640943,-0.9483175970718679,-0.9209647172139747,-0.8488164608854925,-0.7510182511083002,-0.6478216946868505,-0.5582687209743685,-0.4997776865696143,-0.4925959287243616,-0.5511761429863412,-0.6548911418659709,-0.7338670473614703,-0.7422955232366378,-0.7052656891125528,-0.6606886038082828,-0.6244125762687962,-0.5961978646820476,-0.56702231732117,-0.5151863717675041,-0.3833463729187329,-0.03776830808213632,0.4711904920060326,0.7484891707253216,0.8555904089870341,0.9074887112827486,0.9370724355998369,0.9522672179295602,0.9548739181614079,0.9414828508584786,0.8896229864154164,0.7440951264453223,0.490179255225787,0.2638393976413922,0.12849458014456985,0.04675140918909169,-0.021788531296014314,-0.1021894556089251,-0.1826449842540647,-0.21962945503690925,-0.2240547025912605,-0.22233130269303095,-0.22490202287480193,-0.23264410684217277,-0.24211871557015535,-0.24608990352969717,-0.23112801155428972,-0.15662450179494725,0.05446961515789617,0.43377520047248475,0.7988780874425385,0.9521011486174754,0.9739234644168835,0.9643713092389802,0.9531821419462899,0.9414865698329954,0.9176939244121862,0.8443677633643543,0.5910250460818449,0.008739269672310418,-0.4501857625149345,-0.637736060446439,-0.7159988261626844,-0.7587855690082216,-0.7960862526029827,-0.8403150506393351,-0.8897478062475443,-0.9332041148215444,-0.9615529246697003,-0.9740747246833082,-0.9758195838056422,-0.9712701023348284,-0.9595662821608044,-0.9223090818056854,-0.7468836420573678,-0.24328621946283202,-0.017699567993184104,-0.17232470721400897,-0.4268835676696614,-0.610372408249652,-0.6973158172708024,-0.7038197825477656,-0.59015878076375,-0.13234912892335082,0.5906995342448513,0.8640243920792949,0.9398792750036957,0.9663656919597201,0.9757425786823402,0.977301870769022,0.9734776768966181,0.9634619810031593,0.9433988046242818,0.9137465737857569,0.8872470882281686,0.8822447833711827,0.8987366646655455,0.9169111994281831,0.9189756340343654,0.8995393081771653,0.8496503006235824,0.7359567286800183,0.4711055659350681,-0.025511459863466014,-0.5176418476949901,-0.7835726185079668,-0.894378890166017,-0.9144521535840534,-0.877290772761506,-0.8186421139975165,-0.7666863961205747,-0.7317782741523042,-0.713864702616079,-0.7103266978732614,-0.713985110527437,-0.7158644312066395,-0.7141371380646175,-0.7167999106414226,-0.7290176813159299,-0.7482685076201412,-0.7670128371807773,-0.7793642416002747,-0.7846910344905644,-0.7793031851957363,-0.731043440780942,-0.3310957210070336,0.6864269488059773,0.8522634210364748,0.8939064650100049,0.9173957045261399,0.9308727730710008,0.9208533542555106,0.8380341085772857,0.5784152242206103,0.1335917326307396,-0.2547886818323033,-0.4772355373839104,-0.5562156623034611,-0.4942091950816769,-0.32676961572229274,-0.1607476880049826,-0.06465870246700839,-0.029299155842398242,-0.030257206282144202,-0.05824806278459141,-0.11883213510658838,-0.22462181524030286,-0.4012970513212595,-0.6384251645154169,-0.6553990543695508,-0.49162850327996527,-0.3835458335368591,-0.3303522365213329,-0.31449184311110817,-0.3259867969104963,-0.3635429569045688,-0.42333556246637405,-0.49105809456966265,-0.5531179407951752,-0.5965750625508267,-0.6163206801641972,-0.6087204732954018,-0.5584900760392905,-0.39143543496774597,-0.04713886265169635,0.1807166781300236,0.23221270290268892,0.19573216068986782,0.11069858741504683,0.014276654748414722,-0.0510110432337456,-0.05768786562782885,0.009881841500087014,0.17120686414214523,0.4359214356300967,0.7183792124148094,0.835889119777062,0.6986856581788795,0.3848961795332804,0.065080562694914,-0.15770049493344332,-0.28327530794304395,-0.3377546963213972,-0.33786260615506564,-0.28601702765923603,-0.1744074615568529,9.233737003073436e-05,0.21241316304974536,0.4261749136771813,0.6378190118029942,0.8353275943385424,0.9515394003387139,0.9855998252031831,0.9888836521052401,0.9844068910367719,0.9716936299439068,0.9377255793425003,0.8642936401884176,0.7408619033648013,0.568421370253699,0.34170256172831215,0.0602763002523103,-0.2323056873025225,-0.47368457802184305,-0.6422409392503484,-0.7409185663679638,-0.7139573021411093,0.0028842662314539236,0.6592176176431911,0.7843961442243038,0.7908289742145731,0.690797865810224,0.16028536833410081,-0.3681544493845301,-0.45306450419197647,-0.43429721202710037,-0.39083611316200856,-0.36168796670558173,-0.37814206375708076,-0.23238390884451293,-0.10746199193015961,-0.06742907173047338,-0.045153151810368754,-0.027120899896679616,-0.021821292619869263,-0.03446055794227865,-0.05390706574303865,-0.06491206815139784,-0.06504171992080277,-0.06828603323459691,-0.10739647355375041,-0.22247368310709728,-0.4099795311896031,-0.6047957453498363,-0.7462247959503432,-0.8268070510151024,-0.8768379279480656,-0.9333849199786234,-0.9712699612964821,-0.8805913814662528,-0.6816878095725439,-0.5302078148677557,-0.4830845896744916,-0.5628457740527164,-0.7722974483922104,-0.7420773765539704,-0.4768190020799244,-0.17740640639254207,0.2748349596093473,0.7268188200805101,0.900838494969051,0.9428917809481051,0.9548197339743141,0.9584128462381218,0.9562507373547614,0.9446303841198985,0.8947250108410555,0.6885590158531997,0.393892219389869,0.295933631408745,0.3410628056226254,0.46727620830956784,0.7044320271737788,0.8131859860920387,0.11669930339159759,-0.21432325098364408,-0.4314244520623767,-0.6362055393011685,-0.8548276720376955,-0.9914186654505734,-0.836647212567922,-0.5318830598044245,-0.2234434037134223,0.13100529440018768,0.5479550462910989,0.8926322610104735,0.9656532818881983,0.8015327860024507,0.6138497557500878,0.4776145563268217,0.3766918380612547,0.2598627921957064,-0.008960614080394693,-0.6454541269091782,-0.9417990856757489,-0.9714623419544408,-0.9755838603973095,-0.9687820364916613,-0.9443483045103396,-0.854411642436625,-0.22921042649093232,0.7583442402368807,0.900101752768719,0.9083603171261246,0.8155719013260885,0.4517352768684066,0.154625237280922,0.09164062367270655,0.07721711517679937,-0.015968715202417404,-0.27227023711205983,-0.6082299343101123,-0.7599725919085715,-0.7809510560215687,-0.7691676271851364,-0.7417695082622359,-0.6973923255673875,-0.6396653562592051,-0.5810090465366665,-0.5358386126114284,-0.5211290027993332,-0.5584100393303043,-0.653045794317309,-0.7733791391192352,-0.8729211080042881,-0.9340894936337659,-0.9658255981581993,-0.9768876774252329,-0.9705723046544535,-0.9321812863653658,-0.6478392088541312,0.5545189781993849,0.7756696553590166,0.774650930173356,0.7302400990364092,0.6548564618440105,0.5354410967614677,0.3479153148884837,0.059156625694474795,-0.3463011712990345,-0.7023597077816953,-0.8256015915591575,-0.8536082084670676,-0.8790585076274587,-0.9085671814627655,-0.9328489538820882,-0.949160338236459,-0.9587989901714589,-0.960785231900894,-0.9458291516458617,-0.9018340677631379,-0.8462978813314613,-0.7582417596953065,-0.5385087504104386,-0.24870659288839553,0.011959274964107494,0.20330157933967713,0.334967589038265,0.4423147859931717,0.5595216380685167,0.6989907674699287,0.8382198643837175,0.9374904445638982,0.9806139516273717,0.9802358165932223,0.9416863566407304,0.8104211991680518,0.35475758394838924,-0.2571362774820809,-0.5297047905088587,-0.6381063233461557,-0.6792093616493864,-0.6198776484181662,-0.21755264989842166,0.3948736673420144,0.6328148524202685,0.7054224987084768,0.7318639293191049,0.7453896807411972,0.7547167735470391,0.7602046012672515,0.7560145771623498,0.7313428090714154,0.6641988753192821,0.4942929272337562,0.06680141262283684,-0.5470008635279023,-0.8422590753916231,-0.9120891050694313,-0.9126441438921656,-0.8898633985531756,-0.8458624854425479,-0.734589535001576,-0.46561335653116626,-0.14421630569774072,0.0490324607321492,0.12186232324753599,0.10937132818694192,0.015835777785768255,-0.17265419300671686,-0.4163146636289736,-0.5297538727320001,-0.3341321251692632,-0.10015437772794718,0.01814300420182861,0.06919519980720111,0.09948308622787634,0.1279065268235583,0.1564138435846382,0.1812161449370607,0.19903057863412504,0.209773619625263,0.2165271836621636,0.2253058463681301,0.25443897586858105,0.3487667049118774,-0.03418857624802428,-0.07376786825354363,-0.07546381262849297,-0.06796905908671404,-0.056247090028024194,-0.041395564833129554,-0.023391987318396278,-0.004857856842175235,0.00880510806090733,0.007956687531972286,-0.015183772682872432,-0.0641183007246425,-0.13194154797034302,-0.19639003073373226,-0.2358514140765616,-0.23908067854749107,-0.1698892028369423,-0.02346313702781075,0.06989168124396325,0.0902190092373657,0.0524818532104807,-0.02436462379326306,-0.11895570023022951,-0.2068735246157559,-0.26218886828222976,-0.2557632131173789,-0.18390305144582325,-0.08400429111399081,-0.011006873414500485,-0.014671014428091234,-0.1183829192332935,-0.26708148903333506,-0.3935968145047125,-0.48702067210221817,-0.5583445022555186,-0.6193928456902583,-0.663196243579055,-0.6801382654321599,-0.6932257950183143,-0.7179150442756175,-0.7425005271933316,-0.7610832599920201,-0.7730681748067655,-0.7659916850968879,-0.6956711942288403,-0.43085841250276957,0.2288076495940576,0.7441920369618986,0.9054174897898764,0.9546644631401849,0.9719519257588606,0.9777768013668701,0.9777928079303476,0.9729093080521578,0.9614031413355694,0.9383898435628687,0.8958057051564579,0.8307571725103964,0.7583416947410682,0.6612078913322105,0.3839058559176825,-0.10335548650359991,-0.46434516244591084,-0.6344962159275527,-0.6933026056569223,-0.6855863873340109,-0.6382747787123143,-0.555598955627653,-0.4471696686423367,-0.3739386336266015,-0.40553169857697463,-0.5356749193020581,-0.690916421642172,-0.8107629201910357,-0.8836747786250714,-0.9215719780470507,-0.9396560174755653,-0.9466901376049951,-0.9463945170347136,-0.9387122633118024,-0.9190456066530671,-0.8790426029438357,-0.8067857209524301,-0.6584558638038658,-0.2675147940556423,0.2799031696546286,0.520081500142323,0.5822115268446786,0.5717148158880232,0.4860951162106329,0.1442251449763101,-0.7960478944265681,-0.9326703866291991,-0.8773325670622074,-0.8134857524284939,-0.7412863022302245,-0.6383702653856095,-0.4413245892751151,-0.14686138779125718,0.03662114293425101,-0.010538113313678729,-0.30744926866704314,-0.6737618825510611,-0.8306461413351003,-0.8754250671409259,-0.8849882946701912,-0.8725133501894972,-0.8397546396711548,-0.7985583862315815,-0.765887422369085,-0.6845918339306825,-0.5311331134046128,-0.37459668149464387,-0.15650960247034204,0.22034306762128542,0.6172660833378106,0.8173170672270984,0.8914544917953046,0.9202641869353841,0.9338471816130572,0.9391716389644369,0.9148304316252845,0.7588985846651292,0.42378589050181964,0.12640322104250395,-0.04412199371900332,-0.11745774699465589,-0.10935190097713604,-0.018921913473024573,0.12936277444465705,0.2596717706743568,0.23729939343651682,-0.23925748538604444,-0.8267764842756578,-0.9467114394430625,-0.9682054752356363,-0.9706449357003473,-0.9621403665720533,-0.9413351488679941,-0.9122249009732043,-0.8964174109098677,-0.9129185919981597,-0.9396609602879549,-0.9509278353787057,-0.9370508408575474,-0.8405712189742176,-0.5881341657776747,-0.2888653461917793,-0.046494621336034825,0.15208226647074935,0.34602773331720177,0.5839385127100198,0.8725964070391143,0.7588436707415006,0.4215845349910817,0.22311044510115124,0.0963689789826267,-0.014459187155840323,-0.14699531560722945,-0.313787224796082,-0.43900975819091725,-0.44767253889743375,-0.3910209010505291,-0.3170236547558182,-0.2374689847514919,-0.15522020105504994,-0.07061771363748025,0.012369051209312195,0.08759635501397352,0.14480417082420463,0.16361661556113413,0.12425291084677421,0.011078745350175936,-0.12529969670302216,-0.20846748343897176,-0.2651488470789447,-0.3346286840752632,-0.43907608284997235,-0.5796894348257996,-0.7115730241330184,-0.7992867792455651,-0.8451310627436852,-0.8664474227572037,-0.8743970251739775,-0.8803160478146853,-0.8896997826404099,-0.8944262603979156,-0.8659376086807257,-0.7435932009545708,-0.4907522693833218,-0.2109912411344793,0.01856205554526127,0.2186172805517799,0.4040129339679488,0.5687401878256989,0.7154085572030202,0.8533434322221376,0.9576677824322547,0.9363131577453065,0.7673942119437605,0.5784554837836918,0.4353282587531489,0.3231122531319401,0.20758084218097095,0.09079694641224717,0.03588998685789803,0.054043517590004884,0.1266523719403941,0.24775845217166828,0.40480411135411876,0.5562556953432847,0.6636066154074735,0.713392744591839,0.6976160873150462,0.6048454047439656,0.45624333359453617,0.3263941119256296,0.25795149405858664,0.24946867615016405,0.28654982862280554,0.35890622788380744,0.46020921235517914,0.5953220307964424,0.7135606045536008,0.6344643098453456,0.4697300232421723,0.3641611714427319,0.3098767349784466,0.2784547878055019,0.24860437895160556,0.19000669743820955,0.06742641424108226,-0.12966269541801917,-0.3565948741603294,-0.5173922273833689,-0.5883214489773912,-0.6151516217269194,-0.6297011911757217,-0.6406570228537077,-0.6475692340899425,-0.6549971285143746,-0.672801394392319,-0.7110577565278179,-0.769811356141377,-0.8319621742489515,-0.8903125513920108,-0.9387647566108236,-0.9396268215632425,-0.8721883627645732,-0.7773889735668413,-0.6887057281646014,-0.6098456936610028,-0.514832769594511,-0.30504785892687397,0.033776598975933776,0.37099388531071237,0.6648041906488391,0.8613718947011832,0.9479228994827339,0.9763824453821512,0.9846439646772217,0.9865526052189061,0.9857332284291762,0.9817550636348568,0.9699501926823124,0.9350150389024311,0.8252899750007207,0.48115851817535027,-0.11070408570113312,-0.45373154597196264,-0.5352157431410569,-0.5146943479960658,-0.4944763591115325,-0.5280515555390182,-0.6534894173775535,-0.8390352634138115,-0.7512531548217549,-0.5566428430000081,-0.4677188704521312,-0.4670070459850074,-0.5490270537416143,-0.7300312165290739,-0.9357166950425296,-0.9089135941288301,-0.745735030631678,-0.5898033246604889,-0.376395338003643,0.22125075520224713,0.8946125748275275,0.9578722176967202,0.9454743147103736,0.9195483123134778,0.8626655198024723,0.7192654764544629,0.38322848028526524,-0.08340261512477774,-0.3987995798571989,-0.552519253834946,-0.6331147631950611,-0.6945501045047232,-0.7740416775962302,-0.894600996869111,-0.9310335833792761,-0.7407755333855145,-0.6115276383772905,-0.6049700280736773,-0.6577433957430561,-0.7077984995641333,-0.7203798290394846,-0.689991288330142,-0.6204524935977612,-0.5162351689676241,-0.3936833145162899,-0.288278259423249,-0.23746647430623133,-0.2513848650497282,-0.3167512316950718,-0.40940850758761627,-0.5065199728212189,-0.5976211362609035,-0.681906121118739,-0.7592801159775264,-0.8153025891227077,-0.8387796101527158,-0.8388856459311551,-0.827117941350639,-0.7990379160327716,-0.7495946504729392,-0.7005215050085142,-0.6711315455104856,-0.6610314447704226,-0.6678204048094256,-0.6846704194702786,-0.7056731331923769,-0.7173885242472252,-0.6750734259684908,-0.4772241023969635,0.09411027810282147,0.7006018075308038,0.9080191210569167,0.9621509240728756,0.9771836811406709,0.9800066816843375,0.9775110138415292,0.9708021901168529,0.9564076101866319,0.917244694483027,0.7693869383335696,0.21223868070643886,-0.39026741894294337,-0.5604906727902236,-0.5693626660907,-0.5427343039154121,-0.5474077590403965,-0.6052632275699301,-0.6800988935362898,-0.7378586855940132,-0.772497409084358,-0.7795850527961239,-0.7303976664124969,-0.5119805009957334,0.09205517977613063,0.6243575635407008,0.8191884259205968,0.8913590643396248,0.9220940258617598,0.9302170091906887,0.9173965116597315,0.8843002210416653,0.8414393881284671,0.8141721413239313,0.8372477208559707,0.8924073896184607,0.912802736949627,0.8728759699984512,0.7702901382430043,0.6157200252136473,0.4322360055798443,0.24609972282037978,0.07708027574878323,-0.06517746305974788,-0.18892574223533884,-0.3596094990462597,-0.6151437804074019,-0.17927561534634545,-0.0825158648913724,-0.05814576889476861,-0.05592226393270826,-0.0638072650348374,-0.0782922716575868,-0.0950964099350884,-0.11081848591820583,-0.1230297035798702,-0.12745460541868991,-0.11808438657767982,-0.06351186737309886,0.15369235862831684,0.1357128001375972,0.09208702982023183,0.034353948827836045,-0.034745138605918054,-0.10457884063003536,-0.1628935290864389,-0.20017691723562508,-0.21083094371157976,-0.1931903293606101,-0.14928785189707935,-0.0884179247724116,-0.02066544313648935,0.05065827514782824,0.14386919058292127,0.342350846161429,0.14116647117616296,0.05921730904895304,0.06331401497647274,0.07516425655266083,0.0018588898080566622,-0.2750078974105442,-0.6098819673834566,-0.761192867168214,-0.8086454705082243,-0.8185877099096202,-0.8068331687613773,-0.7597288863663415,-0.6185212560655788,-0.2485913030750265,0.24456569289333563,0.5178027921043135,0.6337040639736208,0.6960856507639276,0.743543241273119,0.7841760583860752,0.812401892208964,0.8158187270118504,0.775983791409466,0.6478636722321057,0.29748558477270026,-0.21397704291673547,-0.38867183214596623,-0.4143301223888555,-0.422866374070198,-0.43705209592484484,-0.4398575242292391,-0.2559550320001115,-0.02743566648579837,0.09174359669245713,0.17388939598120787,0.25528726189768025,0.3545352143936435,0.47152783346612515,0.5598827864647884,0.5093498831843581,0.16133916065028464,-0.4450503853422767,-0.7825834958619485,-0.8690404423019309,-0.8907980017830297,-0.9087294976443515,-0.9139043053681525,-0.8658044546479821,-0.7675590920292163,-0.6932258831354696,-0.6780102538701234,-0.7048986025383156,-0.7471292259838418,-0.7864561897158884,-0.816740495436909,-0.838328263263753,-0.8512273904974321,-0.8545804607980942,-0.8487137841527056,-0.828957598917456,-0.7695760624183736,-0.5461763688222989,0.3871857430796981,0.9085426618537361,0.9535785530012751,0.9549796595374875,0.9515134381264663,0.9410254054417668,0.9280288593662299,0.9185166032257797,0.8899427610738632,0.8391365818928731,0.744084941779126,0.5756248451148125,0.3304482280768376,0.050422030849962086,-0.21781110746029342,-0.4438278393254632,-0.6001636507819659,-0.5969755360410541,0.016917613093594134,0.740577954449133,0.8992626414597353,0.9356648586539289,0.938247140038766,0.915603627360408,0.8189875761880587,0.26196085910979494,-0.669328163338584,-0.872030102457535,-0.9121595115832546,-0.9120559092197265,-0.8864077236585138,-0.8379484641817895,-0.7889174053785167,-0.7808364716748234,-0.8236316157305877,-0.8815214550497303,-0.9232041040766434,-0.9456085820127955,-0.9561267753824172,-0.9595126059541286,-0.9583834095619848,-0.9574301942351882,-0.9631253541562235,-0.974787978187026,-0.9699465463055874,-0.9215010039814999,-0.8514469938876011,-0.8010620341390854,-0.7831244930813047,-0.7898251538858385,-0.8077265490015056,-0.8266912416312364,-0.8396020999319918,-0.8237115565996327,-0.6765492484472451,-0.1452461741239792,0.37161901045499757,0.5788894679938148,0.6618395379607175,0.7044977718610217,0.7422980145661039,0.7929660776570977,0.8524965198689015,0.9012450452963205,0.9322161428733424,0.9479520150177649,0.9519533685274904,0.9452586732459292,0.9290737492094953,0.9059057058615131,0.8770967797364598,0.8353272037328596,0.7544202904646911,0.6033366425264691,0.4053276057747516,0.2208485202860356,0.0669528444665771,-0.0756151082883501,-0.22918605429511602,-0.403606090083093,-0.5848576711230854,-0.7346040110894978,-0.821761673448866,-0.8518142163492156,-0.8710618811506872,-0.9061000123928643,-0.9309444509343427,-0.9254790836102658,-0.8754658146199011,-0.7545354357724958,-0.5867463107996774,-0.44529359292475185,-0.38836040396044,-0.46595791901659606,-0.5701565329200803,-0.36170601925382495,-0.2389117436220915,-0.17513509895251386,-0.12679969894842383,-0.0658242600441367,0.03758241581484448,0.17845311101905506,0.28670763351727996,0.3332513612542935,0.3304587501336467,0.28815161521962473,0.21367532619390772,0.13916761467087868,0.09202233344268233,0.06652494665011381,0.05350942193921094,0.04390019631797057,0.023897645740980515,-0.018166718079244387,-0.10694548033256916,-0.2227315073429614,-0.002382067853851347,0.10775883208123817,0.1610234953759722,0.1990364363044015,0.24296570292884787,0.3283176424595072,0.6114240011798172,0.3761375079469545,0.11124297850923974,0.022997075058198865,-0.03242626445567649,-0.08829854072752943,-0.1665193117154489,-0.3145172544665513,-0.5975306262235588,-0.13468539008030245,0.1626095770328356,0.3372510784213258,0.4494679961579462,0.5136115918604949,0.5478720680814418,0.5727392478543035,0.6107132073812955,0.6770305185189636,0.7587169190898905,0.8214489899181305,0.8452629712396204,0.8207095792046988,0.7207501444409575,0.488572594268193,0.12006756178789106,-0.22081701079739366,-0.4127100812428642,-0.4916774252879245,-0.5275600097393192,-0.5820625256321619,-0.6889730011222785,-0.8185710084022676,-0.8872388952405922,-0.8573012004480249,-0.7036937291938667,-0.421008793618685,-0.16411127779274667,-0.06028371546412924,-0.054128890733328466,-0.051736875826249605,0.014186002561026163,0.17481139891168843,0.4195273864251729,0.6684212503580923,0.8325597140664158,0.9124234226486052,0.949160047521615,0.9685023491849423,0.9810820755073811,0.9901910284842934,0.9962967829953201,0.997784762207088,0.9861118569096818,0.9152030200706052,0.5045003717375142,-0.37032128796718095,-0.7184939929156194,-0.822013001339408,-0.8609647286365358,-0.8746674834080291,-0.8748275063788863,-0.8661949287092366,-0.8500574577043638,-0.8231904459467454,-0.7837096886938326,-0.734039683369733,-0.6727013615341019,-0.5924886491377206,-0.5083431781599176,-0.4485790857303543,-0.41947161077707446,-0.4074794908076241,-0.4001042324005932,-0.38774959527937497,-0.361422363766909,-0.3170093246211107,-0.2545951180801638,-0.17574912463899015,-0.04482496185529073,0.011179204152475733,-0.06196833582041211,-0.15182511650923367,-0.23902966477322227,-0.3083931588544492,-0.3524233808887048,-0.36987471527080595,-0.36387673926865594,-0.3433708885303129,-0.3197542595361606,-0.30543041564636814,-0.3121257629421347,-0.35053785720088604,-0.4222486289261934,-0.5082938667015086,-0.5882130800478549,-0.6606863230366122,-0.7220981425716623,-0.7328532869503048,-0.6553714684260972,-0.4245150704473559,-0.036295408208023086,0.22145897620039354,0.33244954041793706,0.38234169764260184,0.41158246325508113,0.4384337569752745,0.4725488309247423,0.5097246356602032,0.5390888707987185,0.5450662243333597,0.5161529719649572,0.4586432524214844,0.40986198810016355,0.43443780843505336,0.5609204163055274,0.7238302842721289,0.8339576401108193,0.8825853059297913,0.8898128655483294,0.8580909927130236,0.7579398126470551,0.5041771678171314,0.02272336223754027,-0.4512581390047156,-0.7142597813414832,-0.839553942185693,-0.8979837640316716,-0.9239045678658702,-0.933640757042467,-0.9351344889732541,-0.9288480726346446,-0.911674002704783,-0.8756411548334467,-0.8143263401836919,-0.736109227967266,-0.6556365847194423,-0.5585423186919527,-0.3759216704688617,0.005076004585967444,0.5241389984298311,0.8317876267143464,0.9320992835908454,0.950537672654102,0.9310896718141246,0.88009523855198,0.7841097840100907,0.605797436948688,0.33236758367339614,0.07628545614426596,-0.10595944027982693,-0.2837899738961891,-0.476819279085551,-0.44765995655577534,-0.29409224621924385,-0.17274513059152272,-0.09570217473977786,-0.0652595089628017,-0.07215497263783943,-0.10244707465662165,-0.14675738640758274,-0.18753181426010504,-0.18493043042612564,-0.08240015463856548,0.06745794428991349,0.1815351571036677,0.24639684958062627,0.2612603443464879,0.22956405193065907,0.15559472941826993,0.05352378793402992,-0.038952339559972717,-0.08261870078759452,-0.07028931750632718,-0.022327792036241294,0.03694568673280192,0.09854026955158875,0.1618478536730561,0.2257422643946972,0.28107777540088397,0.30526315001396914,0.27091600618994466,0.17471243704606537,0.04534849107438266,-0.09034642849945079,-0.2268142248758019,-0.3746030677786161,-0.5368799566354459,-0.6886223761868917,-0.7721658170007033,-0.7273141878330629,-0.5768036765817095,-0.48994254960008654,-0.5124895812889458,-0.5453483036113383,-0.5310153862981288,-0.468587953417118,-0.3861240348235933,-0.31340562562701646,-0.2578852185733453,-0.20421542930195583,-0.12598037507355497,-0.007263027417536703,0.1547025167133591,0.3401123696332039,0.5078986968676449,0.6298500274798291,0.7063602774846374,0.7527213245792306,0.7755933995503566,0.761081563502644,0.7165837935945188,0.6790172790171137,0.6637191819536875,0.646503891489133,0.6260833435725213,0.6369623231819851,0.6747396502836207,0.6997807726559815,0.6659643214379914,0.527180052442082,0.23050838366755647,-0.1792565583173583,-0.4903417965237072,-0.6094472987687577,-0.5950383005188149,-0.5135139501594944,-0.43782377813630063,-0.42526660216014384,-0.44427687363059176,-0.18127962522499133,0.08972426400883443,0.26129211084166515,0.41784220886696843,0.6130955708988853,0.9111336135388662,0.5684475739066358,0.1248087938597349,-0.049735424033689114,-0.1456295519379918,-0.2220901835148455,-0.3108081008586501,-0.4589068024362357,-0.7426908579834752,-0.9801591893461005,-0.940198446040355,-0.8909127874217996,-0.8723146421994047,-0.8649124400652223,-0.8635917636006307,-0.8703785420523844,-0.8886808647546669,-0.9133117825741764,-0.9343027324485463,-0.9480949255948209,-0.955584243252935,-0.9576275988515411,-0.9511856858913419,-0.9257101035005585,-0.8191860732544309,0.03939803036598625,0.8780234438457502,0.9589432641104586,0.9727454727528602,0.9734855070355871,0.966007187049123,0.9432496983100629,0.8799516281240819,0.7146165705284737,0.41490318182813196,0.13421041545288012,0.013166404739925981,0.06508210479613809,0.26430509227476223,0.5092891717471797,0.6903864495509897,0.7940068110685855,0.8447879270835976,0.8618753792998826,0.8467174205949098,0.7590077903979966,0.5135783332416305,0.17679654361651256,-0.0842375871798381,-0.2622587315232985,-0.4009555185366571,-0.4817015880138829,-0.4689436958346219,-0.4648867027067782,-0.507198179373482,-0.5900734998849604,-0.6775170703423489,-0.7303506322536449,-0.7427237432276195,-0.7247058200408767,-0.679551710732995,-0.5814180974757006,-0.3693040307617454,0.02040204787892811,0.429439557761034,0.6207726132525847,0.6288612042255339,0.5768003098700372,0.5566880496464127,0.6092250590033811,0.7538550137390417,0.867839867263641,0.6258680903848327,0.36005097608206466,0.18983791229658176,0.05065260840200004,-0.10423238800837331,-0.3005295163798366,-0.5092999441555299,-0.6454263476486858,-0.6791843566513955,-0.6411006685517919,-0.5506994985887358,-0.41057755701126336,-0.24994560405247185,-0.1928474276060814,-0.2724081126450249,-0.34370703167390804,-0.34536784653463715,-0.2886010000330932,-0.23034322647258015,-0.22468277054486846,-0.2866299598236984,-0.4036787482985235,-0.5486470857898225,-0.6954321638626647,-0.8237654493200788,-0.9125090459965528,-0.9567912554175835,-0.9656159735788821,-0.9351700097776626,-0.7973676610350854,-0.36329664039883036,0.23443189103720424,0.5535942667827202,0.6565298996169218,0.6702071928743272,0.664197761523524,0.6775498775187689,0.71875127426309,0.7674789672308823,0.8020985356638052,0.8222336388520557,0.8369423218855516,0.8486040586571784,0.8526968293610384,0.8424007899466134,0.7990085324570491,0.6923751031177159,0.5099177888248476,0.2805804285352206,0.07094033054405625,-0.04167685418753087,-0.015185183704646374,0.1584717265938107,0.4352302205958533,0.6722103601224777,0.7970650902218679,0.8437462491364562,0.847528808254083,0.8121510247883648,0.6596532817242067,0.03446805587216349,-0.496473369626508,-0.5995178735829534,-0.5756991969926049,-0.45375109807078695,-0.0436527492860755,0.6847460080693698,0.8833596181307656,0.898575392304745,0.8474985986681218,0.6584229161820038,0.1357531764115579,-0.46852727315685455,-0.7614686881871434,-0.8662629819356954,-0.8814204940896383,-0.852126811958753,-0.8045969122312451,-0.7342415939881713,-0.5644771968327659,-0.028697771763089075,0.47646518271593474,0.6161632913845444,0.6701170295431838,0.7289294574453511,0.8513554125375766,0.6834519997589856,0.13585080271473976,-0.02956602099223443,-0.08196357302089498,-0.09393331057125226,-0.04455111705345873,0.044547830273856,0.05382691325999868,0.02199150203380192,-0.04893188048670243,-0.16677497039943914,-0.3300501474807673,-0.4744155766828419,-0.3020327315058084,0.05453433951905575,0.27526549456683486,0.38904302627452025,0.4219553222640503,0.3767496519722691,0.25057738884139585,0.0661458686351884,-0.11439837735297213,-0.24000153416140957,-0.30562628526755237,-0.3295586751276144,-0.33562047301434467,-0.34740675226997714,-0.38622084793495853,-0.4462341898696318,-0.14032718020294527,-0.10119853494132051,-0.19090233920114302,-0.30155850244111265,-0.4053651601258592,-0.4713544698083949,-0.4441900266048255,-0.374166371404715,-0.333172184740025,-0.3304727585534673,-0.3562478311244384,-0.3723833103348767,-0.2835592581978002,-0.06661278467877763,0.15923116382238922,0.32459166126302347,0.42429412580464504,0.46570956678120184,0.45525148816963645,0.40370330523100656,0.32677433788866,0.23587355098642868,0.16370821877259933,0.11715825111537166,0.06942432375300406,0.0050240615599337944,-0.07557428905443388,-0.16300349234824446,-0.2488162947278624,-0.33128034769656095,-0.41141606144111137,-0.49391377653714597,-0.5940054301373718,-0.7505129863750255,-0.7275966758899203,-0.27400094076888415,-0.09518982195929498,-0.047051779859216276,-0.05039641278228269,-0.07860272615558064,-0.11446331225406733,-0.14242214272533307,-0.15439516958447938,-0.15588695935831426,-0.15900618820368953,-0.1767533181304727,-0.22121552399008468,-0.30458637353597245,-0.43169896390395507,-0.5767038811621478,-0.6870532695615308,-0.7248537093731113,-0.6741196437897906,-0.5014004036996146,-0.19866304370396756,0.11704657649600941,0.3286040910871207,0.4390805875978167,0.49059017035681185,0.5437842647814167,0.6513499556559362,0.7572426088275787,0.7939924946015298,0.7971844954997732,0.7933441196856187,0.7873266891352004,0.7778689550595357,0.7619752504305998,0.7157389980447747,0.43073181225904283,0.021073244668916042,-0.12412152614518146,-0.16737171420456848,-0.18674673094029706,-0.21710467243054143,-0.28969199071005836,-0.4020567703339183,-0.48826399374262924,-0.5261280090821411,-0.5259309203500792,-0.47841028663642476,-0.3706365106811723,-0.20557013931413834,-0.020093764324254148,0.14560719150487628,0.2795740404228419,0.3828731785573472,0.4550104575868651,0.4921664239077998,0.493876853989355,0.4620813200157128,0.40026354500233435,0.3173557178524588,0.24842405196960105,0.22841049982085548,0.25813690437953374,0.30930139905402454,0.35299518895596094,0.3725404228547451,0.3528535265738587,0.25936507165573175,0.0899239976655402,-0.03959585595305539,-0.07793489961470784,-0.00991655182231145,0.17357067249203237,0.4181599013896892,0.6089277982879254,0.6865101848772812,0.7426804752184151,0.7968355144001992,0.802254660487632,0.7387930130434002,0.6451396913972041,0.5681236734986768,0.5251740117710635,0.5024283648858876,0.46295796310921566,0.39704428673668624,0.30896304801205293,0.17855006366406767,-0.03435455120878834,-0.31972742745155475,-0.571410684044025,-0.7309509048543016,-0.8254583275533732,-0.884222292244289,-0.9195776420192971,-0.9324908597941783,-0.9203985967749427,-0.8799428385588425,-0.8082569401745219,-0.7135418832786613,-0.6209186142193256,-0.5511474303686965,-0.5243222473486258,-0.511772671345915,-0.45694677982747833,-0.23791304931424848,0.39620961230273233,0.7997115822399417,0.8365731711869232,0.8064953144355153,0.7522032032470267,0.6661989048059943,0.5162349335925179,0.2470822823212439,-0.14649166706172717,-0.4715934709912163,-0.6007222992484078,-0.5881937448042499,-0.48746483956995207,-0.35875415522978765,-0.2794307660976566,-0.26986700896974775,-0.2976228778989616,-0.3313997287986373,-0.358410740909838,-0.36501320961693867,-0.32574799308729047,-0.23445157979866155,-0.13196994798860343,-0.08939794325734195,-0.13744873346983533,-0.2588535714693992,-0.4368488130247905,-0.6488016653315029,-0.8307996703444124,-0.9274254743846382,-0.956100576097015,-0.965528090793727,-0.9768520984129334,-0.9846767096778765,-0.9783329945310344,-0.9481682866122257,-0.8494805748952506,-0.34163420446274945,0.6692698853454903,0.9014720981422164,0.948009993959264,0.960417396676515,0.9614113881888499,0.954514477859692,0.9369452691833721,0.8986672820376888,0.8108681855506842,0.603348185758314,0.17148702223809129,-0.42747057566031693,-0.802969834990447,-0.692183811690691,-0.24594762377227244,0.15451287615804213,0.3990749207349095,0.5421941482201759,0.6290290288033324,0.6771714445839221,0.6925215477657938,0.6750693259511689,0.616652111342278,0.49360340660960633,0.2661661399984779,-0.08112131043561104,-0.4424898795073568,-0.6861726641316319,-0.8037984023247032,-0.8519591479627721,-0.871446530396228,-0.8751819499246655,-0.8626237523609447,-0.8311191363489325,-0.7841283602209761,-0.7386340194982638,-0.7120480688233592,-0.7146441820566554,-0.7433941034105369,-0.7805225209834534,-0.8048394065317641,-0.8202149417888666,-0.8550456944462594,-0.9076126822880317,-0.9059928055378818,-0.8205129002634993,-0.722364996761803,-0.6541622546839791,-0.6225551235077492,-0.6227595038130226,-0.6391055699298642,-0.6380294476488497,-0.6028490428215255,-0.553972801339783,-0.5050564720866241,-0.427222538434767,-0.25951262866427144,-0.021069659422279587,0.1334300526814543,0.1496152314702298,0.05737110368984653,-0.10518849423229948,-0.269418337715666,-0.4040671668000595,-0.520806340634456,-0.6162388621328397,-0.6762016550397094,-0.6941570364692768,-0.6785209642456671,-0.6481857861376211,-0.6205586015382044,-0.5900153109949654,-0.4912979517029114,-0.13976185133892338,0.4634932802778279,0.7718382455011524,0.8689762398900627,0.9007311265727502,0.9054660823354929,0.8853005372180717,0.8227140306613127,0.688005117966841,0.47449579879650783,0.23696054052436138,0.04828208220603215,-0.04143118423537677,-0.005152070309193378,0.13488356894662032,0.32739389639949545,0.5252161084781837,0.6834678491441198,0.7798266854050795,0.8240735170367791,0.8357522778360345,0.8348270028910905,0.8452570224411687,0.8966346912318333,0.9132416692714925,0.6189729108469542,0.45646855517028784,0.4357311280475611,0.4510205740870287,0.4495106507322365,0.3872219352385314,0.22143142350654577,0.014443244020867512,-0.11214296319586119,-0.11605866721866662,-0.004888099619796143,0.18729293697217722,0.39830850049200656,0.5764320086416037,0.7009009409677819,0.7477727600727072,0.6971835322134298,0.5580065477668893,0.3202949344751216,-0.09584419186562039,-0.3577959001372105,-0.35033582685480286,-0.30839832300489994,-0.2721414948165657,-0.2076453461588151,-0.01428299818374099,0.04368307363364948,0.023507069360541623,-0.03849502891351503,-0.13157816839218983,-0.1893833864040712,-0.18581359582564347,-0.15183276750769087,-0.10316041218550841,-0.04991441310802537,-0.0048653398268824945,-0.03034860988575141,-0.05540823206927784,-0.07112897996587969,-0.08304310115102881,-0.09622371535147452,-0.1162715152172203,-0.14616979371291391,-0.16537661830996678,-0.13549600350127933,-0.07566388348173685,-0.014823493716226403,0.0502189683896721,0.1272457289322696,0.22303118080127193,0.3495088108468131,0.5371122265740861,0.25685506334260383,-0.31623801250602024,-0.5508429122060673,-0.6828472821072117,-0.7437734230568721,-0.7422081987014288,-0.6768311999425913,-0.547559674400202,-0.38518084655594037,-0.24614228735812718,-0.16536027052157615,-0.15191236438038763,-0.22260765802961727,-0.3895863531302245,-0.568266957554843,-0.6651956139259356,-0.6528385012400441,-0.5212001981901823,-0.3456821362376921,-0.18996776125781198,-0.04925491993257692,0.1128633692363173,0.37495048071756804,0.6977377808226103,0.6042796292236359,0.5112758396960561,0.4949375950593422,0.5182064003445102,0.5595547669698377,0.6011788273346987,0.6245876683764598,0.6149950882943075,0.5575797111666546,0.4341275256624853,0.23609291487046916,-0.000852967275391506,-0.22640047598438598,-0.43473895641981264,-0.575317978717657,-0.541356888508061,-0.46432417601777215,-0.42574478832076357,-0.41423776840257875,-0.41146757058146116,-0.4080133675984879,-0.4011161900280788,-0.3984711960578992,-0.4108142213670672,-0.43960613306616336,-0.47607696597152405,-0.5125511079090227,-0.5425892629801586,-0.5499336630424282,-0.5060481358407561,-0.36535442004173846,-0.12302647584046035,0.09519473915643713,0.17637987583215511,0.11935810477670394,-0.023492805282062768,-0.17885727239561156,-0.30692017808762356,-0.4032277029885187,-0.47715859998922083,-0.5372329318166671,-0.5893819836104475,-0.636193391592364,-0.6830954514856374,-0.7369009327859518,-0.7971610191796701,-0.8549571496622766,-0.8944910009856356,-0.8889328876630886,-0.7937091230603471,-0.5392071535325019,-0.036114929508219776,0.5028717945504272,0.7846911078763001,0.9062310138540357,0.9595546371889044,0.9755713182611466,0.9743219154371676,0.9634773321727221,0.8212469802949932,0.4576443645209469,0.2666825058959616,0.30792368829369243,0.5274797731927215,0.7796212982410593,0.9119736866273399,0.9563977718297623,0.9677563630614117,0.966981288624968,0.9559948658665688,0.9155381599235687,0.7572639418242479,0.1296322171937606,-0.6650473942717113,-0.8782976662364309,-0.9135912185660469,-0.9001769976924909,-0.862317548699289,-0.807567454794309,-0.7459465596495646,-0.6919208071475325,-0.6546472486417108,-0.6309486997255047,-0.6037210022173486,-0.5295164857232818,-0.2603723896371205,0.43650943071260784,0.7912589506780109,0.8504612612811812,0.8624370691310397,0.8578786277174455,0.8325702038606433,0.7826499867790738,0.699076809880326,0.5731718130250144,0.45700772949426344,0.5976666607381724,0.746870397049131,0.8234132999196068,0.8670752770408946,0.8893817609535315,0.8939090609579802,0.8682259640493892,0.7201314757176978,-0.14353127593245227,-0.8022564238263562,-0.9006932837942069,-0.9134752262451505,-0.8879495991976637,-0.7799686074465971,-0.4103337142253058,0.17309676615713712,0.48864003211073187,0.6184097143449886,0.6900237026717898,0.7458639329753055,0.7957828772011231,0.8325814122980156,0.8312704506015899,0.7097774865255989,0.22791245620353426,-0.3693309899653763,-0.6272755064874472,-0.7202206271436188,-0.7504404069075964,-0.7522274079960344,-0.7404721464112161,-0.725567817743185,-0.7127789094745773,-0.7021655985513355,-0.6894334769907703,-0.6696526616251018,-0.6409484542852438,-0.606240163880276,-0.572091562832285,-0.5463000528814372,-0.5278374707307076,-0.5137448164943634,-0.5137771514349504,-0.5081935168669616,-0.3576904407958228,-0.15855824871666752,-0.021195028935306937,0.10993819982793504,0.2799382775716918,0.47797352020925293,0.6141170368878647,0.6170779854637457,0.5067835697990198,0.30975632979022405,0.053225519715590856,-0.19584416562883536,-0.36270967262844694,-0.41366419792811826,-0.36050121623872444,-0.2437338101545836,-0.13250208574972494,-0.08162328567881555,-0.0916930744450735,-0.12066075691376185,-0.13288989810902047,-0.11358143264608862,-0.07171242211755433,-0.021205839860134426,0.032297018826650495,0.0990270085579511,0.18819162465842804,0.28562302118077,0.35355214048115724,0.35879144561874843,0.28726199437536315,0.14246778303672394,-0.029626460798743804,-0.14844891667259838,-0.18290801011539812,-0.16564192406987158,-0.15840864985968148,-0.20382119066996196,-0.3131458336706232,-0.4587644760223662,-0.5821197284361223,-0.6553855531813633,-0.6729997991960065,-0.591641971054548,-0.2650077332846358,0.2367440165719688,0.47462158683390243,0.49162105281405494,0.3532363747292565,0.06126323581549916,-0.24912850170221162,-0.42329335001648755,-0.45584806834691755,-0.3421513719967184,0.013834704954757178,0.5338756014001943,0.8203948697698912,0.9121297381904256,0.9404713554840993,0.9485822406530081,0.9475282275222675,0.9372747440016722,0.9065827533335823,0.8278446046783347,0.6673946595723971,0.4321038880997878,0.17797850058144707,-0.04844335505966729,-0.23901944429432123,-0.4333350845100244,-0.6187412319125067,-0.43243029912086617,-0.22596868102379258,-0.12222216044199338,-0.07469085345032998,-0.06819781202331773,-0.10799721509436543,-0.20435112333950164,-0.37228241084103086,-0.6106645392001295,-0.8390811352020949,-0.9423175038372781,-0.9438079363091497,-0.9116070474777934,-0.8696454729914648,-0.8136441915161321,-0.72961573590155,-0.602127025669079,-0.4083246334388536,-0.11718572124493479,0.19762091671334261,0.3763295587785431,0.4205422903056407,0.3910103445297163,0.3209516794059704,0.23435847577630847,0.12279324319486552,-0.22096487998657818,-0.7705802192287068,-0.911830590034589,-0.9477136544020134,-0.9563440454648466,-0.9526069776171828,-0.9406587815011509,-0.9220813055549338,-0.8903956610609806,-0.8062297595114113,-0.44732927078476015,0.5161826494595256,0.8736253361031202,0.9461101505048424,0.968151757288783,0.9765303027231458,0.9795314331274857,0.978981139101691,0.9739205978680353,0.9572081529502872,0.8907806412830828,0.5805173444449233,-0.01643178760002933,-0.349360340440708,-0.550038021802663,-0.7254961613357699,-0.8498779680504999,-0.9081652239655562,-0.9222762896481981,-0.9106553093407134,-0.8846507234533388,-0.8553199179851237,-0.8303533950053454,-0.8144457548715438,-0.7817835708911688,-0.6613604999833689,-0.5144621608083433,-0.43858835501553295,-0.4279527231202853,-0.45020189975343383,-0.48175528151363317,-0.5127630948459578,-0.5377326389860307,-0.5513815383072593,-0.5598173882839463,-0.585015141445029,-0.6638733347913557,-0.8144884328840968,-0.8119869928359681,-0.6104719480547119,-0.5057761466240375,-0.5260916784867689,-0.6312957430845476,-0.5385396144189581,-0.402279907428209,-0.3615602551961551,-0.3781158382131794,-0.4287437783332576,-0.4934397640329568,-0.5152168610888931,-0.4131042122995316,-0.21378555753536976,-0.007053649551962862,0.18243494715096045,0.3705571588902615,0.5703516555109,0.7211175484879981,0.746448493836262,0.6724085579657089,0.5526868152563579,0.41163613294927154,0.2604886019052535,0.10558601759027962,-0.03787765901180873,-0.13253984994873952,-0.14103168127301335,-0.05503622924555863,0.10074576741653056,0.29928320652322277,0.5099572525063539,0.6827958847986,0.779096592863928,0.7458340415546519,0.49875586367073294,0.3316487302316669,0.2758274362549776,0.28010982317380684,0.3230604721419123,0.39432993539829037,0.48404592722155926,0.5879306329838343,0.7044359410576622,0.8231728652379547,0.9241431808947771,0.9854948657884383,0.9594782268829724,0.7032193926760779,0.2606919953481265,-0.02957029313882746,-0.14936516315949813,-0.18441711826493903,-0.19320922930628565,-0.2069425052784674,-0.23478863306919492,-0.2722671670713972,-0.3108199611536534,-0.34640668518935647,-0.38160032834226804,-0.42201991686908685,-0.47354763572680236,-0.5475671243453055,-0.6544032383229313,-0.7823150481381187,-0.8852942024638752,-0.9275143579817517,-0.9236529415262533,-0.9040246981376625,-0.8812153005607976,-0.8482372682907107,-0.7701971392160629,-0.490019457886233,0.3436064037161889,0.8236474369947233,0.9322605989090805,0.9651670235908051,0.9768634075877458,0.9785989831642824,0.9722146884321169,0.953525707484693,0.9085986983250239,0.8056881483304665,0.6164688605274673,0.41459762329781386,0.3205795983016812,0.3309435884239164,0.3763328911362604,0.39003959565356977,0.37426942370411787,0.34968310012555776,0.29360148519100426,0.13743743685775067,-0.12099035943261967,-0.4322173951012389,-0.6916410517749183,-0.7709955504745228,-0.6937444532139846,-0.48166534085386525,-0.11011379980616412,0.26970262540685075,0.4521911292345811,0.479230949342908,0.44349284916379816,0.4004447291363677,0.38665659687703613,0.4164174998526563,0.4801164909911258,0.5528620050864218,0.6157360386853192,0.651718256057746,0.6447822746380806,0.5678488290907387,0.3600471512400049,-0.010371576484321507,-0.32624530313243894,-0.44851491588327996,-0.4335820578432873,-0.3564620538782442,-0.27823789532687404,-0.23223729120736974,-0.233223792720754,-0.28499888381970145,-0.3886544260674582,-0.548460743806443,-0.7655824215631015,-0.870288833828579,-0.6570013220628913,-0.44417699568115765,-0.3177965933380755,-0.24037234050818992,-0.18776573446750516,-0.1509682416645985,-0.12591434708631993,-0.1124990701390134,-0.11104797442888566,-0.12348966337151558,-0.15372861640768865,-0.20988017686991411,-0.30477904437153663,-0.45201656481953756,-0.6485919907595424,-0.8257570632666769,-0.8775240004062762,-0.8391066499642125,-0.8017819924696006,-0.7926735872494557,-0.8045640712870424,-0.8217277212129565,-0.8287115801648949,-0.8179516206503719,-0.7985118490582965,-0.7932992442701504,-0.8174380504750256,-0.8582415742609061,-0.896408513180315,-0.9284486991714588,-0.9493473229470684,-0.9231514587796388,-0.7094075343673115,0.12377595837210245,0.7628239845161321,0.9104053018588569,0.9504309907953385,0.9646575202953481,0.9702711902375851,0.9722818950232593,0.9725037518306493,0.9722780636553522,0.9733676942407787,0.977909599358947,0.9860908728454727,0.9913765575224539,0.9811612493231361,0.9490886269019233,0.8922626280027793,0.7852800351597713,0.5385366909244934,-0.053108412302975284,-0.6924629115891219,-0.8581091577723672,-0.8464243748887893,-0.8004621706196565,-0.7442108721641753,-0.6817446041179365,-0.6206203574696888,-0.5664071940094378,-0.5186980834027239,-0.4672784561489178,-0.40469662629191067,-0.33124010092152356,-0.21858034901294437,0.10439711839462539,0.29571891188324034,0.3703556394900317,0.4347789169398659,0.5031306729627691,0.5828683686292581,0.6827895640589493,0.7108220997286414,0.332673750729529,0.056139800086318546,-0.05812000219652283,-0.14656737512323983,-0.30678161932328646,-0.5698380471492779,-0.6887831763075888,-0.6598347205576927,-0.6028036709842678,-0.4868643469020247,-0.33142324399954015,-0.30607636749404865,-0.38226035397223584,-0.4828707778964443,-0.5778891047428343,-0.6739875477089721,-0.7797728076321271,-0.8727092748423441,-0.9077617388139743,-0.8811700503319754,-0.8205348221337806,-0.7467014713349227,-0.6783958850669402,-0.6330275067991893,-0.6220413799100233,-0.6486490388325118,-0.6963503541470408,-0.6529798605231498,-0.5218605023732716,-0.45528895798510405,-0.4541652041442074,-0.4868611190278102,-0.5305623763275782,-0.5709769162691711,-0.5996035960305932,-0.618058445455512,-0.6308951180760974,-0.6341514218738138,-0.6215727370389337,-0.5951721538816078,-0.566967751128753,-0.5459494650417035,-0.5399182105563418,-0.5625630367840153,-0.6160274279282135,-0.6784579406944278,-0.7313720810194575,-0.7755566798985803,-0.8024693105442167,-0.7906115510694457,-0.7089400095255866,-0.5263539309640962,-0.27341557713130843,-0.05181078140923927,0.08119632127570676,0.14594724042706958,0.17774104231698856,0.2067828344232423,0.24502372864018984,0.2979643657151299,0.3762723670814742,0.49511541365903555,0.6759774779771912,0.8276300163114076,0.6914984027893692,0.5012589030321627,0.3907236496664592,0.34190206161573317,0.3427384256653137,0.3878057092006106,0.4628448442489201,0.5439055468941234,0.6138964729525904,0.6692893852000796,0.712513144857026,0.7383353915067542,0.7326251771895105,0.6665082677928221,0.37114034500126647,-0.5456287783120181,-0.6843322822419986,-0.7061198406916142,-0.7482767871319767,-0.8153166369359194,-0.8830772344373176,-0.9187700878965563,-0.9139377173860171,-0.8846971373242467,-0.8511561829698882,-0.8193264976474544,-0.7674807287362753,-0.5901923437938847,0.06795378369223981,0.72279925766573,0.9084035815572525,0.9710425059541896,0.9922663023123464,0.9796002289698921,0.9219467807815045,0.7985942326394214,0.5820229061630681,0.2731912457640275,-0.014878266068006999,-0.16137382587997093,-0.2107188872358192,-0.24759270431516536,-0.3221153932330501,-0.4430622765199923,-0.5780357385955562,-0.6847126724933517,-0.7458715493876841,-0.7667081944078846,-0.7493752999289005,-0.6658682148846089,-0.4840302339126449,-0.2714585171456029,-0.11420937355388328,-0.003528460755597089,0.08938332017657359,0.17823567512173713,0.2607977498550925,0.3268084519745952,0.3629520857546925,0.3541392457461134,0.2550544329432914,-0.1032429154709158,-0.4380684006648186,-0.39566262380594125,-0.3007366082397465,-0.2092653060458348,-0.12858990448275806,-0.05109379242603575,0.033481652272538645,0.1284339083616383,0.219371545906356,0.2872933535996061,0.3187820940016872,0.3162394959920649,0.2945839048145501,0.26106861691670796,0.20283813826457564,0.1365970839880638,0.10590577881377516,0.12160323223192993,0.19272720658160927,0.3305666939440185,0.4630985637097402,0.41482342907041364,0.27149413993545846,0.13637038649201735,0.005939304546337096,-0.14861577968329245,-0.3391636532177127,-0.5422008698240182,-0.7084281289273788,-0.8126131391266035,-0.8655039376393036,-0.8875203561629649,-0.8893513035494016,-0.8774125298079245,-0.8524917618931029,-0.8075593466908358,-0.7188354539200276,-0.5480147349536257,-0.35126523602633947,-0.2708831282642009,-0.3341546929352654,-0.4699550305322121,-0.6033102884123936,-0.6936942332798132,-0.7277264888402452,-0.6856929627248546,-0.46438229046034457,0.21759813296869393,0.7523052463082293,0.8720089161938965,0.8652132713356032,0.73666917300337,0.3464061554469686,-0.09649866556998604,-0.29158161506793634,-0.3462181968340657,-0.35052834939825306,-0.33986761717792013,-0.3276318844600469,-0.32465223249028335,-0.34436033624993095,-0.3954395044354116,-0.46273502097332503,-0.5139855219116363,-0.5412672751074569,-0.5407202225441816,-0.5133476418026189,-0.4727036802163278,-0.428880788036884,-0.3687359497838293,-0.20504224809329263,0.09238569687307853,0.2739299528991862,0.3522320750853584,0.4008107699203754,0.46446746721442084,0.5730607800909313,0.7101679802198619,0.8204225416469381,0.883406492875565,0.9124473868206634,0.9203370724091049,0.9070785503295176,0.8461225922764424,0.5938838843211702,-0.20938976652312474,-0.7415010957258733,-0.8718449579170603,-0.9022198722866889,-0.899632176940219,-0.8840926728214058,-0.8697312260244602,-0.8599914356170563,-0.846281944777619,-0.8089203685812394,-0.6986776433692674,-0.4006809716937591,0.01863253433246504,0.23573956894945597,0.2525371054666133,0.16777502028351463,0.02309168118875026,-0.21712357683042144,-0.2724905163560701,-0.20771751477015932,-0.1625315331911536,-0.1448373837598341,-0.16930626580382782,-0.2862825743928734,-0.6920960341194226,-0.7293166059901162,-0.46731040867868245,-0.3644683658894517,-0.3003565544034989,-0.21171922777405652,-0.011075885944882517,0.4228038873334858,0.8303995026863692,0.9362520063206912,0.9433076258119857,0.9306634212842184,0.8938569522472641,0.7047829907770794,0.11545995326796181,-0.30292990666600134,-0.46472115079613624,-0.5348539875988678,-0.5637512380816756,-0.540606222628673,-0.4605739457667311,-0.3612614055928,-0.27164065188247766,-0.20277081304049677,-0.1621735797184491,-0.1694416555360289,-0.23945396591315066,-0.35987430720259767,-0.4825834605616975,-0.571310658899369,-0.6221985563176478,-0.6461716049944325,-0.6361021852421035,-0.4861284426867561,-0.11625082817557034,0.1622844204913433,0.3066699097878638,0.39549665963297986,0.4570974336972041,0.4696392362060066,0.37447352484573404,0.2489411322858393,0.18853634553971474,0.169693658227045,0.15619781169830588,0.138385223233057,0.13073141631483332,0.1501597669048353,0.19511403918644826,0.24943030264202523,0.29208830554998666,0.3048979057706084,0.2809832318978787,0.22851092334489298,0.18480096439308755,0.20701110496718186,0.3180593550389563,0.4734608567009168,0.6030163101958518,0.6435706424269841,0.5610294616060165,0.3336304118778336,-0.02772803052207892,-0.3918637226455148,-0.6241052681345349,-0.7336826560420896,-0.7512760680574206,-0.6159709661148017,0.16765837714411502,0.8563577497811024,0.9578513783257795,0.9794606412063012,0.9862684692594813,0.9883268749915288,0.9880040767568635,0.9858956367203957,0.9817855415729114,0.9706725152807839,0.9360780143712037,0.8381387850054663,0.5874534382889551,0.09373066764141977,-0.39997360194230447,-0.6715747456862375,-0.7985560211626698,-0.8549949001245648,-0.8751700885818988,-0.8771535978314945,-0.8700450781404019,-0.8543606658101527,-0.8303505221064591,-0.8042226441904546,-0.7860288927687037,-0.7807599313597132,-0.7853451464053367,-0.7928113985968814,-0.791885683881927,-0.7807197778837962,-0.76876985132194,-0.7684705782405803,-0.7881493313805128,-0.8265710382045756,-0.8678687991250819,-0.8878181037151743,-0.8807324899200849,-0.8550566793654362,-0.8113087904162672,-0.7335582035172024,-0.5925280045157163,-0.33435795151158393,0.07279606130823554,0.488787374718584,0.7402694102895656,0.8612372595269917,0.9204125418621292,0.9391562158426724,0.9250943525398451,0.904555615177067,0.8672156704091881,0.7462204309317454,0.6011774365635009,0.519260184080528,0.5106198042308513,0.5819128798364641,0.7616778494524742,0.7257495128751602,0.3804833497891432,0.23099246580366925,0.19664695857863784,0.2311606088655835,0.31083743035450445,0.3962711296258698,0.4368995651394216,0.4124206298932372,0.3368679305443524,0.2371732667996902,0.13094148015647974,0.02980339494795275,-0.05669119905618805,-0.1234352296839856,-0.17964692156333037,-0.23959900241681426,-0.3043262066008038,-0.363552770676299,-0.4069850505822016,-0.4348282957902661,-0.45206039760606176,-0.46486518512266095,-0.47515868817634715,-0.48842996368474967,-0.5057659333262792,-0.5243895846291774,-0.528492744113007,-0.4669288588988452,-0.2950362226985014,-0.10379106642841013,0.007904359368230926,0.04204762462113802,0.02772438238806006,-0.014306079833838381,-0.06947730797396572,-0.10737883967456496,-0.0879781254518464,0.01659321094454459,0.19764052867542828,0.43228590391043203,0.6796106452071569,0.6804271629035751,0.4809285615554405,0.3708070000663965,0.3725406150721795,0.4603231864345441,0.6089103057286893,0.7732767734566622,0.8914224375445469,0.8579601815374521,0.5431750024587729,0.06813165123880074,-0.2536050635024924,-0.3830335137850776,-0.3897133177247954,-0.3314918170389825,-0.2537699718211404,-0.17881703078136968,-0.1216019642216103,-0.07486947154516259,0.006839134372624444,0.1611347124668359,0.3199633616793246,0.4253274925933034,0.4984385792650529,0.5708103386241561,0.6657159490419611,0.7505842451341769,0.7277365325247942,0.6396031381391949,0.5272610647620105,0.3255251241216172,-0.05980817012407243,-0.4872074182347387,-0.7304519071415687,-0.8299841673322257,-0.8634926553892399,-0.8675695964335458,-0.8594599785807681,-0.8511509618311746,-0.8443610320572043,-0.828587569529845,-0.780301426123707,-0.697221316443345,-0.6143531623499746,-0.5556923045442943,-0.5135482828732546,-0.47196469756247733,-0.41766547155623407,-0.31363312104294344,-0.08395335867680509,0.25142111168928594,0.4865050799199942,0.5950291576458855,0.640543623039056,0.656498805410076,0.6648107079671659,0.6904086116735217,0.7604839060996181,0.8521216887652319,0.8358799695108255,0.7478365246571096,0.686652234830486,0.6449441698703353,0.5987462874825343,0.5327069872487714,0.4341758249482412,0.2943339515291824,0.11886905415040189,-0.05771967987518492,-0.17929039675302363,-0.19081452142001346,-0.02625709502964023,0.34612810369713,0.7264373616345737,0.9263686723097905,0.9725563435441031,0.8348188999374909,0.3994674435048219,-0.10569308134037173,-0.400304152828072,-0.5456265450886592,-0.6246991822833727,-0.6791862766116367,-0.7306455050694202,-0.7877765481712763,-0.8460531652118367,-0.8848064786255688,-0.886044377046416,-0.8576196291163418,-0.8179672848758845,-0.7781989945320547,-0.7449116718701722,-0.7200724530114672,-0.6862836588362065,-0.6193346952081388,-0.5428817811458702,-0.49936180599240926,-0.4983191271987514,-0.5273580885134732,-0.5708648458877291,-0.6222249938742613,-0.6863657425642073,-0.767339766732838,-0.8537599398167738,-0.926038390029416,-0.9694537260172411,-0.9870129101352497,-0.9907608049516164,-0.9883800982626717,-0.9826168267338931,-0.9725335492839672,-0.9460191568663946,-0.6558328909077268,0.8692028258464904,0.8593477284193942,0.7987755991020274,0.7371841698226733,0.6897455218351088,0.6709540899702598,0.7029430221461531,0.8089471512375993,0.874672912625336,0.6622920169188921,0.46687851318675583,0.3722120351321809,0.3413003713259882,0.36472417432263216,0.4744266512403876,0.7627913731087271,0.860910876605269,0.6020443803339149,0.5009684429969804,0.5019526196533324,0.5677501557129253,0.6629293172519872,0.7438764115182173,0.7888551794010557,0.7954765923872602,0.7573291250803397,0.650057114728644,0.42647220811286896,0.07602020154569118,-0.2815368913540834,-0.5309150554993832,-0.6749798235631762,-0.7524320716833649,-0.7966054705659548,-0.8286904217428775,-0.8570055330523106,-0.881918073553111,-0.9049913623518839,-0.9263203589128548,-0.9445708128858022,-0.9589109527520363,-0.9693060972091094,-0.9750850673870514,-0.9750541818801365,-0.9706428703876905,-0.9664953764038735,-0.9642362253950475,-0.960076515946671,-0.9504848100660862,-0.937560599540313,-0.9307221074080398,-0.9351886346747827,-0.9129870009432915,-0.8059631224923044,-0.6930125376400036,-0.6841451999498139,-0.7762740524012922,-0.8286885932500132,-0.7629483009298399,-0.6974108822601732,-0.6779606930978849,-0.5979244441525234,-0.35550235596900304,-0.11724900126498844,0.06735066881792676,0.2331855316500875,0.39533231571183286,0.5458911965516445,0.672091482898392,0.7574446430667496,0.7647026643686808,0.6322875474642241,0.244377481138774,-0.31703871516168297,-0.5683792749067534,-0.6425942663776526,-0.6905217786889296,-0.7593102658807862,-0.8627502320990784,-0.7917919818047189,-0.2613893940819805,0.08745285801288033,0.3658605841021604,0.7014564047679139,0.9572593449846255,0.9836564907281207,0.9547648439672364,0.9509956870427834,0.9662917413911748,0.9833490287211277,0.9909040583083997,0.9905263423436381,0.9874287464253301,0.840399046143034,0.4847722353540782,0.4328308555730147,0.5932006207887857,0.8150729494191962,0.9084841581155314,0.7788252798080163,0.4354532105555725,-0.1156307019682889,-0.561397983033573,-0.755871705025561,-0.8212328032960027,-0.832981887726545,-0.8210158709767247,-0.8063105756663224,-0.7801564438687373,-0.6336862149276701,-0.5044641838910641,-0.4929900276994968,-0.5477687469688327,-0.6259697553570233,-0.6950580238611317,-0.7331704666051191,-0.7355489159613623,-0.7148223044689407,-0.6956578608397828,-0.6962751451304389,-0.7119335712431368,-0.7337296397737345,-0.7547699343800383,-0.7658551683585509,-0.7632131743089358,-0.7528752314808898,-0.7428104572985215,-0.7418537517253573,-0.7455889635101439,-0.7475382425312452,-0.7665798503877771,-0.8035806022022421,-0.8410352831313574,-0.8561438437900187,-0.810801636517947,-0.6472213270760174,-0.3866595267242579,-0.15545969961484044,0.00587181809479247,0.14031330134119335,0.2919342809175073,0.47068660512994714,0.6485870286672546,0.7859228835586861,0.8683672215549495,0.9126138159254482,0.9394468395156569,0.9589278596456979,0.9715839016555913,0.9707778102578123,0.9442408785050151,0.8782215153032663,0.7658873702773209,0.6048647196856967,0.3758212284665838,0.041069585733772375,-0.3693482624577774,-0.6838493091800988,-0.8300193220238149,-0.8607080682964661,-0.7662969487790985,-0.40404165529839814,0.05263605603730302,0.2675496425316832,0.3630623885513469,0.4541878808739967,0.5298469909440734,0.5029770355013845,0.15526030688368708,-0.5476839158984739,-0.7993125228835595,-0.8714907342208998,-0.9116642864797716,-0.9481652042713399,-0.9727373208490365,-0.8971309918893903,-0.6592247684827941,-0.42145709042667634,-0.22872480093900815,0.05817202436724706,0.6719751596170425,0.9308700159262729,0.9145462610202524,0.9194948879707889,0.9448943592062261,0.970317125967994,0.958487930457609,0.8398520113386624,0.5861103511322051,0.30076675991102064,0.04751261827862437,-0.18535360343614937,-0.38113230897590145,-0.5049791567895514,-0.5278352130557836,-0.3032419412139541,0.13603363002599994,0.2628915918470279,0.17961197924918668,0.02893017045588978,-0.10210395502857052,-0.17022477150011237,-0.15403014440362986,-0.039493517732739375,0.1767150863057824,0.41414134696858096,0.5619355231477523,0.5750518534728761,0.4294160409982312,0.09333707802336297,-0.31904426856043183,-0.6023095659403215,-0.7425180314384171,-0.8011675770004496,-0.8233005949305763,-0.8049551045823309,-0.4454551518381975,-0.029642977547225408,0.05924201960152068,0.05789209004795088,0.030884777186362764,-0.014156766356562009,-0.07973521567943866,-0.16054366194380354,-0.2348613220771211,-0.2875424226834599,-0.337193588921954,-0.4444641779664848,-0.7026923353999559,-0.8795659987318746,-0.758661340982173,-0.654884429703282,-0.5780921635543036,-0.5124311987048629,-0.4596718665325939,-0.42470199794941127,-0.41012290614019337,-0.4140473093255098,-0.4199318999848185,-0.407574436446478,-0.3783926144855026,-0.33790428027635794,-0.28874140505560053,-0.24054211566308004,-0.17203675715181144,0.09440858566183528,0.13611611562759215,0.16244892017179804,0.199932955372639,0.25840227388934883,0.3548910052842847,0.4926708611243948,0.5045559081487394,0.35789332405737706,0.2629181309050718,0.21132912661491454,0.17051266830980416,0.1274202466177224,0.0911001714089419,0.08947541893514896,0.12156098150561104,0.1710126377242128,0.22618946730746903,0.28554944813115907,0.3584369908943547,0.45138016624228633,0.5588525915347379,0.6450780321291713,0.6730539081651827,0.647995564185403,0.6046780696580393,0.5572701226938755,0.5076625491033552,0.4729255180641485,0.46491637119247803,0.4844827675220924,0.5274295227608666,0.5960843602921093,0.6908757311718668,0.7909564216806485,0.8440577751228513,0.7961144426716336,0.6858560477104069,0.578454407932772,0.47603717135227713,0.3511608809930458,0.20089788925034896,0.03985628258798701,-0.13822458259812537,-0.37001874107509763,-0.6268893577186712,-0.6854199409232227,-0.5719354661596187,-0.42406563762174,-0.2741264130450129,-0.1504132513421275,-0.07755190270125238,-0.049220427991969566,-0.05628766886423181,-0.08248596035288167,-0.11324686849413045,-0.13281144201497716,-0.10947860917240078,0.03165075929887852,0.37989273780513627,0.7279166159927594,0.8359268528285492,0.8317870440679039,0.7862566352397655,0.7155461911506025,0.6352319799521964,0.5625140174389818,0.5017495200923359,0.4397317088541705,0.3655012056965095,0.2908976899459262,0.2375503617558894,0.2181804688785674,0.2404708502977522,0.31159373947729724,0.4301685365404381,0.568865232889887,0.6716013692858511,0.6052634428952574,-0.2376509434276599,-0.701259802680378,-0.7723114013389124,-0.7596218873827898,-0.7047192166346454,-0.6196047437829114,-0.5168743572923719,-0.4123357178445853,-0.3233609682539849,-0.26498253410320755,-0.24476120479001753,-0.26546471544577877,-0.3294785730935406,-0.4443820376580656,-0.6129937122334379,-0.804404651280981,-0.9403879396336725,-0.9420953864011288,-0.8175404264936851,-0.6640144316663572,-0.5413801251646421,-0.44870288204982384,-0.36106723435910093,-0.27204558633262027,-0.20425981914250632,-0.1735132620338049,-0.18086562496462633,-0.21627112135243423,-0.24020929591222104,-0.21192978417777858,-0.1685064108858229,-0.13449691032451286,-0.09079801876845425,0.03961682152460091,0.37667387859837453,0.6968798316675702,0.8165811078581449,0.8651292559966415,0.8899030223877505,0.8990003975453978,0.8906712561227212,0.8532316578586031,0.7611677934064376,0.592696151175879,0.39162399928639097,0.24077440352584364,0.1520095623441087,0.07700912675602045,-0.015879307894954467,-0.09673144264258715,-0.10558024021979957,-0.028911951008007756,0.10144676264006494,0.24027300997095613,0.33580729161855916,0.32716388610381875,0.13247942928644502,-0.22966801095415615,-0.4878842768683744,-0.587307528783233,-0.6064187525378999,-0.5891911162374586,-0.550122242685549,-0.49047127271687824,-0.39453054416201344,-0.19499424647233754,0.2376590275568642,0.6945075136112883,0.8733409426483882,0.9282681792149733,0.9489609303598395,0.9550096350309248,0.9235267959715787,0.7143653676939314,0.1507382894270695,-0.31624922520346793,-0.5429851307186319,-0.6524944843504773,-0.6951352229479286,-0.6910852588595292,-0.6784561292823151,-0.6923487646604116,-0.7318064240257277,-0.7687100336971476,-0.7742414369190976,-0.7422119636249539,-0.6839032221988638,-0.6106995476305689,-0.5295930934351284,-0.44853752327263297,-0.38678292668288683,-0.3735287785449861,-0.4350436862057451,-0.574431324429839,-0.739300058965232,-0.8461656701267324,-0.8789150853472991,-0.8679544681313753,-0.8298816694009433,-0.7579633585752701,-0.6275362614125867,-0.4070813672497604,-0.08009768030845595,0.28706262521875975,0.5761376094257129,0.7431984809769985,0.8235536118499703,0.8588393127137208,0.8754059841954805,0.8883578656551318,0.8997133748926586,0.891768826753055,0.7986978643700399,0.31381499219153985,-0.5951129721330457,-0.895507979174074,-0.9672120730253909,-0.9864834353449518,-0.988808288309977,-0.9862861603724095,-0.9828289078405419,-0.9761510212542747,-0.9620870279664103,-0.9294492855217062,-0.7744120026354778,0.44623707977276633,0.9206361711190912,0.9695505940442664,0.9820906710194613,0.9870141491233865,0.9889496266085694,0.9889137147091867,0.9871558757357601,0.9818639362242199,0.9551921879699142,0.7824180445053788,0.18513232826410128,-0.23269702189807653,-0.32172639277840637,-0.2634197418758847,-0.1636952612841836,-0.10515043990945278,-0.13468488614268484,-0.26775790860306936,-0.49201139861875,-0.7378264214884858,-0.9035959645396194,-0.9719970638548867,-0.9801234178116855,-0.94665791365878,-0.8737917416779939,-0.7892294772078217,-0.7295728397689142,-0.6921650038848945,-0.6588815192357248,-0.6184100432889206,-0.5840450242780163,-0.5752699936884064,-0.5934858084952352,-0.6272691818991565,-0.6703030479039629,-0.7165439057177894,-0.759399845522429,-0.7905189925680699,-0.8142291851223523,-0.8251593693196498,-0.7191913009216847,-0.3349428502821068,-0.007902804328811788,0.16350763529472861,0.2573382928773575,0.31249176601375933,0.33489097583675365,0.27745132517480736,0.07175688859741909,-0.18836221221075186,-0.3650971860680728,-0.44446457172138737,-0.43776383660286494,-0.28874408108919447,0.09300109998758173,0.3381799367421664,0.47142387467871927,0.5688956550522929,0.613915598128287,0.6008219588135023,0.5642399034673972,0.5373261755286152,0.5287750925732662,0.5378993610607815,0.5676125124468838,0.6124796874330922,0.5082483105908093,0.23253403022364846,0.06877391843897464,-0.016809978038207322,-0.0580249519223283,0.005603690708501681,0.5750496535354307,0.814035122302491,0.840719505709053,0.8837592887718694,0.9175158310727595,0.9349057629092962,0.9342188141508734,0.9092698989207444,0.8351129575431271,0.5817983240099075,-0.01884878698533087,-0.3884067019820079,-0.5013005180220694,-0.5655325277007877,-0.6503080910418841,-0.7500072655989578,-0.8352239751182003,-0.8924301723704609,-0.9233361616220969,-0.9312987626269261,-0.9166284746976608,-0.8680776709966553,-0.7403604260888937,-0.46621180527525524,-0.10825159137803908,0.1585987107558929,0.2811955344786926,0.2835092788280324,0.20379100751293955,0.08898890971881916,-0.022795882768504767,-0.11279360732060803,-0.17628473576711287,-0.21738298948879156,-0.259945238548203,-0.36093704352392275,-0.4356286212313479,-0.5214757703530526,-0.6431113558877166,-0.7451207944267795,-0.7967018932513767,-0.7641188722967353,-0.6832091598558461,-0.6308155369884433,-0.60395344175802,-0.5711072610570346,-0.49855511897970034,-0.3433582119240394,-0.08827692118208592,0.20143178714865312,0.44079890592825455,0.6274504657243577,0.7720755928322858,0.8675950632517064,0.9160652804792523,0.9341470272050187,0.9361770194930935,0.9285619058714435,0.9107094769746251,0.8633144756724108,0.6855788885595222,0.13808501933940026,-0.41493481920346253,-0.6926409131981226,-0.8281349688350492,-0.8763971869656442,-0.8974334312181317,-0.9292949689175101,-0.962792463891065,-0.984661415559965,-0.9941060028315076,-0.9966402231261869,-0.9963417366620699,-0.9951985091967746,-0.9936799692761142,-0.9912552280475191,-0.985208442543969,-0.9621634405055329,-0.8346679320584752,0.3671375299361743,0.9539119410613908,0.9925793857690489,0.9974115584834864,0.998000417596757,0.9979848796819148,0.9980400274465147,0.9982589309233704,0.9984566799262007,0.9974205278229523,0.9737563068874434,-0.6645031444748866,-0.9402688480408153,-0.9457918681562251,-0.9174837931454142,-0.8568771142107879,-0.7777870778057633,-0.696927990226454,-0.5063807563564916,-0.17259877584235056,0.09021970660364412,0.2550556196179032,0.28228504746771466,0.06824090165659398,-0.19369651125335957,-0.374586774362101,-0.5054763043469732,-0.5914079793636743,-0.6231498618262283,-0.6149157829817398,-0.5950099579093368,-0.5761401080667622,-0.5609241920935195,-0.5580885275819149,-0.5854954793586017,-0.6520060057011319,-0.7412195781801197,-0.8210617640540006,-0.873959041814315,-0.880674245468683,-0.7940243155936169,-0.580224983270722,-0.3305713574040857,-0.1609791820995242,-0.08747995070884786,-0.0775293671927598,-0.09990603200998772,-0.13353084406407112,-0.15681254338267378,-0.14502871239527743,-0.06864732359575922,0.09668399522857905,0.3408421472559626,0.5795761365181596,0.7348177999877062,0.8065253555816799,0.8254717001465359,0.8218775073074535,0.8167384978698543,0.8215359410799119,0.8398117760682865,0.8664893368461434,0.8892055373993388,0.8889014462622312,0.8072360557967618,0.5806479023258829,0.28584096190959135,-0.0019498169562411967,-0.2524958928042868,-0.44051350992308624,-0.5633996230965231,-0.6392098271081013,-0.6842550904103655,-0.7190693170634133,-0.7593406449202733,-0.8095986650243344,-0.8219244830202805,-0.7409309444485171,-0.6392542455472155,-0.5749290424042889,-0.5504127389227197,-0.5488987927300386,-0.5562402588906945,-0.558788170784878,-0.5501263895976494,-0.5331762963121879,-0.5095660843934523,-0.47832143567526075,-0.4254613477952531,-0.32146815434773646,-0.1512273508226177,0.041119481051843085,0.1913928100844951,0.2881331022096567,0.34568757139965167,0.3805782744056318,0.4072888052555746,0.42414525035058764,0.33333631229501354,-0.16260815261938333,-0.5864952281758752,-0.7967890189287331,-0.9176262103248065,-0.9724093491308581,-0.9860037106961878,-0.9679816866134658,-0.8650970220582939,-0.6307991142154348,-0.301406528571408,0.07459892767935694,0.49220365684730916,0.8637136638630789,0.9913816009832803,0.9222092708749287,0.8079536844718731,0.7008838042406511,0.6026573255701163,0.4956033706937811,0.3378699658950884,0.14693158145060253,0.04498497753798423,0.014072986226354736,0.01724821152003966,0.03778490018187369,0.058208127132171154,0.04679949965451596,-0.07336560640797787,-0.3438614541705374,-0.284939060365407,-0.10763477409286586,0.11160440849758527,0.3434188848496538,0.5231770352693809,0.6210373304700328,0.6482035000415408,0.6151129400473553,0.5131364949414126,0.31604792363389084,0.026218116539867237,-0.2625059226355027,-0.45830318240133444,-0.5636227997757607,-0.6076805475881624,-0.6026635032486467,-0.5457004618968914,-0.4407264155328693,-0.3204497504895703,-0.2333522203528873,-0.22011981254533924,-0.2076918114252282,-0.09416132103478117,-0.019450341140165268,0.05031484969447766,0.11783304566468462,0.17616358529381881,0.2237432609186008,0.25475155452452936,0.22528743630608514,0.12101402672627372,0.008316577731679228,-0.11347281062551907,-0.26706624465558976,-0.4426906392643341,-0.5983304922154863,-0.7014675416363207,-0.7533780039776027,-0.7624382770033495,-0.7344318697420416,-0.6727579755047656,-0.5873658700575825,-0.5049550927774059,-0.4608435839341986,-0.4663109131284743,-0.49911452990690164,-0.537754159598026,-0.5872529769946015,-0.673692759336311,-0.7170339273671194,-0.5553540411497897,-0.38721688231779333,-0.2812356360446239,-0.1983931171803791,-0.10671194964673858,0.06649146018656568,0.36751035254953246,0.18430209082922813,0.09786042328254746,0.030368659569877884,-0.04036757008711973,-0.14593566248721637,-0.4035595844918722,-0.2444481415246462,-0.061682160198574,0.047205499211723644,0.17104032142512893,0.32863051923143194,0.445538813524152,0.512868579272236,0.5639976049387323,0.6071878840347728,0.6472717476941272,0.6952198726467871,0.7425176019977455,0.5577578576366333,0.18228381130397311,0.047178259049564054,0.03222581130843659,0.053177068988653826,0.07528754037737324,0.08605019970442988,0.08160084825521725,0.06733578168387737,0.053814477352633255,0.05195635601805509,0.07371001199908764,0.12845829459325278,0.21960180025261586,0.3326932379582974,0.43286826171431125,0.48771453603607956,0.4960349511984012,0.46806895110301544,0.4263029486984017,0.41256882740328826,0.48224840032441135,0.5911498842003139,0.6868246915036936,0.7762630926432503,0.8602878425749854,0.9142641480967121,0.901963298716318,0.748593983948749,0.2967691012125358,-0.2942444731173974,-0.6540779513479187,-0.8387447132709818,-0.9214101427494225,-0.9431685298226725,-0.9457458400563704,-0.944977558407027,-0.9408354501189088,-0.929636099729518,-0.9053270395836674,-0.8512091979341789,-0.7180993418181687,-0.3711619685702852,0.2378545439547932,0.6638439708857711,0.8217936254614624,0.8717883879144788,0.8839599032943544,0.8829579367971413,0.8799832435478493,0.8779578103490931,0.8754146481531316,0.8704034936548556,0.8622166265204997,0.8688315230422299,0.9101562476874341,0.9552915810215753,0.9544239095514988,0.9298834993250605,0.9073088218685023,0.7843923420886308,0.48936682979366725,0.2607845530383471,0.18892721267984464,0.3608272386715603,0.7985020610994144,0.7705599686790985,0.7437265661230931,0.7742515034659421,0.8552180638293461,0.9542628991040858,0.6747545264456783,0.11662850948505887,-0.21224486897175038,-0.4654484252405416,-0.7363816931834707,-0.8660074946741805,-0.7884270459695878,-0.7371659012404151,-0.7504072629216685,-0.7992026733515519,-0.8576031667323529,-0.9109202164680841,-0.9531556495661113,-0.9812878597525,-0.9927037781313787,-0.9903449468598714,-0.9806105073309865,-0.969413148540885,-0.960505415517541,-0.9555135920656501,-0.9470109879283904,-0.9063118374898007,-0.8219675536130818,-0.7997130449771169,-0.848255363396998,-0.8759350139013193,-0.8731116561331764,-0.8570213979334746,-0.8399820356057013,-0.8235407793490321,-0.7893636152597999,-0.6691786109195641,-0.26968174604377554,0.404696291858544,0.7720547412993942,0.901790358261378,0.9526377043325474,0.969676379720986,0.9606656725549304,0.9151800005082884,0.760035617138244,-0.05098362127007472,-0.8994385533698749,-0.982563415588172,-0.972168817252454,-0.9239971125854063,-0.7687705407917109,-0.22492131297549323,0.5018402184380759,0.7871646387946032,0.8865423465198023,0.9268808751830809,0.9365277312520821,0.9285084187313527,0.9142227279621095,0.9001006978153901,0.882114588956597,0.8449745652021816,0.757874748867211,0.5639224112009823,0.19989560754524427,-0.19531045895905214,-0.3322609050025654,-0.18711486101004682,0.13393830184166775,0.47270785458337455,0.7074309249778123,0.8269002051900757,0.8597304689661878,0.8137858344995318,0.6382571512332154,0.16386287837313254,-0.4834128808142685,-0.7882485559078428,-0.8864123956386132,-0.9249145480141528,-0.9453897268456598,-0.954690358994044,-0.9492195539243277,-0.9332436322245568,-0.9247857109026211,-0.9331469685608698,-0.95146092522029,-0.971067938751524,-0.9856197525414435,-0.9917586066080912,-0.988600169471222,-0.9751919782317295,-0.9508786439966963,-0.9212764381847718,-0.8985803890301536,-0.893968521471718,-0.9067364083647824,-0.8962589693753438,-0.652556103699196,0.1323154288270619,0.7448682888849343,0.9253822006769706,0.9652740362784967,0.9759145144097325,0.9806575777010841,0.983362609728529,0.9833094277073696,0.9767161300363586,0.9505509315320224,0.8356118849870395,0.17846848363525608,-0.6529399647600777,-0.8189396306220471,-0.8327121219548501,-0.8080034737045823,-0.7801677679793502,-0.7610639580887366,-0.7492018390290736,-0.7417656111042128,-0.7339352764186705,-0.7105436292285802,-0.6282270473757883,-0.290936671098373,0.31910932503346073,0.537374864599212,0.5098344919994012,0.38489518154430163,0.23455110940973273,0.11466199529877547,0.03438350279553485,-0.013243541852982387,-0.02471158925618907,0.007507814217354273,0.08987207270026684,0.18603576072178038,0.25635436338695455,0.2901870121914927,0.2646677318498272,0.08540395408810886,-0.140615274333804,-0.190004526149073,-0.16267019773543137,-0.09210348322587923,0.0014143836944235562,0.07847378753280547,0.11281782010964692,0.1217497203946256,0.12882939899920115,0.15169051097054057,0.21941381033944168,0.47933027991918725,0.2186948299719556,0.08847798896985408,0.051514073593964434,0.0332688864621008,0.012386127335495423,-0.03051990221846637,-0.12956882294813413,-0.22057695157893892,0.03954252678393941,0.3876160134534544,0.6723353795420173,0.7881125064248451,0.7849819913287636,0.7143840785939868,0.5950035882387769,0.44133783960116824,0.2826398884525816,0.1479494743151093,0.05018977879007325,-0.018458737518111674,-0.07387444568260547,-0.13362797994128303,-0.18555426376006826,-0.19045737558406609,-0.148888271073821,-0.07626627427169547,0.005958408398453768,0.06473148314350559,0.06556279372278695,-0.009295412500915546,-0.16865513781990357,-0.39582108077695444,-0.6287369934536852,-0.787784977947172,-0.8453378730405853,-0.8406363844090184,-0.8144403610147828,-0.7816325348019957,-0.7355380378948537,-0.6547613867256546,-0.513738305727664,-0.3454524730532175,-0.2070612387202843,-0.08982806823649539,0.0864713090011587,0.29625381721792016,0.3801317692573567,0.4150930265951987,0.4363573164334743,0.4431167536056456,0.43301111807978837,0.40423544002476075,0.3511590335635878,0.26611829087499567,0.1416114385320728,-0.010602688311257817,-0.14480899292310626,-0.22371541726517755,-0.2517522076607844,-0.25410998036941035,-0.2555534954301034,-0.264062214956019,-0.2742663111928208,-0.27777421056690166,-0.26653943691295856,-0.23827386345303184,-0.20611364595898476,-0.19742653777421532,-0.24329748807970306,-0.3540098250090516,-0.5057679210452614,-0.6558897398161945,-0.7676623798277663,-0.8078287451102144,-0.7545469965223165,-0.6061356889065819,-0.3516934151660918,0.026007543783828295,0.44630421108668533,0.7325282186998395,0.8614701387625439,0.9073672067797508,0.9187398117929338,0.9134189560524243,0.8919818496929843,0.842745454958536,0.7373272387797225,0.5113389124632899,0.10521290060027626,-0.3091414852161829,-0.5353298772751437,-0.6280959414447614,-0.6527932934077642,-0.6416494316791662,-0.6115939244783342,-0.5840105142920371,-0.5783148232023643,-0.5895443726096964,-0.587947143091218,-0.5227323016526445,-0.3691081561451587,-0.16820002025723882,0.017793671077833154,0.1566466752758922,0.25404293284214857,0.36870405863272454,0.5757242539631687,0.8267583590176057,0.9512375819009886,0.9776114817653982,0.9712289442760629,0.9413941211410114,0.843059537945576,0.527603654884025,0.02370732939822414,-0.2779294366498575,-0.38967985693422746,-0.4226647849954684,-0.43036539179457284,-0.44199308421211153,-0.4663087200739226,-0.49555469349424713,-0.515786142285491,-0.5205833327452305,-0.5106427185258628,-0.48515217761656904,-0.4541017263866765,-0.4265635912987585,-0.405288839319139,-0.37843604248101187,-0.33850322639755287,-0.27921598366687805,-0.18253055477369756,-0.016039306045444207,0.2388585864053478,0.45894161683287027,0.5558029626110531,0.6035484014661572,0.5537950486997396,-0.11352343549114567,-0.34226605198236804,-0.5011491785729474,-0.7562056434784642,-0.8922274166265647,-0.6644940806410289,-0.5246108281946453,-0.4821884073144821,-0.4958426172864904,-0.5318016283515078,-0.5397331587749066,-0.46229167915370556,-0.29455788147036194,-0.040765791972649124,0.2769870954127049,0.5114421449611174,0.6168128351054118,0.6909953851431467,0.7802204756529915,0.8752228372929005
