-0.27910314385870916,-0.38607795064849426,-0.4737735920505795,-0.5367973163506795,-0.5710544314433201,-0.5766431971438406,-0.5511035874477012,-0.49904131468441243,-0.43755582965604867,-0.383932030500067,-0.34333219175765883,-0.3047817249966441,-0.2527373052025067,-0.1708419658321244,-0.0337285757031573,0.1562329501217745,0.3698216579287348,0.5390945571539529,0.638607218921429,0.6956595901186803,0.7290750720104906,0.7466205839442378,0.7445466547715334,0.7186048890892138,0.6526685502879425,0.5399982839125913,0.3884611072912833,0.2210771708143009,0.06776057747231891,-0.047208057849835755,-0.10750106120447256,-0.10590196579631805,-0.025133612329148142,0.1973000208602481,0.5500664705123951,0.7688314461153174,0.7065105951311625,0.5091012236718808,0.17327252929762568,-0.24961875917967516,-0.5565818403239343,-0.6973063444046448,-0.7347633116658308,-0.7100185259476396,-0.6246050687078122,-0.4794968133189716,-0.28915716750229775,-0.08200541385737022,0.12451830681305898,0.31255770856077864,0.4666446289829873,0.5828570481266577,0.6791735633897347,0.7716022476776935,0.8607395861188881,0.9277903065832842,0.9611481082475936,0.9669464809709695,0.9564806417202476,0.9330454719554341,0.887660109326281,0.8099994959861095,0.7330422090098471,0.7234125709603242,0.7743114870256467,0.8229050221361269,0.8416410192964515,0.8380154564561674,0.8192164983647334,0.7835095457338249,0.7062448287393392,0.5091363523603561,0.0569266931331111,-0.42351800755002567,-0.6112572949085932,-0.6532474461600343,-0.6414886812623449,-0.617884482746057,-0.6043058646202276,-0.6029908752439296,-0.6038820587040052,-0.5992983754436935,-0.5893887023665066,-0.5732581943234364,-0.5508199711896241,-0.5176477107538159,-0.47070775352592736,-0.4252535101687736,-0.4185153969396006,-0.47177089857572885,-0.5511249074747259,-0.6171518471266189,-0.6550341118340943,-0.6568858753696181,-0.5877270438088507,-0.44725402080288246,-0.3333412125782402,-0.2939792153770871,-0.29796461070056884,-0.313317833230428,-0.3214219585617918,-0.32278005802424464,-0.32570756071286505,-0.33175751895024286,-0.3353065932490789,-0.31806021806324947,-0.15072878062169034,0.2688788839074518,0.31315915882706696,0.2877165045934167,0.24427352932807547,0.19246166151180014,0.13995775569330593,0.09455581749101483,0.05866737041476545,0.02980005874428408,0.004387435273696809,-0.015986214769925556,-0.01847224394003202,0.013064748146455987,0.08989733330437683,0.204767780317889,0.3015545362948597,0.3322928827255344,0.3212257323399255,0.2984137435032498,0.27519959027890667,0.255989296109371,0.24025535477933466,0.22727298481659092,0.21652475720958414,0.20095296171741472,0.17765487573755026,0.1458054196879926,0.11174504983836175,0.08951623399051781,0.08680951073809821,0.1042775044823668,0.13034968298436792,0.14364257976374867,0.11291037361789288,0.009515343711172145,-0.18841404328771938,-0.4656434619367088,-0.7295992199782596,-0.9010969743364046,-0.931540287653059,-0.730461347108959,-0.3620802302890307,-0.04172488626427747,0.15841747435879047,0.27274807379798155,0.3336260609038309,0.35681597219756406,0.3463339587532681,0.3012715551272212,0.21584434817179443,0.08674635025271435,-0.061679313975505516,-0.1845216098106821,-0.2612913360907397,-0.306481431680527,-0.353172933562478,-0.42030985379955904,-0.4970104810569708,-0.5558353241817069,-0.5776663911443191,-0.5581456845798225,-0.5027119818249509,-0.4354081649563063,-0.39531879557568467,-0.4147534360348296,-0.4744383993288824,-0.5215872314510215,-0.5259997125855782,-0.5029574857954651,-0.4768740102699888,-0.4632528388913101,-0.46524548850120745,-0.47267407654487625,-0.4799562194441721,-0.48563624411255435,-0.47908316778761395,-0.44474024620382285,-0.3583739248527058,-0.18104628480843774,0.1320381075346837,0.5011830146697447,0.7422669121379916,0.8552192485967436,0.9065757333360789,0.9302235933275713,0.9385615226502015,0.9347352956980243,0.9169951929238742,0.8751449876235121,0.7651643081649253,0.37887430503107916,-0.47948379255494095,-0.848785512677993,-0.9302527410849998,-0.9442308681524105,-0.9315380861842069,-0.90666637471362,-0.8865056438567944,-0.8778839647359722,-0.8758824683262895,-0.8631243995567045,-0.8044205248405852,-0.6365674985144182,-0.29483537992261877,0.16954363418116108,0.5711078062169935,0.7975186063620965,0.8914429786355687,0.9234057119934705,0.922639330042041,0.8661088337034686,0.7140184339380526,0.5224731899147718,0.39637079513034024,0.3451215859518378,0.3280364811549156,0.31202520465394,0.26728067850304044,0.15416267599712455,-0.10861983260199956,-0.5641981042312354,-0.8087484614833521,-0.7583137036141814,-0.645166668528222,-0.529294106086041,-0.4178237930130149,-0.3115454863648631,-0.20968984542809016,-0.11143713322126696,-0.021887449194824684,0.05111345616989672,0.1014969980072595,0.12034371042426781,0.08780220173871767,-0.06616797560730132,-0.4416148627050838,-0.4239208637102652,-0.32025188666084775,-0.23747695071977762,-0.16499162976015158,-0.10397069965176328,-0.05901638032871123,-0.030038713327192875,-0.013631104869301193,-0.006014795073423352,-0.003482493993614118,-0.0034227704402274186,-0.004675585284958144,-0.0038642630178590313,0.01098882561039584,0.06612296023073531,0.1986189013444957,0.3986441172201144,0.4880589037122838,0.38393659157766247,0.22064743824574473,0.07888348340936673,-0.012618250110012814,-0.05696620995289519,-0.06497361818366523,-0.04998089762647277,-0.02743117963159468,-0.007924341592430374,0.008092542261792412,0.02589683380320334,0.04826626841676599,0.07037549386000032,0.08612319477982973,0.09229322265360332,0.09002644913586993,0.0814925015076351,0.07264285646764944,0.07056473576396362,0.0812923071153484,0.10511899496108937,0.13915421063859193,0.17728618097086826,0.21379840104871978,0.23908632817698716,0.2466190845605043,0.2392126179727309,0.22051246774624428,0.19737246475895967,0.18336463931764452,0.18349367305308942,0.18677271845882223,0.17485435352155604,0.13505341620029676,0.061354563838602216,-0.04411288199854574,-0.1777480320690936,-0.32746061311699864,-0.47764659306777185,-0.6066616013354337,-0.7059905403981752,-0.772728364867342,-0.8105246690495194,-0.828898648569878,-0.8263935074925163,-0.7919045903903474,-0.7120198618427676,-0.5805659998101774,-0.40886668900733053,-0.22370302089265728,-0.0739522664253781,0.008810666600036767,0.03554848693733659,0.03559297031918025,0.03241732751086605,0.03159826667229878,0.04537636347338992,0.09194559012557814,0.18578951693659668,0.3089442394843342,0.4236308280526706,0.5059208265482439,0.5596589290630093,0.5866299856276912,0.5864968207262462,0.5457087077345611,0.47018806395323115,0.36587628557252727,0.23996749961396427,0.10287057615555245,-0.004425494544896341,-0.05318044445454776,-0.04705000405636278,-0.006439285173927771,0.04435774050571601,0.10025153902844873,0.17624185310342516,0.27557701698206977,0.3789049548531103,0.46243392790071736,0.518343004697338,0.5476656527392555,0.5502620386666851,0.5251215909626095,0.48341740093345287,0.45455810661520896,0.45078036670389576,0.4596775869668439,0.4675695237376857,0.4659169864676861,0.44628533032900636,0.40162088306567156,0.33413378114925746,0.2576886653118736,0.18169506877694197,0.11083000172984314,0.04728907424001633,-0.0121045152182623,-0.06669932631687302,-0.11161254741481567,-0.1413592742011164,-0.1629243650881671,-0.19626207387362207,-0.2581828166114498,-0.34793230617302434,-0.4457758313538806,-0.5243377053299528,-0.5701448137923742,-0.5894408029980328,-0.5961042123462325,-0.5999294536144328,-0.5985739958108912,-0.575359314596039,-0.5153882205226252,-0.4438699884063382,-0.39716692019325434,-0.36493853617691746,-0.3319107466490743,-0.29431817400454846,-0.2504982534771344,-0.18493914059123054,-0.05586401761572592,0.1742676565057601,0.3632732701889864,0.44408736553175665,0.5024080535386324,0.5714734907540747,0.6392115508707994,0.6902760655123178,0.6999697970174213,0.6211243166216491,0.3086642715190484,-0.19616774173612364,-0.507894770071205,-0.6547751059039985,-0.7395242971544121,-0.7928098561760959,-0.8293270060899095,-0.8543124686396092,-0.8671765579187992,-0.8648715438151504,-0.8497119377595781,-0.8287834194195788,-0.7962759082230524,-0.7351151381065036,-0.6299501000554129,-0.5007967992111736,-0.3783010826056363,-0.2775659119668663,-0.1891711487481576,-0.08914631757963656,0.023268266663386928,0.12804264416347919,0.2041774268410099,0.2440150611428916,0.25671330012879634,0.2442281331948232,0.19931478714261522,0.11517786281706183,0.014649465453827682,-0.04853456311294559,-0.008051314042689772,0.18211848679934,0.4060800568106863,0.5284720731834384,0.5779878333805509,0.594818982287833,0.6050773808384357,0.617382193595739,0.6329174628365085,0.6474516105859277,0.6511282031046767,0.6008562279320325,0.3840592866417198,0.05758996547884957,-0.0955114637702721,-0.06953627043514157,0.029824898266271074,0.1122644040205685,0.1606702410542974,0.18557402426101138,0.20353322355290399,0.22626079038127297,0.2720398228413009,0.36168958251831623,0.3818942078164336,0.2306134651677125,0.12522786717806791,0.08132361425921457,0.07769223853835919,0.10442285467835477,0.15669623922508022,0.2283918996301265,0.3186025634215677,0.4282776099618115,0.5555666084422083,0.6830982909643357,0.7852048095978149,0.8445484332933069,0.8600684903164612,0.8447544632281111,0.8116962247582062,0.7586071930141544,0.6623882568451215,0.4276514877921825,-0.1297320318478843,-0.6452050693840747,-0.8300108420321066,-0.8989831512753224,-0.9351185353445626,-0.956987154261175,-0.9683644415048511,-0.9704694638665285,-0.9655911435091604,-0.9564005361592703,-0.9463934626466857,-0.9356543982114981,-0.9236068415890795,-0.910790835217362,-0.9010603593307192,-0.8961909292080554,-0.8961172384402168,-0.897617082165962,-0.8951444557772561,-0.887866453618282,-0.8761578072503898,-0.8605026855129663,-0.8404892840046715,-0.8121726256934511,-0.768067765601413,-0.690570329289044,-0.5506044115367352,-0.30449791106361523,-0.026831546525949167,0.128469590447686,0.19127194523005014,0.22098539460642433,0.2526550181961089,0.30651902237000633,0.3963258313345038,0.5187191197285007,0.6462611783577665,0.7431032843900193,0.7988454454741841,0.8286161192467698,0.8470559892731491,0.8627149960533955,0.8767635424858137,0.8860580639341995,0.8867152302003319,0.8743741255762058,0.8410575365369416,0.7712711017163678,0.6432477905782182,0.45027834575060427,0.24309078186818828,0.09903307161385778,0.04715644994221791,0.06676124321409191,0.115053989929108,0.14263435572187289,0.12065398706299986,0.05014939238912766,-0.049828362245148444,-0.16352919021396622,-0.28019668564002687,-0.3895028248253402,-0.487707304014184,-0.5690011701881715,-0.6259169046569354,-0.6495320616818413,-0.6265438961180363,-0.5365934903603577,-0.334771514621633,-0.014297047803696433,0.22134086035127193,0.12555034135508705,-0.22881373868003155,-0.41155084204721837,-0.4752119881162177,-0.49412285967570485,-0.49981015129634093,-0.503073827781703,-0.5086276670711727,-0.5174888791377211,-0.5316743359054609,-0.5473474050448003,-0.5559618781450253,-0.553504113630222,-0.5498292389274619,-0.5571587605409438,-0.5767598110577533,-0.5975204223141154,-0.6067847086731423,-0.600894820399709,-0.5764085253546674,-0.5317857309306105,-0.45664465773101165,-0.3398816465191362,-0.17916822136815364,-0.0021461336746348134,0.14696176104466707,0.26359545434076026,0.3545945265035461,0.42758153047473546,0.49625232796158386,0.5650684613139166,0.6262338595964134,0.6778509930872418,0.7223060867968499,0.7595272194960784,0.7877802816682276,0.7977892886638175,0.7739510034642767,0.7033783064287865,0.6006285574372217,0.48303931123118443,0.3701903985012557,0.27598591147423623,0.20790081605333283,0.15897613463898705,0.1193533247082672,0.07674750428106618,0.01982828661748977,-0.05123244531769561,-0.12460833026909789,-0.20447921756598278,-0.29392788751635435,-0.3798871971085432,-0.4432646750800012,-0.4730555704629896,-0.4722649425290893,-0.44658417350412544,-0.3933990300482572,-0.2786611264613583,-0.00490882603092687,0.4182959822697528,0.5683837407844646,0.585707059853806,0.5897241239279921,0.6012639773541616,0.6168238098250305,0.6294798170906684,0.6322595763084722,0.6094742093252146,0.5206564057410046,0.34360588548327,0.1600747394739576,0.027304897334451142,-0.07712336645750874,-0.17827054578139973,-0.2793652071454955,-0.3634598914548084,-0.41491365125032414,-0.4214417969522146,-0.39198995208367854,-0.34842605715567154,-0.30512367228486975,-0.256068854603867,-0.19614795257022524,-0.12045822031657893,-0.02831624495897256,0.07325388327288207,0.17017326164854435,0.24707933491169443,0.2939580212827757,0.33087950196013105,0.3868592252061865,0.47775292855478385,0.6077456895242325,0.7573835886076825,0.7811817211833952,0.5727543682679324,0.3691003223481944,0.26093452823856506,0.2208809073033871,0.22408404892137082,0.24395760097295524,0.2607485308650756,0.2615445324334751,0.24951569364652415,0.23134285012511496,0.21163755106004725,0.19793480097310603,0.19390909143049473,0.19827119606301505,0.20485222636578967,0.2059704492681098,0.19502522216518017,0.1679413251680327,0.12579029184588902,0.06973246270536164,0.0012800677971200932,-0.0689870654671228,-0.12471548525479054,-0.1625417325677875,-0.1885139057367545,-0.20940398406560876,-0.22891618513574888,-0.25001301384707303,-0.186264903492856,0.012432574432657661,0.10404778853849388,0.15244306336094196,0.17743118434943655,0.17551519398757273,0.1495710680100225,0.1072961385334913,0.06159677528886348,0.02339656614572948,-0.004279072057403556,-0.023658153803961628,-0.03834920609607696,-0.04718754750098646,-0.054146565576485096,-0.06749791296930331,-0.09336434436616656,-0.13148074234731572,-0.17308358991088169,-0.20685749546168214,-0.2291284791092784,-0.24336437615764533,-0.26277219759603626,-0.29768758549348484,-0.344839682205436,-0.3921888572601589,-0.4255060717964421,-0.4294651289086019,-0.39932613366070124,-0.33511075398763135,-0.25210563277996023,-0.16799912653600824,-0.0966160347827522,-0.029543500746812296,0.0469423205875791,0.11623308960268897,0.16393950298626556,0.19333866490735466,0.22062475948803445,0.25761769103135296,0.2937266949223209,0.32354316251302645,0.3485046070618849,0.3784016344085022,0.42855879103507544,0.49273228851039474,0.5375953466063055,0.5314463027759279,0.4597653189590173,0.32576599983133026,0.14802932792544402,-0.04201950335656437,-0.23088091793104937,-0.4239696734789697,-0.42890869638467244,-0.3396252999758835,-0.31366036461796915,-0.31517567837885674,-0.31377280788170553,-0.28948699522617927,-0.2236658737427784,-0.11815764751639142,0.0014547750210863347,0.07278368436137891,0.04183669027569416,-0.08278271715832163,-0.23975366560656036,-0.36220892545903205,-0.42713336091892024,-0.4459813331460736,-0.44007032737020707,-0.4301249393968333,-0.4301032851210419,-0.44836865448611984,-0.49408598861019565,-0.5773755000792183,-0.6974391746040013,-0.7894590607004458,-0.7239872533264305,-0.5422435179173308,-0.372565840781623,-0.24071871929731903,-0.13597224997499693,-0.0493514609304327,0.028901834948508887,0.10879244131780663,0.19729825571182952,0.2911175811212484,0.3785926275686221,0.44993908996173904,0.501143009843515,0.536213747290659,0.5667185300528806,0.6034308408492538,0.6474976050998257,0.7024366488615872,0.7683076074831178,0.8338955220986322,0.873509145837063,0.8773341530520964,0.8514898655870009,0.7949059613367924,0.7046106089325836,0.5879045636760133,0.467909023296329,0.3683608092108586,0.3019531572351077,0.27066203237815234,0.27014893435319365,0.2943860812279658,0.33854348239567855,0.3934269656000348,0.4365195635874463,0.4118792347830896,0.24702351868334277,0.0062388637359806045,-0.19001303956260465,-0.3315873252340635,-0.43667686336184575,-0.5039887734604358,-0.5269764894862179,-0.5106160516009025,-0.47120853390035317,-0.4142387173196872,-0.35361029570255986,-0.3179896563419749,-0.3467057018052897,-0.4693821238257514,-0.6867235796738167,-0.8645064859127028,-0.886302129901117,-0.8364162714259462,-0.7775301071303156,-0.7183235078105622,-0.6514682804182952,-0.5701166642908689,-0.47371770236404603,-0.35828920893313854,-0.22173122598905376,-0.06060016758871768,0.1244919496709738,0.31678278153889217,0.48562624278488226,0.6147185248680026,0.7023503529268058,0.7569171415819738,0.7872258367496968,0.7955304534373241,0.778827147951648,0.7300697348611032,0.6383627474588659,0.49576561435100897,0.3029688849724822,0.07973584743617712,-0.14530487439835296,-0.3419405388660067,-0.479732874132799,-0.5503249249368114,-0.5641617651282889,-0.534040295509018,-0.47402859525258384,-0.3962864294514556,-0.331800281509672,-0.2869148032306429,-0.2649932294646485,-0.24792623730555838,-0.22279201901769335,-0.20422825671401326,-0.21725244067848543,-0.2553616582943436,-0.3002319818674476,-0.3364885995055288,-0.35485919970759583,-0.34502548434032015,-0.30072560036857254,-0.2171623919310638,-0.09986481941093371,0.0697022377089489,0.3089874312835624,0.5666138535431713,0.73848805362353,0.8282522667666505,0.86632773894843,0.8667106626959057,0.8150800390229791,0.6862362304574282,0.48408008266107994,0.23996270002345896,-0.01478192091958142,-0.25731140781996836,-0.4311316246757745,-0.5099298451615104,-0.509813841839923,-0.4510041401366609,-0.3523179051582254,-0.2655627157505324,-0.2527307979942455,-0.3270100028556179,-0.4626605644179601,-0.616018371146652,-0.7142694884909566,-0.7506253334565568,-0.7524118881912922,-0.7312378243082277,-0.6833811276416167,-0.6070891680659992,-0.521631442048986,-0.45682515425127995,-0.42772757066620787,-0.433059389532184,-0.46020097072632793,-0.48449110646954774,-0.47471485307572536,-0.3768681516182641,-0.0721152287584938,0.3441980488333596,0.5521103259847905,0.6315135439385459,0.6521729376666915,0.6125182395033101,0.46151299770494764,0.1487752927868731,-0.18266741197795838,-0.38920039907952053,-0.36500684210319817,0.0125660944294802,0.3100405127958367,0.48084614407906634,0.5743549540010506,0.6112078467324861,0.5976011646469581,0.5347816381004832,0.4093202614334628,0.20553836703389677,-0.07508258679127562,-0.36464026829237733,-0.5859749145674429,-0.7008386443670764,-0.7265100560648646,-0.7016003212447891,-0.653354212418528,-0.5955769382544257,-0.5348606898845691,-0.4720130461590891,-0.3979181835694387,-0.27061180917647487,-0.03583219046481209,0.3002349747318293,0.6152489846996454,0.7956105384698202,0.8727573751894566,0.9021679080533057,0.9091043047567154,0.9005501675851305,0.8745742293636601,0.8230467591307808,0.7386797018747753,0.6280598055719249,0.5180060589270186,0.43643524720551424,0.3898854405899284,0.3665358701555333,0.34399402419383296,0.28966566419596157,0.18764129940802865,0.0942817109859347,0.042615818961083116,0.020508517107907537,0.015004238472690178,0.01476547070221269,0.0134085105211472,0.0030373541730370217,-0.018920790242605835,-0.04755568565024484,-0.07576561203707313,-0.10673395517011973,-0.13905582900655808,-0.1658419968412679,-0.1886128765430837,-0.21166070780763357,-0.2347472282939301,-0.26861778390388,-0.3256146056230338,-0.39089538599533363,-0.4418201360234966,-0.473036624403998,-0.49063308283582646,-0.5003675769077638,-0.5105554787259529,-0.5247469317514638,-0.544088065236384,-0.5647376399622608,-0.5825531996965666,-0.5999279610371938,-0.6179319406101904,-0.6362964116853469,-0.6545980273153558,-0.6736390472814306,-0.6991879172127713,-0.7301842685257691,-0.7521804933086352,-0.7461664544554744,-0.7087708520115208,-0.6533786283265904,-0.5937061472957753,-0.5384943559589312,-0.4880985438120039,-0.44334125846976397,-0.40493725159535027,-0.36557378500642373,-0.31378190019262414,-0.23645470643920585,-0.1212827877272111,0.060369757663785814,0.33007858357026376,0.6199474870452037,0.7906222343550222,0.8572125873860863,0.8733639595257424,0.8624948598174006,0.8353032602265186,0.7984607438168182,0.7543788399727265,0.7054743809107386,0.6557327676376193,0.6070618372999956,0.5616931547116929,0.5236066545773312,0.49454679670049095,0.47469487013611045,0.46575475333055005,0.46803737953763747,0.478810193112789,0.49144516968060203,0.4989154031499461,0.4940769474746144,0.47414141491475015,0.44073758505563276,0.39447623936732196,0.3396817309237764,0.30112743845489487,0.28753819851187695,0.26115618624530346,0.14710009134408594,-0.09226320432864912,-0.32283307698426367,-0.4417229390383183,-0.4752149274845181,-0.4679069820560972,-0.4428014916675551,-0.4106210509747266,-0.3670569064606634,-0.3155141781447521,-0.2703729082774645,-0.24347057280371093,-0.23093040841673798,-0.22640900137545564,-0.2254053136985878,-0.22953105955443656,-0.24310543067850565,-0.2708803785236233,-0.32375178244318975,-0.4218241798679172,-0.5837596122256885,-0.7052341061232453,-0.6658884400518665,-0.637821866897852,-0.6090763829935165,-0.5152763953531779,-0.42039571144702315,-0.357344492839002,-0.3217987459404785,-0.29972901478363934,-0.28617386937053213,-0.28194939220727544,-0.29060426005200907,-0.32689939243910504,-0.41317796900216586,-0.5523287989780462,-0.6651479355719153,-0.6614755331782559,-0.5420609986564419,-0.3706214595759139,-0.21228987455748458,-0.09704695663716077,-0.021064589529708095,0.030196699784157222,0.07590675520567139,0.13393109678689388,0.20836565008309071,0.30150096816474864,0.4191620674416217,0.5575295113611309,0.6994720051754678,0.8189695083161836,0.9091120871477253,0.9524140199518395,0.9248060010350146,0.8569058280366136,0.8038107092786323,0.7786125508984705,0.759645528558843,0.7206126331337813,0.6476092728344827,0.5679027871637448,0.507522591501153,0.4683931218213864,0.43489692145120507,0.39626811260885886,0.34873585413960845,0.30094899543344306,0.2608291846336676,0.22128617490443758,0.16821179452657425,0.09954126353650244,0.014040936401701357,-0.07548902605018484,-0.16033172220138098,-0.2352292753454461,-0.2796608330450133,-0.2634051599467353,-0.21614093117831001,-0.16731694574344444,-0.11006110817750082,-0.025150052173124805,0.0992204792670272,0.25234660620439814,0.4048389009109986,0.5147242821494036,0.5477757377209171,0.454171625198716,0.27665111048502566,0.13932155046342595,0.06969652255001844,0.041502286968166026,0.033601729258222655,0.03217892979871669,0.026674016660834667,0.010574806785094754,-0.01864894178128832,-0.05857818034658103,-0.08213244948168803,-0.05424415476523146,-0.005907125363076574,0.03196344152385584,0.05761235914663933,0.0747972089462738,0.08026043737600022,0.06444467055981691,0.018204375151821134,-0.04914712965855534,-0.1196674182967109,-0.175526759038949,-0.21425300202583314,-0.24023206000893105,-0.25703188722802905,-0.2582908971868856,-0.2294329188633762,-0.17139459336585364,-0.10808739816345493,-0.0674144793874842,-0.05086400099512449,-0.05434999822175148,-0.07428752357575395,-0.09191653314086223,-0.07475138738806633,-0.01629666270089543,0.07273502845908826,0.17790933696950142,0.28224362952131654,0.35730834106518805,0.3970201076513131,0.40704232799758655,0.39184007369112367,0.360007247632378,0.33529616399569656,0.3431695181480559,0.40657200525998693,0.5144891663650897,0.6113684598754985,0.6544089271134271,0.6343498844394482,0.5305656723305311,0.3214123940211355,0.09321777176741712,-0.04208699449604007,-0.08740465304627243,-0.08753139978852818,-0.06976925968112212,-0.04742328240927385,-0.02271959305167665,0.0019157492465362042,0.02115642739531992,0.02648926029290475,0.020473137651239096,0.011124382328374231,0.019679705879844314,0.06994276166130248,0.1763619705618494,0.33644267272001654,0.5021975407970765,0.6189212629762365,0.6586733304108442,0.6178699127426484,0.5084887874064008,0.37605742237070533,0.28238341026993874,0.2501150989356332,0.2488602070133089,0.21269511539415015,0.1337348888112029,0.0381704132548737,-0.056871324068854284,-0.1400764586029549,-0.20528521090428314,-0.24191641596895738,-0.2486780108067684,-0.23392493614158255,-0.21546925678929965,-0.20842352838195521,-0.2284975303418939,-0.2834002945086742,-0.3765667329498361,-0.5009635081795549,-0.6061269409299295,-0.639735960407481,-0.6229654873809479,-0.5864669168029606,-0.5396068619243284,-0.47528741438660294,-0.3813030696516675,-0.26211696134420653,-0.11701184535288886,0.046718656519587724,0.1887987091732376,0.2455224879726145,0.2134543989531045,0.13282101712910852,0.039324426721019975,-0.050323183911470816,-0.13378065876997872,-0.21171344582604526,-0.2817166025120308,-0.317285666489843,-0.2791908615012827,-0.1920080636941641,-0.11714026107670535,-0.06796202116825084,-0.034579069763032336,-0.004269303681359575,0.03362759310554645,0.08700513752805178,0.16066552759012354,0.25810132914082495,0.38412696072352726,0.5322781174045318,0.5517963495949209,0.38890734249882725,0.26284000387038,0.19474980389635085,0.16029799692206592,0.15026284494651504,0.16318322248770561,0.19581777499385505,0.2388653104589635,0.28214223512779324,0.32356209995481366,0.3697791871075843,0.4383569924062615,0.5547523240962735,0.7219033580622184,0.6987867686669792,0.46978475792292185,0.3251979254668568,0.2471536015247663,0.19480915938089208,0.14700961245355404,0.10066342500548969,0.06052198434874874,0.03127222905469962,0.007792227114709407,-0.0261934126353286,-0.08354386673971224,-0.17962985616637708,-0.31432226707626354,-0.4352447367490681,-0.5077153659124056,-0.5384244428574759,-0.527448441656205,-0.47520979120853335,-0.3992777968630529,-0.32605477066255434,-0.27797346078429674,-0.25772699990074704,-0.25336903658677296,-0.2598312051000032,-0.2724261814174204,-0.2877838247912469,-0.3068415271709912,-0.32786826093609944,-0.3479371766181898,-0.36681320297686154,-0.38169270870254435,-0.3828641874696197,-0.35771366539210864,-0.31322275992153686,-0.2775450679921446,-0.2662653375953905,-0.28244693122363984,-0.31844817894399474,-0.34542050761269427,-0.36935601523591577,-0.3974510247835438,-0.4016680171797909,-0.2941364114696303,-0.15564529319253714,-0.09413890487147182,-0.07749927437043087,-0.07929168409193174,-0.07931361205180694,-0.052888486078356896,0.018957770960288077,0.14047627346465758,0.2802622807811856,0.4020366304206701,0.491095482656772,0.5539561197503066,0.6030476737827101,0.6465424910738601,0.6780860550599954,0.686745372004803,0.6705418942300674,0.6435240867062115,0.6234133061779418,0.6212985986977951,0.6388227810517578,0.6692445352885699,0.7022804432312008,0.7321470915353143,0.7563340116872448,0.7642769695811888,0.7308161443760501,0.6154315325482469,0.4160851077426818,0.22316761117680273,0.09260775981226711,0.007705650242224441,-0.06531736347300465,-0.1512787666889952,-0.25756422623227226,-0.38602812926085445,-0.5225035027720275,-0.6433368294249836,-0.7293279457964592,-0.7793627380921458,-0.8038748825618631,-0.8167931530799281,-0.8279612441278277,-0.8418149918292063,-0.8536760015467223,-0.8477194987484943,-0.8060379461045818,-0.7080490148392301,-0.4579336248004716,0.24563724141643684,0.8372201496966507,0.9533177639618434,0.9658901321659777,0.9533212158102928,0.9262681953372275,0.8859088083985145,0.8380466504909473,0.7945235004917712,0.7596788911595459,0.724330375346331,0.6763640734517643,0.6067183894655038,0.519780177307361,0.43765825530534297,0.38181196073507073,0.34857529302989804,0.3114742037483047,0.25140687380903237,0.14642079102585856,-0.02662732727386213,-0.250417448217044,-0.4077821160471863,-0.42814284550227716,-0.3788185991155988,-0.32491566376480974,-0.27981970764550473,-0.24171122864789973,-0.2082095343702772,-0.18166070441892307,-0.16657453290711216,-0.16830183157374734,-0.19312709250488316,-0.25148198020576534,-0.3547243981062136,-0.4847002651605132,-0.5401809951587501,-0.48491457783749237,-0.4056222071380977,-0.3417558428652471,-0.294797779404554,-0.262975742916944,-0.24221610093794058,-0.22917606570154883,-0.22125477974104513,-0.21645107364124733,-0.216822910314164,-0.22477994852412259,-0.24098337995460864,-0.2587178183808109,-0.25528505332624885,-0.20789256715283627,-0.11043410011592766,0.012682897953775899,0.10078524649845269,0.11847083919608786,0.08037447411018626,0.02639836445268244,-0.0036360602920985146,0.020951727269436584,0.10463338710037302,0.21532224144105752,0.3062660813822867,0.3441435651835159,0.3149223113378611,0.22415026001318697,0.10335191366623069,-0.0002995798208732947,-0.06404002172417521,-0.09427332580169108,-0.09997903010920049,-0.08805709005629776,-0.05373246080179647,0.0005932269923456493,0.06685790082259362,0.13722846352786564,0.21428147632941255,0.3031123959227619,0.40492483707917126,0.5053540183805235,0.5535790234119493,0.4972462805437515,0.3654611974439443,0.24958517576906336,0.20495249771031795,0.22460600248740312,0.27070757598935485,0.3295452140175958,0.39220140656718844,0.44369509273829083,0.47155349367125127,0.4712254157204588,0.4382553513624856,0.3791911533514182,0.3033657234836591,0.20841288401038569,0.07339228301063576,-0.11189594383901144,-0.3183469883471932,-0.48608857048554427,-0.5888421228416139,-0.63968836555726,-0.6616476377056288,-0.6729597512089551,-0.6921815387700938,-0.7388083081436312,-0.8395834428436996,-0.9002938364719005,-0.46193302067426045,-0.11087196159951788,0.06101317420451237,0.17743623737799943,0.2826908105227839,0.38340175782925895,0.48024531079589566,0.5752710251328267,0.6787735352186699,0.80044786546939,0.9011440110109121,0.9207828551488698,0.8946428478358761,0.8710651090061787,0.8575740599381141,0.8484906541405042,0.8315264531771929,0.7791042721391175,0.6468819594909354,0.3974913380014495,0.05810388637939244,-0.2673302382819334,-0.4986928263885986,-0.6280180386743751,-0.6702494858213288,-0.6374933147679802,-0.5330556781517697,-0.37241973047755944,-0.18680903655533973,0.015421076136705085,0.2683866466202217,0.5197910211037698,0.669433276303876,0.7377970178751287,0.770909371768034,0.7865893797015003,0.79273811149097,0.7905689933767412,0.7765948584742433,0.7398723837706367,0.6594085566410031,0.5091106802539658,0.29773421796984745,0.0911058228801344,-0.052758436822791153,-0.12541151547068247,-0.15224337631686527,-0.2677740599606148,-0.5303627895714019,-0.7496699897360362,-0.7699206757632208,-0.7369506520771006,-0.7126079706891,-0.6848074334583634,-0.6120525141088492,-0.5044680287753927,-0.42143756176870145,-0.39145456622938934,-0.4131218734567448,-0.4753454293828341,-0.5627718646236305,-0.6554892110528245,-0.7307414817273713,-0.7684648392577925,-0.7671045920270217,-0.7357803501763921,-0.6874424177414997,-0.6368142445973698,-0.5941776415689112,-0.5611153562855291,-0.5393011136565443,-0.5269635542858803,-0.5157083079285384,-0.5029980201299127,-0.4870876089930695,-0.46361154021482986,-0.4267208672742399,-0.38192804405856084,-0.35078924500988856,-0.34238896378608236,-0.3447146389759342,-0.34684475082521377,-0.3485485896837574,-0.3555303594515937,-0.38296260900975104,-0.43874018882772514,-0.5056380240891789,-0.5615742384563367,-0.5824975681203811,-0.5586774730018695,-0.4787699408806158,-0.327843170502665,-0.10380094276397844,0.14217036114479728,0.34663584961358246,0.4965929682917804,0.6042255431232023,0.6841209838131941,0.746438066457601,0.799616932634353,0.8465461036801877,0.8729357420988247,0.8721426003094683,0.8453023603925575,0.7751188401154108,0.6384749950425817,0.46004889219929207,0.30021602834696487,0.18079235524276235,0.1002526908193966,0.05318937357015551,0.04464598319336182,0.0863140637874187,0.19474235181459407,0.35608965614512805,0.5060329329471004,0.5730867377125625,0.560048109731859,0.5033893378803574,0.43034390846758475,0.360769018579346,0.3154436969308622,0.3012544464025338,0.3133664535964753,0.3416912980283363,0.3720045650593852,0.39145629285375516,0.3903826335520063,0.35867802331766235,0.2862671389942568,0.16614584431862606,0.004779533998341112,-0.18578200777862452,-0.398906891442839,-0.45326495767910513,-0.230152024205595,-0.06888442921737033,0.035159995432651234,0.1059621797704381,0.1446395567802072,0.13868791072210007,0.07287105910961027,-0.07826818850661243,-0.31711551382244474,-0.5695581025197322,-0.7455795875618456,-0.8370741861067118,-0.8835057125812402,-0.9107722350699468,-0.9281063301634229,-0.9361460266499624,-0.9349090595944444,-0.9275082094846782,-0.9138523168931202,-0.8762405725683349,-0.6620476787749997,0.7014396327741796,0.9643532311736196,0.9816447274873207,0.9731834430684954,0.9365694835417434,0.8409682758967121,0.6514240766707446,0.38963827597845285,0.14983812696476978,-0.004044303778284878,-0.0788938184452476,-0.10313466860169146,-0.09521727761637445,-0.06872366616101694,-0.03598870875117771,-0.005615823388220268,0.01732942935642888,0.026536114369188707,0.01404807449584326,-0.02082309359476745,-0.05322357973625159,-0.058603312744629724,-0.039611908397631186,-0.01136767031660849,0.01803458087587499,0.047241122157967275,0.08019343430988699,0.121224921209067,0.17145972950721233,0.22445886202985327,0.2685397102492128,0.29809005722892923,0.31648745975220416,0.32969409744033285,0.3414681997604067,0.34908895915171206,0.34796776776834293,0.3353502583267038,0.306544973671081,0.25263222517130385,0.1616128809330953,0.037876010095655235,-0.09077817812478822,-0.19594029834638943,-0.2664888847653563,-0.3101489899258904,-0.33765967824237825,-0.3627453147399313,-0.39400535163983774,-0.41286555424449795,-0.38093864149022394,-0.29195343747815844,-0.17691194451035044,-0.07045600688036124,0.009073394222027357,0.06608173821463259,0.1107722697393982,0.1494521997293552,0.18347564929991197,0.20684348235273234,0.21534274710483065,0.21364505943917955,0.20114096017379773,0.16407437534059477,0.06239697155688458,-0.16787672037085033,-0.5030832919923905,-0.7338163983596768,-0.8390054927052836,-0.8787607994294925,-0.8428704335659455,-0.7568717656304447,-0.6787593691104394,-0.6223785053839246,-0.5755869343223423,-0.5250588353307084,-0.4567187574229349,-0.35383330182938816,-0.2196042088571452,-0.08161972098799346,0.022010780897914774,0.07747875908325637,0.10423929837989884,0.13261047291484238,0.18161806142424614,0.2629127281642908,0.36722124090399805,0.4571589302045312,0.47430290373924694,0.41442567537943836,0.3118159790969463,0.17897572011457813,0.009412053757587396,-0.1887280135226048,-0.3745974540172558,-0.5111032365461611,-0.6035363516904592,-0.6656929179972593,-0.7046554308335246,-0.717408365974026,-0.7004455594236172,-0.6408027961861331,-0.512990808869862,-0.2973902147807795,-0.030503656540802296,0.20777269841018028,0.3809635889584818,0.49567757800658435,0.567867776167202,0.6122159718510777,0.6369317110697595,0.6454558794086389,0.6484016126953253,0.6583049979227648,0.6819443050407059,0.7128785595806001,0.7362789433789753,0.7434584010955975,0.7270876107527952,0.6775083014493041,0.5950549991322466,0.49735133764106876,0.40114165481059805,0.3063160434583704,0.20513731179061662,0.09187632130166141,-0.036437797285831214,-0.17435434671725475,-0.30141966335811277,-0.3932235593210319,-0.44688734177915046,-0.47128853787764696,-0.47284479206660734,-0.41719883573296723,-0.17543737446948515,0.06352530442304147,0.09235397299425377,0.022540910694537206,-0.05855157701611485,-0.1072689330147321,-0.1131129918644962,-0.09178893241121315,-0.06618207730310195,-0.06075798201242878,-0.0797861201350957,-0.11270977970223714,-0.1419081323763398,-0.1475515731904527,-0.11852818631632099,-0.05440312323398872,0.022813803693071663,0.07902733422626736,0.08596192067609862,0.04368886952459642,-0.02827929854664589,-0.11302010842683362,-0.1999318040346699,-0.2766239352048573,-0.3313699439054125,-0.3701824506727128,-0.4008074766358842,-0.42540924967355986,-0.4401220912339688,-0.442518655011484,-0.4278672689347041,-0.3992941711984621,-0.3701688692848266,-0.3732653943882407,-0.42455255581423273,-0.4860693769861868,-0.5149287570876844,-0.4970656437904368,-0.44182019081655277,-0.3629912606061142,-0.2785309490198208,-0.19933272744048983,-0.12110754584332388,-0.004885868814189237,0.2643004978796382,0.3987314168295241,0.43348431701492257,0.47342792399451994,0.4965582387434084,0.49322087988398683,0.4599396768285534,0.4041164318580682,0.33473077804921286,0.26472195439507085,0.20463080346630536,0.15570425869988505,0.12092172072880579,0.10067439433684183,0.09096401376792096,0.0825384757080941,0.06204365447333956,0.027723217856431188,-0.01202364957965337,-0.048122834459783534,-0.07969181443320372,-0.10673980838807892,-0.12933480459134558,-0.157175010514429,-0.19583256055391376,-0.2348196879691036,-0.24256383679723187,-0.19486842551720882,-0.1070573200269391,-0.023699326636214026,0.017540542775684995,0.012062588342323355,-0.010518285001428351,-0.01825624669364727,0.01014115468611321,0.07090516853279613,0.12782736289247706,0.14823351413646996,0.1266020952902345,0.07179729426098673,-0.008004207810176604,-0.08906779505891872,-0.12946344546949204,-0.11598608789254455,-0.07117999091144535,-0.025057518433151564,0.0007024463949652598,-0.006615319786222534,-0.03867040201591314,-0.07342712094680781,-0.09018911492780073,-0.08389634953273604,-0.05846120895315546,-0.016593657791264593,0.06258292400898934,0.21323419989697476,0.4300967559051496,0.6162421845503337,0.7134761959476762,0.7381918119569638,0.7076172283784022,0.6384123428724996,0.5615222861641294,0.5049742942866221,0.4797847351357904,0.4813468235289141,0.4695205138808322,0.33265273617784524,0.04987331215145288,-0.18326170567956016,-0.3113842791863919,-0.3608748843156928,-0.38979000626865806,-0.45845719301088356,-0.5950748266541334,-0.7503898777213104,-0.8557317616150301,-0.896766815526072,-0.8841527574326891,-0.8233436884089249,-0.6962888911643687,-0.4716859079319733,-0.1599097865457484,0.12187368454150158,0.302770521229383,0.4045098479238509,0.46234406611870865,0.4975905154806642,0.5191004833716761,0.5331193470338631,0.546978115640909,0.5720884204125175,0.605690604863219,0.6416955241649092,0.6767448358442838,0.7061359430657241,0.7299475295448625,0.7486265634996022,0.7571743416586183,0.7349477879598683,0.6100085836801792,0.23665854702376432,-0.23401586793140133,-0.4999739009292307,-0.6137904730770394,-0.6461648821820446,-0.6115417406937325,-0.47431899637143815,-0.1393333535880827,0.37009287118137935,0.7046981492979948,0.8298386439910732,0.8640423308672481,0.8503001551216498,0.7814638588986509,0.5929532450550501,0.1859503005501047,-0.2684486667602419,-0.5094344739423613,-0.5773754156690746,-0.5299127234072334,-0.40979970077776434,-0.3038979466687485,-0.28249466862522643,-0.34345908053607227,-0.42160619262272175,-0.45789877933440665,-0.4494106857388671,-0.42504165044800984,-0.39937455392463295,-0.3776756988064731,-0.35809390243566974,-0.33645909053257494,-0.31651879302395697,-0.3095434716011751,-0.34137567557037607,-0.43463221584722145,-0.5421010819271179,-0.5891449608739316,-0.5883135823222884,-0.5701356304831166,-0.5494232741209687,-0.5331654264691459,-0.524866688209813,-0.5233305236988773,-0.5229629849028694,-0.5212634319754487,-0.5204323138245825,-0.5202603121364566,-0.5243768462952444,-0.5425709195551183,-0.5750683599718016,-0.6060536420119215,-0.6321587956300565,-0.6734120311407378,-0.7475438154892292,-0.8350510628091623,-0.8016518924691886,-0.588965188865087,-0.3817989897688923,-0.24910386621406785,-0.17610746387064688,-0.13935895036304305,-0.11386535407432172,-0.07973597620983898,-0.004904753044000886,0.1650304739327278,0.3876594259030744,0.4675296890634451,0.4767539321119054,0.48074071112444966,0.48483347591638354,0.48116252248103786,0.4600642228953314,0.4074100458428882,0.31581843819608174,0.21978332776785173,0.17219611160143708,0.1945403212357377,0.27122004540080613,0.376168265662389,0.4586037978968493,0.5007209402847823,0.5279202448256397,0.5544461416050773,0.5762921229338741,0.5874131425940593,0.5724381048544358,0.5179007862786592,0.42411267954239823,0.3162835129652978,0.22460086159165574,0.1585768623436496,0.11355319931065941,0.08349082608117234,0.0649862953032872,0.05298261362320207,0.04449473709879513,0.03852717230241134,0.03414770959505917,0.03675242947732492,0.054830094948204,0.09852981398788682,0.18390323510373224,0.2319123834486203,0.19102297346388167,0.1580476648216443,0.13651107257434883,0.11694161144862142,0.10648688039839874,0.10550025724859227,0.1069686446398666,0.11181538850604908,0.12674433472330415,0.15167438882523,0.18209163792977542,0.2157113376878763,0.2512449998272902,0.2812850109788528,0.2836718221977502,0.2605203055930374,0.22710934261254032,0.16936340700111596,0.05690820079311093,-0.13441065507575065,-0.3662043305310373,-0.5304735025664521,-0.5948816457668601,-0.5924317445697245,-0.553162118709465,-0.48815468711961196,-0.40023350793175616,-0.29287674588067397,-0.1798558919105334,-0.0668741164644439,0.03897018433402333,0.13860568931846262,0.2286520700980908,0.3024546395432893,0.3523283879628125,0.37317695306744625,0.36214460773849033,0.34154195602234627,0.34270141453558917,0.37611999259722095,0.43162499988874303,0.48900817525761925,0.5362657633772573,0.56611896894967,0.5791758485952266,0.5806775241447765,0.5651472447505387,0.5185299256482819,0.4299081182351183,0.3063219962836292,0.18283448930984028,0.11280255344989897,0.11365707132319525,0.16269030763735384,0.21802278292359695,0.2435842629367901,0.2182102400890471,0.13328311383991004,-0.0042878709645334774,-0.14750073010171033,-0.21857900337512084,-0.2222279914808992,-0.18855588093876008,-0.13791556391371448,-0.09975463954638424,-0.08860834460698279,-0.09967039195441918,-0.10997803523071185,-0.09597546852955323,-0.03906486696519068,0.06465169183592796,0.19588223074418218,0.32505869690295025,0.4289815420430823,0.5026174783377872,0.5500775073439387,0.5389985546953877,0.38920241360208213,0.18773471221151006,0.05112430372349609,-0.03979003087590542,-0.11296430977565425,-0.18481569225876218,-0.25740825922194926,-0.31860930509189117,-0.34295269105423665,-0.3184043164403648,-0.2616099114480169,-0.2021066514289698,-0.16463082962944417,-0.16081607555883112,-0.19572212783642004,-0.26288622971376924,-0.34788706075500014,-0.4277543460785612,-0.4864794823452696,-0.5159021858251531,-0.5161935016131253,-0.48850402063304527,-0.4264973543389752,-0.3238651044740704,-0.18557244114983118,-0.035097051537886816,0.07943532541473529,0.11120272600033772,0.06134175312355534,-0.032268371450396176,-0.12589166229229556,-0.1980149482108072,-0.23933372982574572,-0.23945982875016789,-0.18331922412528087,-0.07189359515602052,0.07092732208603214,0.19234571144331342,0.25533417867091973,0.2733249265638827,0.2688815677806052,0.25730627045020826,0.2437020495514328,0.22856851377327086,0.21304462764238657,0.19670202417454735,0.17788480078354693,0.15749061394448508,0.14315075509013123,0.14947477314599084,0.194547379546948,0.284950308783221,0.41991866587330173,0.58095696281051,0.7195032904569651,0.8048669401388525,0.8328358720334467,0.8088805044705559,0.7322080495284914,0.5869055425415746,0.35047160007867045,0.025968717865798314,-0.29603705809938113,-0.5029644770154462,-0.5978347297455547,-0.6188397052265704,-0.5770996187594277,-0.45211079742455385,-0.23872180516569155,-0.022434044431423876,0.10779682839814914,0.14949600258761828,0.14008366672270178,0.111849584923837,0.08370440262793133,0.059551457215767704,0.03172531956740293,-0.012855427158650864,-0.10565820506061202,-0.3325249802295512,-0.5487792065604155,-0.5252761684962179,-0.47609044533985906,-0.42460153759708513,-0.3579323211903818,-0.27140954927485333,-0.16481092869190747,-0.03809320265505775,0.10180400679483066,0.2534018013352655,0.41988242625841293,0.5899139520518828,0.7377924334260136,0.8434748853287931,0.9069324505619716,0.9412819822459678,0.9528329917747109,0.9365150477200743,0.8808098336056369,0.7754796281755634,0.6283743559985538,0.5027908085763224,0.48593465297149085,0.5659100025530982,0.6382926564572166,0.6757408402028034,0.6796058310597988,0.6320815672046279,0.4757915087043719,0.13347491224897837,-0.3177610463855074,-0.6360087710242613,-0.7910153835369472,-0.8553563190386334,-0.8777648544781753,-0.8786533197990822,-0.8657263797283192,-0.8468757986992459,-0.8304371108425816,-0.8229674068043045,-0.8262625426934069,-0.8411856352090168,-0.8651026277627788,-0.8776874028274674,-0.7998394273441892,-0.5273851201200301,-0.16983335842051575,0.0851439420549765,0.24075684025580044,0.33581624940541055,0.3991901097636419,0.44643661584864947,0.4883560329722517,0.537814045356141,0.5959537151406963,0.6529034225209558,0.6973904520847737,0.7177167040277737,0.709573488300157,0.6627925175218424,0.5547814028078437,0.3881115938616207,0.20507972593171497,0.046861576201584904,-0.07922761782282386,-0.18972987353537094,-0.2907147344661525,-0.36406961450649916,-0.38830177037159425,-0.3634035157855895,-0.31922100341538634,-0.2974938538020826,-0.33665955467752146,-0.41072301621060797,-0.4360986218564012,-0.38913499478622826,-0.3210783225185032,-0.2654713160662962,-0.22963438382886966,-0.21855043380255917,-0.22958118894723156,-0.24226386226747668,-0.21940582991263788,-0.1603559954384213,-0.1291571294816224,-0.1844865884256426,-0.27971372010955753,-0.356890028301421,-0.4076614888925739,-0.42675262832839433,-0.4035317807752534,-0.32562980216928444,-0.13840088590120128,0.2422275341462212,0.5942589377994276,0.7175795476046352,0.7394633809105042,0.716921038095657,0.6473900286473092,0.5265450701390496,0.3839645189795676,0.26919193288122384,0.19760950529563376,0.15340881016073488,0.1280844563054826,0.11112892853645895,0.09647839817991519,0.06733600093746235,-0.008433792261170693,-0.10845681294912937,-0.17010910801315557,-0.1857537483406874,-0.15428038531066074,-0.09188731321942419,-0.025555447561694228,0.0386142557393854,0.10798308871625732,0.1872587660710767,0.26965710585996244,0.34681400639652654,0.41550557224348333,0.4759164464225913,0.5248462470380361,0.5629800017528319,0.5907397378074832,0.6047937943571209,0.6029543532598164,0.5893252530402557,0.5706934704714476,0.5418400429072638,0.48967564671905445,0.4225681260818559,0.3607365279676697,0.30990944023052897,0.2675913072687557,0.22689140936233398,0.17734839636079344,0.09640143793410513,-0.04469822391989026,-0.22628303459665475,-0.3115022857279972,-0.2951942767791943,-0.269631951305859,-0.2572088045515172,-0.25317113187709395,-0.2557901674911452,-0.2751101828180615,-0.3195887023423355,-0.38552817025037484,-0.46039947509838425,-0.5324553632951056,-0.5969290365701214,-0.6484424175135519,-0.6861938486540993,-0.7138772209497461,-0.7322446734478435,-0.7381462091439618,-0.7282387837911459,-0.7035351460366451,-0.6669705900394061,-0.6121633432446247,-0.5204677324487585,-0.36522618139746355,-0.15391431852238846,0.03448167216915728,0.14777664628743184,0.20002022922314505,0.22239680431360223,0.2689855347303574,0.3990250650144636,0.6125084087626318,0.7940999168510319,0.8840750623111244,0.9182570887184105,0.9236635254714507,0.9075548764617929,0.8597105233968144,0.737009959032185,0.4278269639213949,-0.08738413803144424,-0.48236097152355756,-0.6777354611519365,-0.7783939160462265,-0.8387739641677036,-0.8819224449872385,-0.917920869155857,-0.9416620555604712,-0.9446825094564958,-0.9327660722748039,-0.9193753296115982,-0.9143150082906337,-0.9123670367584842,-0.9001543074750941,-0.8623581417037088,-0.7874556185122664,-0.6693664680346078,-0.5035180241407147,-0.29402008857017947,-0.08930372674156327,0.037443835941457705,0.07639934573444757,0.06673350232897779,0.05962968985384014,0.08758946406313357,0.16654063412675926,0.2917974950353921,0.422897443265672,0.5197329235607806,0.5546118804530471,0.527456938318406,0.450781242030987,0.3515070542762753,0.25063994643267024,0.15464813219850856,0.06269776590419017,-0.028262724094486217,-0.10446569629090156,-0.13869191723427643,-0.12358088509277672,-0.06915535377608657,0.010969198881591482,0.0972739336456321,0.15530771593220574,0.16913013293760223,0.14896965691986913,0.11619534578591019,0.0891746255018832,0.07424043346225155,0.06916718617427507,0.06966897660450354,0.07342837830557407,0.08123887739398733,0.0955039549477109,0.11923973498946842,0.15020607748386422,0.182677212650329,0.21207873937561805,0.23932704707115315,0.2760891487780033,0.3422591019342405,0.45044703253344903,0.5790091770996537,0.6658476970311364,0.6834508444751302,0.6590899406315454,0.5986648003739677,0.46760740736886974,0.21854871889123276,-0.09280274891140632,-0.3343246528407209,-0.4747719848055584,-0.5454992818569507,-0.5682876856138359,-0.5398989744137944,-0.4149224269196494,-0.1475518642709877,0.060852311185439906,0.09208702359189329,-0.018444193293208313,-0.2112259534111526,-0.35007021024425516,-0.3926502234818454,-0.3557392692247082,-0.25316799901336184,-0.10707972288138742,0.047336863246772866,0.17579542372341794,0.2675087397054261,0.33283693890868365,0.3837348138615681,0.4043088470648907,0.3774816556794047,0.2900997309260322,0.11608943950400405,-0.1349613126461933,-0.38447197450879494,-0.5422327928466346,-0.5886964644514572,-0.5557083917066101,-0.46637455845394904,-0.3366935044500395,-0.18702960943553554,-0.03813798952679013,0.07266348134628924,0.12897728137744102,0.1459114406237366,0.14201548154083657,0.1209986642692086,0.09109503573148778,0.0739951680434828,0.08004128158628968,0.10578802158410076,0.1396856352186662,0.16588376540915326,0.17555185258347225,0.1687546128247878,0.14903214541034815,0.12234959864881993,0.09494924311610814,0.07119753470066398,0.05974330261065195,0.06406406053877471,0.07427132731080903,0.07029931757395094,0.030376514902627095,-0.0517203508004934,-0.1674102750661592,-0.2994827242081759,-0.4168251724847924,-0.4582505319135489,-0.3581781444265296,-0.13437590352270165,0.07134967891920667,0.18570004674425003,0.2272566830908427,0.22226456816968476,0.19225366143583275,0.15333299893387362,0.11560537393033357,0.08412963981959821,0.061121230419654435,0.047967461620754256,0.04535083060896992,0.05373569239977643,0.06845711272130672,0.08159223455049522,0.0833912035190837,0.059870485935398385,-0.009397953475823187,-0.12296291090227773,-0.18441357180360637,-0.1895980572954667,-0.1893122944348869,-0.20158749890395244,-0.22831037279244276,-0.2617060154274052,-0.2931976416982413,-0.31686436803457274,-0.3311550069379332,-0.33894088268419753,-0.34482405980797415,-0.35426138475231506,-0.3702204705902457,-0.38867470003787347,-0.40424047517942163,-0.4143132935279563,-0.41850388028991475,-0.41859575393078,-0.4179298922696712,-0.4104430261750611,-0.3771601962134364,-0.2902955938037568,-0.13123505738914557,0.0492987450329117,0.17995481931591706,0.2483171188769593,0.27128478150222796,0.263850313239941,0.24056061353427294,0.2094121771795898,0.18144758043755463,0.16662110831205695,0.16605000767638617,0.17476929203743416,0.18812159159104236,0.1973129247578662,0.2009802857026302,0.19392599740908606,0.16836724549865098,0.13580500397840212,0.11256033320920038,0.10377778680665398,0.11377065893176652,0.14169253819923625,0.1898936944576772,0.25571665975374375,0.3352944943052074,0.4132189071815857,0.47143795663889965,0.4946837657262435,0.47067876784953167,0.3751164167213618,0.16983083387312695,-0.12273710320435546,-0.37714982001403013,-0.5195105002817113,-0.5315794071118397,-0.3318425826893452,0.025786463771085347,0.25004914244370324,0.3408074039231676,0.3702269114466338,0.3805515552655302,0.39743425487097067,0.43563150035471004,0.4966794007261723,0.5668415220148645,0.6244202624773687,0.6559547534954541,0.6476560692013467,0.5718152538320123,0.3840511861384294,0.0791400456078598,-0.2157349535168595,-0.39695854962031296,-0.48243970791444085,-0.5135019547883053,-0.5151723455831251,-0.49886212868840824,-0.45705803032030096,-0.3861533160940189,-0.28927434875090624,-0.19748866736629167,-0.15001335017333547,-0.1821684789717751,-0.29163988877347086,-0.4458420992353587,-0.5853150879182334,-0.6766088879119645,-0.7233019311609851,-0.738357096383584,-0.7345276592152897,-0.7175560301569237,-0.68495306046703,-0.6145975605969185,-0.4871622429263258,-0.3343698799004981,-0.20990602568083191,-0.12864364154170466,-0.08796131962692266,-0.07476289738896358,-0.08079787105758582,-0.09944345962142342,-0.1354913254000265,-0.19449315590656455,-0.2705380018528739,-0.34775283544164387,-0.40590221382096375,-0.43828270540718883,-0.4476186046602571,-0.4329658425516965,-0.3817405573843403,-0.27405344580076946,-0.12907964488426418,-0.004297753443602742,0.09158241421793144,0.1954218030909681,0.3272513361041714,0.4481339920911432,0.520194847233054,0.56798924130949,0.6077764500841397,0.648972751539443,0.6984007638995543,0.7499821607854192,0.787992157307541,0.8056563573720641,0.8050102596568838,0.7934668265984481,0.7710700342283214,0.7343507902277,0.6816489337909906,0.6096098741990662,0.5217194889437152,0.44888969773547915,0.4228574587498772,0.45380831726849613,0.5338862112475775,0.640735306683007,0.7508402206031316,0.8384043595423352,0.8810296814022813,0.8558395402384767,0.7275142666746198,0.5084295137696001,0.29452306278829865,0.14281927337578526,0.041453791030187856,-0.030842426440691455,-0.0847562392996937,-0.13412191462711093,-0.21000966314995706,-0.34238694619954235,-0.48448035375343323,-0.540799274221942,-0.5486317187932321,-0.5131830654414743,-0.4527952227223499,-0.3874791707856343,-0.34389884469387283,-0.33129897300459593,-0.34139621539330295,-0.3545874855181998,-0.36826252167768286,-0.38254095503645896,-0.40352237564023874,-0.43585269126365755,-0.47901260092166914,-0.5265137414973006,-0.5591200292112583,-0.564005950001059,-0.5447890382860705,-0.5236924993777756,-0.5167548801613909,-0.5447992346329574,-0.6301812315790168,-0.7819918104918765,-0.898853612857478,-0.86130898319237,-0.7734508691973514,-0.7086149448373597,-0.6627785330185075,-0.6180132081813458,-0.5553705010662355,-0.4664155848142509,-0.3682449897503804,-0.27557118204329034,-0.19130772149123634,-0.10967508827013368,-0.02718150323726638,0.052284944313713555,0.11928142790299714,0.1733710443688855,0.22592496925918806,0.30564875159482474,0.45004742801969483,0.667803490545624,0.8618235762014022,0.9379603926123097,0.9344509491931199,0.8829276409544519,0.7991519508683186,0.7155668694841101,0.663901822481784,0.659634365239608,0.6811925296373793,0.7005197267914041,0.7046684687580343,0.6922704478099967,0.6569489008323126,0.5841925243524854,0.45890421127964554,0.27237434530151133,0.05521957353070526,-0.11655730954839581,-0.20404787916517245,-0.2208989243202818,-0.1939470324602538,-0.1491080893062712,-0.09135970974173037,-0.0096675233130145,0.11815357429250661,0.29115685350763987,0.46367815547300456,0.5965269123254358,0.685818030598274,0.750906659598461,0.8054857231402199,0.8493481958690009,0.8764892920757341,0.8846333409393479,0.8763088159421308,0.840529690578895,0.7243093349686326,0.5117752801566328,0.32478883219625126,0.1932013066914111,0.0630491733970545,-0.09577829332401377,-0.27099238749715493,-0.4263863356542465,-0.5416627280859517,-0.6174631346665893,-0.6706124659031582,-0.7076003604519738,-0.7294639619490032,-0.7338209328851651,-0.7182829283569763,-0.6704039536853817,-0.5810052642279497,-0.4841658495845592,-0.47060360098435305,-0.5678140205076554,-0.684593699799027,-0.7235026940405807,-0.6792143924509562,-0.5552635466285488,-0.3556761430440147,-0.1587423861382051,-0.028926198169117474,0.04246965317004194,0.09053567928830661,0.13304410863007085,0.17479886155384267,0.2132240220375492,0.24492127726159527,0.2708895096269038,0.29623788835709464,0.32675183553763054,0.36820549846626116,0.4204199873804436,0.47723793593662317,0.5299000617736973,0.5716974038004037,0.5969951412206178,0.6004253371557331,0.5752024349578393,0.5108126573083343,0.3831863282882544,0.14574982023398758,-0.18528875232306613,-0.4286470257891831,-0.5432261691834663,-0.5984425897441757,-0.6324362430047119,-0.6617162179846388,-0.6944007490107665,-0.732245469848801,-0.7704844204031756,-0.8010256339391113,-0.8078233439392962,-0.7629920735440633,-0.6491451859585494,-0.5035227400344465,-0.39900434279805214,-0.3789873074206192,-0.41456514028628144,-0.43623258881786386,-0.43448007865070404,-0.42338830307777586,-0.41154866718194616,-0.40394969220082394,-0.40432031859108436,-0.40798258635211737,-0.4018285461777597,-0.37793594944143966,-0.33989705545737453,-0.2929596913189836,-0.2359201812683514,-0.16673318720423289,-0.09665348978850641,-0.04094865789180152,-0.011021690353814085,-0.010021707263281172,-0.03474184652376298,-0.04962274180189958,-0.029557015311484153,-0.004054711588432074,0.015480022715010327,0.025140652199570776,0.025279094430169253,0.02003841411496864,0.016174336704323767,0.014406552922228432,0.010454581636671876,0.0006867179463607449,-0.015444056906165078,-0.03146689965683778,-0.03218025342140952,0.00468048892850749,0.09562470765812965,0.2333843160747871,0.3701682378079992,0.46300752924406774,0.4937064478711117,0.4684988382914449,0.3970150439045473,0.295394024330706,0.1811653164103739,0.08304051604582356,0.025844378891879755,0.02277805107617957,0.07570684736859415,0.1515368156457232,0.2261517124267491,0.30727861567011694,0.3877592199239371,0.45332545363407417,0.49078971732273097,0.497385344798897,0.4783607882733882,0.4414782391477055,0.3974890464819421,0.36003397690005484,0.3381595857751796,0.33845529026677795,0.3547096096044349,0.3704199279034494,0.3735853078238667,0.36265764966355113,0.3450327322497994,0.3329583277643593,0.33475831809059353,0.3460906554940399,0.36269854959785996,0.3800416647478143,0.3774150356359514,0.33171539650489024,0.23796363760056613,0.11950010299018428,0.015226035726163059,-0.06540417736054109,-0.13796772362308002,-0.21515523783634238,-0.3332112783086582,-0.48898787335049165,-0.6283812728851387,-0.7239282004216718,-0.7748831751174867,-0.7854132047575331,-0.7553983301599955,-0.6860901478361286,-0.6104409538798177,-0.576980333465616,-0.5978871153770886,-0.6532919775194602,-0.720804839246466,-0.7872214923816794,-0.840316715521512,-0.8612009737428603,-0.8408266767124012,-0.7159989262647952,-0.13706792583271762,0.6070290825974537,0.8016065013475605,0.8208490377117543,0.8047845430386226,0.8116258177975113,0.845047627467034,0.8858447681226809,0.9220220687527623,0.9503042282901526,0.9704744131886874,0.9797963222495527,0.9479316327132664,0.5483274725721974,-0.3678533019753814,-0.619750215588902,-0.6530649773102474,-0.6282385171752238,-0.5959537610702912,-0.580995129181973,-0.5851735749354106,-0.6021716166652029,-0.629484284586721,-0.6639478249975119,-0.694535595352877,-0.7155137816876684,-0.7344611702124016,-0.7593332517575472,-0.7844717821859596,-0.8056442416615051,-0.8316915523321438,-0.8632952114198934,-0.8730789828240348,-0.8146153820349579,-0.6725187929039981,-0.5001931611380575,-0.33731291076273573,-0.18426917222119638,-0.03216579846325361,0.10198329195613078,0.16567954279085603,0.1337602918028346,0.02877699988215185,-0.13990834280527698,-0.33803851106069366,-0.48527791626268635,-0.5208461859821745,-0.38743496360621676,-0.00037077442691196675,0.37368788791679786,0.5228559352741287,0.5475055554445135,0.5244933525875115,0.4791242557229558,0.4322904592927507,0.3873711510989576,0.3307047654122218,0.25278152347044486,0.1747925227924005,0.15546578861623445,0.25037686538295617,0.4446187319653511,0.6314055077574297,0.7304325137919356,0.7337691984489065,0.6796207024479548,0.6114416510076262,0.5454182337037652,0.48347173448756214,0.42967927824341706,0.3979744985682515,0.40790679908035443,0.476144350418162,0.5938513084320021,0.7208650320490814,0.7869956080084295,0.7707907427998725,0.7171365881541872,0.6524563262997084,0.5753369623065496,0.477182916363911,0.35878277786938245,0.22941661533577473,0.10300602314067459,-0.010624737512096465,-0.10549444695954299,-0.1764197635493953,-0.2201007774796856,-0.23277285688262617,-0.22506095812805713,-0.1984479708171797,-0.15959763108399624,-0.13128776865831537,-0.13320922264595683,-0.16865027204226324,-0.2303203500884826,-0.30249092306408776,-0.3747875211788962,-0.4404527576764286,-0.49628100012105486,-0.5310600472967321,-0.5322787364858923,-0.48282499702572546,-0.34264751897166373,-0.1082363751242029,0.0521347451992384,0.06961944018382384,-0.016422259044514432,-0.15934376965849922,-0.3018666024283664,-0.40783281196190235,-0.48045626105170014,-0.5384475877107802,-0.5953334467829773,-0.6584362872123908,-0.7191174410185822,-0.7516232611592447,-0.7511477821707095,-0.7417691070924205,-0.7415372982503086,-0.7581503022446712,-0.7638912485532147,-0.6652736255396163,-0.497228233732778,-0.39143304647426724,-0.35695057046872347,-0.38293207296124965,-0.45905371794292127,-0.5391621582253264,-0.5807477863419533,-0.5716785972054711,-0.5036898017069252,-0.3544162840566711,-0.11679012127340212,0.14147254106531054,0.3396516580712259,0.45523495424347904,0.5066761731783028,0.5241136899032753,0.5327754634081665,0.546680146218836,0.5733346979997888,0.6164875902199987,0.6769484641718875,0.7438944908968924,0.7920983912862091,0.8010969748503333,0.7652419651284189,0.6902386175295966,0.6093163331862188,0.5522767746037686,0.5137824396695876,0.4682316101015505,0.4083622985640137,0.3426686053255202,0.2809968396113222,0.24054536388964723,0.22310566810897914,0.23520275118638637,0.28213569774291225,0.36587005948537377,0.4878155284279133,0.6400633777293833,0.7865811258822324,0.8831755934812925,0.924944963806399,0.9381203333480477,0.9392743848729873,0.9262244765617518,0.8897613679566113,0.843495101965557,0.8056482405073387,0.7716122041702129,0.7164380580236126,0.5902002075851397,0.2963766922997166,-0.19153529656573287,-0.5455075982250245,-0.6473147650335768,-0.5984329420923542,-0.48786925743442194,-0.42404921021399355,-0.4240095134245072,-0.4345851350198465,-0.4148712407284643,-0.3548417830076555,-0.26608409912372366,-0.16986767737440508,-0.08690086941189089,-0.02160510985504159,0.02792019116045717,0.068770528361683,0.12711650942317562,0.020284737859469368,-0.0014510782775122694,-0.000988849848260967,-0.002583085256421272,-0.01174518428377821,-0.02883231930107659,-0.05186743418904669,-0.08107279187879601,-0.11918898431539725,-0.16828103889282547,-0.22951239976918023,-0.30288587031656933,-0.37095368296023223,-0.3980306635757932,-0.3582278103156946,-0.2606378933021947,-0.150322544271893,-0.06076786858821275,0.021334097287043937,0.12292213784021805,0.2515538995000322,0.39507553287284514,0.5276199734106585,0.6219474109313279,0.666917235814541,0.6555900638360165,0.5657608200915548,0.3619980896229294,0.0862579182791496,-0.13616105524593874,-0.2679239510585899,-0.3481314229449633,-0.4139940216261739,-0.47980332732999564,-0.5443901183234128,-0.5911431947453202,-0.6033085320523944,-0.5722903935668282,-0.5045446363130038,-0.44756521838700075,-0.43447225028773817,-0.4530832224799555,-0.4750260894222565,-0.4719991166223519,-0.43049885777738495,-0.3642361266585554,-0.30942019027966905,-0.2908313611590273,-0.29284608832279496,-0.2656550275815276,-0.16519890445397306,0.029913873643418343,0.26832283537019863,0.4438415244007563,0.5324710098279539,0.5588687247918572,0.5549087619469015,0.5471459644980349,0.5410049035377315,0.5362545893659579,0.53944051714529,0.563304027226499,0.6310148688138715,0.7597741880955432,0.8761022340406198,0.8449481409859405,0.7095094265014048,0.615880019261152,0.6059710145675467,0.6614558827448876,0.7121823308377672,0.5815384868703046,0.2569570535125194,-0.045636816627801724,-0.2527415300299319,-0.38157430084526683,-0.4461721249097489,-0.4504197864907073,-0.4121856419082235,-0.3652366930715205,-0.3317180855079064,-0.3043027134460532,-0.26639582436062187,-0.2148937971285567,-0.15774537136567593,-0.10595425519368855,-0.06702652122222352,-0.046645683200734735,-0.0405410940231981,-0.03406679213771305,-0.014947038731243778,0.016610058447684987,0.048558584774803404,0.06722365732312324,0.06414657286228018,0.04308836680159606,0.018593564157175405,0.015251194160030285,0.04462316521213413,0.10542688532307955,0.19353911388709727,0.3000286364157661,0.4195437014874418,0.5450639715401621,0.6608923725246445,0.7465513690492176,0.8087035248989166,0.876266789116582,0.9183012770260961,0.7966543715450736,0.5020417480293822,0.23218687105800176,0.05692114440352492,-0.04545629045312225,-0.08429658627604533,-0.09010521938944635,-0.08038692826106864,-0.06051929931494355,-0.0359307200084274,-0.012623552927591484,0.003953328363401716,0.011909014603118263,0.011640820355065218,0.006424019934108291,-0.0030075753324605953,-0.017578857048341487,-0.041642567131372016,-0.0797504463851969,-0.13934222732649354,-0.23388618150082932,-0.3819682563626576,-0.5864901552087468,-0.7732293943200084,-0.845877377009564,-0.8363912660721038,-0.8020233307531822,-0.7547090304177585,-0.6875784610970342,-0.5846455910238137,-0.4377491288223519,-0.23970755756970666,0.01683285183673188,0.3040233036675004,0.5445895257272697,0.6926079817418482,0.766529757051223,0.7932681123744533,0.7867847767779541,0.7499475817262864,0.6841571854760754,0.5983721497311822,0.5141659483451405,0.45248856520339664,0.41866363246449717,0.4013138165074264,0.38706435378574405,0.366363375485332,0.33440386760422824,0.28884783666317104,0.22434046784828585,0.13566451735309815,0.02462920408409062,-0.09544747744910606,-0.2085796557844257,-0.3106991403126161,-0.39805853900500077,-0.4656007924936702,-0.5051826434534497,-0.5168466835849966,-0.5070036963302486,-0.48606257989042734,-0.46301447084950614,-0.4442765210420314,-0.42877053848299673,-0.40787391746705465,-0.3755361603739128,-0.32894715129731944,-0.27369211082593187,-0.22141705819284607,-0.18031605049681484,-0.14775423960715656,-0.12122502624446095,-0.10724343877267944,-0.11514547446279887,-0.15029243920058497,-0.21257076957344295,-0.27901841329324706,-0.31035968922922896,-0.2943978474186128,-0.2701255893534469,-0.2657818051717968,-0.28164711757177746,-0.30731935451541914,-0.35072170083734766,-0.40845618172569126,-0.4659729199722513,-0.5056057997951239,-0.4944864697591155,-0.39087647662241803,-0.20455196223989844,-0.01920329681657848,0.09391433840342885,0.13677543331872477,0.13050898832105673,0.08582287169391106,0.014578713831010063,-0.056128710782634414,-0.0953430177813785,-0.0863123793704474,-0.02524476278296177,0.08620577880584553,0.22018710736842512,0.33596796753335567,0.38431875445926844,0.32801655826693066,0.1731796991822285,-0.04284149453437249,-0.2689458261728268,-0.4478198616665411,-0.5454078152830351,-0.5704708528870278,-0.5442077802601147,-0.48134814292630407,-0.39063752417463854,-0.27320723016891457,-0.1242189894084008,0.07481659104241271,0.31559973662802604,0.5048876481193394,0.5934139001407329,0.6175286661331919,0.6065566419259796,0.5754061728505572,0.5419701322894952,0.521478865970813,0.5162671637957172,0.5156789634307192,0.5004621750481774,0.4502749298642407,0.344185485287073,0.15275602380930386,-0.130210444284921,-0.4060634295919998,-0.5767540531459732,-0.6565420741156464,-0.6915986001760547,-0.713022871829732,-0.7342065537248406,-0.7509253006233585,-0.7555880794353382,-0.7384597543488834,-0.6866537635298117,-0.5935876525746736,-0.4680982300515372,-0.31823598277118864,-0.14762495789500862,0.02515887697634776,0.1830144989614952,0.3314480977054071,0.49847821154945177,0.6886833032547999,0.8421018889819873,0.9220789894732667,0.9580723256481928,0.9768661457526514,0.984875889860864,0.9805109412631908,0.9605259367083975,0.9242188830820461,0.8735821553246024,0.8070650069683973,0.7185889966913048,0.603637225542073,0.4612939858953234,0.2990935644644275,0.14643993847708928,0.046076717488711234,0.02767715960656124,0.11777537617362221,0.3351892161163426,0.6175058118704746,0.8107310933194527,0.8957336852883216,0.9151172765736031,0.8501792162172921,0.6102758038567665,0.25063647604317246,-0.017428094106665036,-0.1700622847314984,-0.25394218749659875,-0.2988260493281709,-0.3242925477869082,-0.3484845168947547,-0.3943906318194035,-0.4677662474775428,-0.547769443713306,-0.610972286402505,-0.6371949564822506,-0.6223999528457461,-0.5873084114469106,-0.5708824412490643,-0.594567545379048,-0.6480755221668257,-0.710532310108172,-0.7661288842107596,-0.8065256263319819,-0.8329782724147716,-0.8450824061630786,-0.8375140703563099,-0.7959540767511131,-0.7035963392046359,-0.5903949331300878,-0.5373386538189633,-0.5964072727700795,-0.774298020637278,-0.8892600075412399,-0.6561584214044613,-0.420094509299635,-0.274642114763292,-0.18034737658279062,-0.12351578603263287,-0.10447370316451261,-0.13146314205654275,-0.21085013064027777,-0.301398604370249,-0.2662528719087459,-0.1411437742533134,-0.03380231752673033,0.03655726825644887,0.07526203434760315,0.09300510826138171,0.10206908535800006,0.11207856574076795,0.12525385912061332,0.13895718749245667,0.14910680362084475,0.15231267906890492,0.15045565045470358,0.15237694446704275,0.1690701622895269,0.19466922107113585,0.2127029137831632,0.22507165354147785,0.24516833296058588,0.28041596085578857,0.32635068536025474,0.36725447580278886,0.38530054166870503,0.3768233584661085,0.3477670514501948,0.3074504364401226,0.2671243110668102,0.2415607676682588,0.24359641148724848,0.2707117472927667,0.2924078544497335,0.26103048783976635,0.15182864112612796,0.012649123181948297,-0.0724087351872371,-0.03988134452067016,0.0831575303556499,0.18392055914321126,0.2111701815106546,0.17066328007151424,0.062259202943646064,-0.09661831346774993,-0.2592278666571633,-0.3893949976070474,-0.4861963196046352,-0.5704541803056858,-0.6612373695171101,-0.7286516128975112,-0.6397126091736901,-0.4495806200806331,-0.33851121319309946,-0.32723944787870474,-0.39651975145209895,-0.5256014337054539,-0.678446158491128,-0.7777098347618092,-0.7718175978511197,-0.6766774250848797,-0.5293671855944573,-0.3950729181381655,-0.310927794635003,-0.2663472446017966,-0.23898785281966992,-0.2091953880522201,-0.1690996141887499,-0.12417066413178618,-0.07706476436730929,-0.032894684854822775,0.005027256303105253,0.03536926217907142,0.05894763919230235,0.07787492539732692,0.09591250005159678,0.11432956651012985,0.13884280641672914,0.17567041206532558,0.21900688450312314,0.2562815072044366,0.2881030163367545,0.3296044960155086,0.40033920738204243,0.5257537018480868,0.6624018549702732,0.608773896380474,0.4336872766045029,0.31813242586542867,0.26475892328082345,0.25108079027042407,0.25946152815759,0.27855326369600864,0.2990013968447958,0.3126178557449749,0.3128078798877143,0.2946796004235321,0.2581197304317527,0.20484089146520154,0.14162027414909498,0.07595202356362464,0.017704277085038213,-0.022319300424878584,-0.03725226027039667,-0.03138595505898374,-0.018200185603414073,-0.02105751037374572,-0.05656981121327631,-0.1299709529097233,-0.23847238831272619,-0.36034527478585554,-0.4599310764273865,-0.5217577032283438,-0.533321081819074,-0.47887561390306244,-0.33987000372123155,-0.13718806927682173,0.0842292509920035,0.2864713045833775,0.44616161356433814,0.5553276280083528,0.5490516050754106,0.37021450001794504,0.22726147683769374,0.20466726343309036,0.2578226144806915,0.33706704501566354,0.4127215781038582,0.47692969893277665,0.5365960683213767,0.5982506636088075,0.6707531785632744,0.7597689100282036,0.8510182128519632,0.9046919014561591,0.8794420372509203,0.7784232857893366,0.641054213312989,0.47452627031511363,0.2589626801950518,0.018490519441554807,-0.19745595933394933,-0.38835513616841794,-0.5668234662099569,-0.7327024128561181,-0.8501090264013282,-0.8784543228495517,-0.8236648082944243,-0.7369671977212449,-0.6525785262864381,-0.585948621125005,-0.5444679237431242,-0.5287221426583492,-0.5294966469296412,-0.5361669690140597,-0.5326061596021369,-0.50049831913884,-0.4296780798394059,-0.3347843422544112,-0.22344965267178027,-0.09834661821352217,0.024649530214314812,0.12135301435574768,0.15932931233499656,0.1193715293834534,0.01034991233909835,-0.089371112346389,-0.11012586730210613,-0.08081034192463518,-0.04963589815061572,-0.029621567975533353,-0.01832801871290837,-0.010923968345822916,0.00048084793094371547,0.023086678567717626,0.061345807269853725,0.10256832536354368,0.1303287178728318,0.13815757073660245,0.13232137184812204,0.12149303377905303,0.10830325213807075,0.09389621630514011,0.07922069954595502,0.0642510977817914,0.0498724286141469,0.03647058155737798,0.019437046319214852,-0.00460678074828981,-0.035377396630811055,-0.06585898202767332,-0.10624007311997692,-0.18214229070676446,-0.35319278771147855,-0.6539605707211504,-0.7380300272085947,-0.5915205052810512,-0.46804689661372667,-0.3784104070752141,-0.3085137393325994,-0.25193647621236553,-0.20690394007124002,-0.1616143033058569,-0.10801689617906073,-0.032317888769488684,0.07517574942673726,0.22963002396953908,0.41599177062890214,0.573772968238572,0.6544771092388714,0.6648234393704785,0.6315341840495917,0.5720024999849977,0.4884791665622642,0.37577294834641367,0.2354669061275146,0.08752303886959069,-0.029274954591101156,-0.10618619931086368,-0.15374145379147236,-0.18203481101197092,-0.1918094278534438,-0.18402600685352877,-0.16462954953902012,-0.13847370510935586,-0.1043112628605571,-0.06653622630544848,-0.031162114170638636,-0.002655025743474098,0.018420846284153473,0.03963032571087868,0.0791361902134879,0.1416952330045271,0.2204742140017478,0.29777194119205297,0.3568765529608797,0.3999057784619463,0.4327024092370175,0.45679884543641014,0.47532771781143823,0.4865154296440524,0.48192633898315734,0.45330568377130265,0.39181913057768547,0.30511404149024257,0.2197298988973295,0.17467208802708525,0.163014934191689,0.15354526184889,0.130637650477562,0.07629339008876967,-0.021081354520540902,-0.15039701008022427,-0.277016209706739,-0.3685399944655563,-0.41334151457618207,-0.4056338699231001,-0.32209521660906987,-0.09775042596677089,0.3165213066123075,0.7138294054556003,0.8935418983019425,0.9524541481242293,0.9715386562926335,0.9765885357579612,0.973946446243013,0.9623914260174078,0.9316339119310405,0.8480317875690916,0.6117151185927132,0.15292484793646285,-0.24190018336698046,-0.4348094872259023,-0.5123411697174123,-0.5387136410021542,-0.5420326837647693,-0.5393712362168556,-0.5466644800072772,-0.5780273510274183,-0.6338080964776033,-0.701239244455108,-0.7645261397658346,-0.7961754744989484,-0.7810550764030117,-0.7369747031312911,-0.6807536322085476,-0.6095635937570646,-0.5283946053028665,-0.4465255921284448,-0.3740703167539694,-0.3198808047978839,-0.29203170836694914,-0.300659409454444,-0.35109959708448546,-0.43995069499883427,-0.5520678877619263,-0.6529680538818293,-0.7162493867098604,-0.7486292506877099,-0.7700365039836204,-0.7911511632121064,-0.8150620079378641,-0.8393293513287999,-0.8572360614588891,-0.8645349059150608,-0.8615440017098396,-0.8457322592254044,-0.8107461552241748,-0.776774866726768,-0.7572221463588908,-0.7439759181045709,-0.725341352858041,-0.6988565843273479,-0.6745031642009133,-0.5968212135408089,-0.03345611050126823,0.09663891764506416,0.0994318420834079,0.09337734794727526,0.08858092114969054,0.08429382241732006,0.08092358965332232,0.07982296387504263,0.08116402153454585,0.08454447226826414,0.09026813664206977,0.0982952318104126,0.11134147111145927,0.14029960473312497,0.19895347372168876,0.2911814503006964,0.38389301657091074,0.4270362463268585,0.4241095876024144,0.4192369633898046,0.4587453735959881,0.5686416401308801,0.7126985517464359,0.7865497831764373,0.7745506891419321,0.7372156147820819,0.6997507879049396,0.6642078811834171,0.630159789043508,0.5966980257374712,0.5603592816280651,0.5089706169678414,0.4221983885757435,0.29481603370411275,0.1631057813449922,0.0764339580307727,0.047180414146370704,0.06106506460075339,0.09223601768184214,0.11872952673605794,0.12698012159801939,0.11520560235555574,0.08846237772611992,0.050146184225732485,0.0019835602554812153,-0.05448335191509151,-0.11285435924162526,-0.16161376369827682,-0.18840483346930437,-0.1696096953306204,-0.0865631125531765,0.04253054188160714,0.14384602363491714,0.16663120855262648,0.12100130808088218,0.05684715194177678,0.029943616061964155,0.056355480600610054,0.12076347956260357,0.19885990863053774,0.2470641896333044,0.2421095374573289,0.19161283602549986,0.11765524530785647,0.04753558723089751,0.0008554044132933251,-0.0014403159711963195,0.05066591429086922,0.14873529463420165,0.2686806830831779,0.3707387395554609,0.43039968000354034,0.44951739645661004,0.436013382208065,0.39200206310401364,0.2975632777387737,0.0523226771752399,-0.4010001659701665,-0.7217996087285089,-0.8566719378260351,-0.9106284903070728,-0.9289189771027349,-0.9316864172910747,-0.9252798671635843,-0.911388822456469,-0.8897994219751737,-0.8544713593188438,-0.7895586828334146,-0.6814099475752516,-0.5255589522186699,-0.3444171248725938,-0.19620684630167579,-0.1401650771411915,-0.18595624185986426,-0.3199856157781849,-0.47384939141947646,-0.5647061498097945,-0.5717879056392251,-0.5239391375239097,-0.462657073049991,-0.42670530233772985,-0.43077498385765417,-0.46897045481388466,-0.5139707491170157,-0.5412860070995732,-0.5494676072771075,-0.5429165755677807,-0.5269249083060772,-0.5049234934407318,-0.47869906221423125,-0.43871585170845984,-0.353905887477988,-0.18601677057916324,0.08053100778948921,0.37826761878609044,0.6076017686468592,0.739840885444807,0.7893495607420576,0.7751285929016645,0.7270697074689095,0.6669503327529335,0.6039360199840315,0.5429587870233115,0.49143808764908414,0.45367518104721555,0.4325750286476982,0.42973802830320695,0.45305115923363704,0.5224980293946404,0.648576381231443,0.677310817162471,0.43842007696150226,0.2485521885062037,0.1542100909301597,0.11558968540882063,0.10744054532036096,0.11581208784521548,0.13191514270150376,0.14840601366420025,0.16437806822095802,0.1750628624344945,0.17777984789011914,0.17695805075912435,0.17497928481724173,0.172133240099902,0.17364657249791607,0.2009390241809667,0.3341353539573051,0.6295411883751606,0.48043448403170025,0.3512924086282612,0.21936347485561036,0.012056869683860048,-0.2931486881514323,-0.5422139333158807,-0.6393382777186558,-0.6523462291431388,-0.6231899156646539,-0.5702632995549202,-0.5042835461085075,-0.43210819191895405,-0.37379986917498154,-0.3491821226324778,-0.36023375570847427,-0.38828459628684325,-0.4120607171471469,-0.41644137762963485,-0.3885151725292066,-0.3195919771782096,-0.20093976416708906,-0.037383510288976615,0.13435915726367761,0.2601404780934029,0.31950744305174805,0.31453710869369633,0.27078116782052647,0.21120621683530824,0.14206488514473026,0.04786728064323049,-0.037128311516749696,-0.07177570848512896,-0.07679274357984131,-0.08422204320445566,-0.10467407775716836,-0.1363447036566013,-0.17191413204311112,-0.20063547848084037,-0.21501662072280836,-0.21171701856894679,-0.193635262905294,-0.15690747418372414,-0.09304277293742103,0.010598241359675716,0.16608938808705354,0.33734999379756125,0.4377365767833909,0.4675183756644956,0.483075925154626,0.503913256591082,0.5188812227830445,0.5106414524069806,0.48148043467258916,0.4452782058955467,0.41491776751234094,0.3951331703975942,0.38502081453290105,0.3822449927636111,0.38323830209588555,0.3843591005182963,0.38872612842562865,0.4153158076159521,0.4539282517885854,0.3810763683767583,0.22186563022311287,0.08328870087716135,-0.031072195681003365,-0.13150971061650094,-0.21919035727494723,-0.2996189043733973,-0.3750023869895348,-0.4397049453461858,-0.48438913768969166,-0.5000276834642571,-0.487394143549597,-0.4635554431544737,-0.4476450137004939,-0.4348187030232641,-0.3994019398210933,-0.32974619933000165,-0.24739633050003784,-0.18151616193140938,-0.13679118314772568,-0.10994669714272638,-0.09836090046218013,-0.09366290185039758,-0.08349165209271454,-0.06074902237732837,-0.022561800483962773,0.03142165588656825,0.09302883056434769,0.1309541845171274,0.10762961765198492,0.01673811013208253,-0.1237599434828892,-0.2640844531714521,-0.3415942132040773,-0.35704670423195717,-0.34187001255309307,-0.307501731833649,-0.25782383710208073,-0.18115567713330463,-0.06764339130649195,0.06429413105124941,0.19268427379998962,0.3075262469374581,0.40875740986356573,0.4940876471719716,0.555459575281563,0.5840423492262147,0.5827679445626878,0.559011460143056,0.5182686097466237,0.46342363216305194,0.3960703652574006,0.3204845873474879,0.24217711222656113,0.17058431799248086,0.11580696567203082,0.07772816655821764,0.04960718161788179,0.023910757352626526,-0.004908888612133109,-0.048302506703020005,-0.13848811776866504,-0.3273454435624837,-0.463188800357992,-0.45841293360105845,-0.4424349474777761,-0.40763325341660017,-0.324498977062472,-0.18061817811133293,-0.0071064593872092975,0.1277865076321545,0.17693166457849024,0.13835788579659822,0.03878784346348003,-0.07283445877676402,-0.15837017786166446,-0.20371831327091555,-0.20841809327892952,-0.17129886750505033,-0.10276059491412198,-0.03177120669272791,0.01113836878372413,0.015780282715956013,-0.004180960873899577,-0.03000338428972051,-0.053226779845491005,-0.06513920376114264,-0.0727004894943987,-0.07860563781931604,-0.0780090153361255,-0.07274069556116314,-0.06671868326242991,-0.05253365718596823,-0.02265916090759061,0.016758665955641818,0.05699511726482875,0.095492419405135,0.1460326121399263,0.2121127729781658,0.29022726698282497,0.3785488444977359,0.476719421173505,0.5017697297970374,0.24386228541648286,0.0716749956350156,0.03655089252816982,0.0684386600364824
