-0.025022728977920166,-0.025294403698473873,-0.025175546990453525,-0.025082159951188742,-0.025591548087783137,-0.02683105974401451,-0.02849506413333295,-0.030040211814631044,-0.030651478626247678,-0.02944592827452933,-0.026109427860134992,-0.02100704438139997,-0.015429234070583575,-0.0106834259544264,-0.007550682890076545,-0.006132883552556251,-0.005988557175780346,-0.006625293656152542,-0.00779688794187469,-0.009426936265196927,-0.011354123739311614,-0.013001150095631953,-0.013952008998311517,-0.014138783076841082,-0.01362939494024669,-0.01271249210356333,-0.011753146803643122,-0.011006040012491227,-0.010241955188341229,-0.008900564857087618,-0.006557376285643319,-0.0029407131818995867,0.0016352994125778046,0.0063980887048431705,0.010575077711137372,0.013487090630961459,0.015032233073742738,0.01559256578636507,0.015448239409589162,0.015100155682768778,0.014896398332724292,0.014845458995213173,0.01475207195594839,0.014769049988946492,0.015490687111342825,0.01719713920241493,0.01971861545514815,0.022333483985662966,0.024320102433046234,0.025423779348259158,0.026018068126877694,0.026917987692046133,0.028581992081364575,0.030611058230501503,0.032173189183314514,0.03242788063235331,0.031103468334097797,0.02843766570458867,0.024625733219596144,0.01971861545514815,0.014140805144331754,0.008681851541535703,0.003978489555577147,0.0003872959110483021,-0.002108710987240367,-0.003934021881739539,-0.005538600012454533,-0.0069309296812192665,-0.007779909908876589,-0.00783084924638771,-0.007177134733017412,-0.006336640902600735,-0.005623495415961858,-0.005215984906686343,-0.004893371372473198,-0.004018919904505271,-0.002329446370282952,-0.0002154813078324321,0.0017286874995459508,0.0027984046818009026,0.002637098176620171,0.001524931721056512,0.00011562166196110942,-0.0011323818919535614,-0.0023888747242931238,-0.0038236541902182462,-0.0057508437597396595,-0.008807177817822835,-0.013315272517939323,-0.018901574464513172,-0.024352036431551767,-0.0283762074253126,-0.030532621918227334,-0.031347640841371635,-0.031237275769108754,-0.030396781938692073,-0.028792208522642217,-0.026763142373505282,-0.024844441296631242,-0.02357945997164431,-0.023019132497538796,-0.02269651843947397,-0.021906969185085227,-0.020242959557249973,-0.017704505271518647,-0.014588745478683711,-0.011472980447331959,-0.008934526161600636,-0.0074233345462987425,-0.006701702662419224,-0.00624325386333595,-0.0054961470721840554,-0.0042141861426439765,-0.002329446370282952,-3.719506713563336e-05,0.0024333423981307317,0.004802001686033953,0.0067886201334172195,0.008401685185224538,0.009760058787993069,0.010982592411226339,0.012069286054924348,0.012952227587094687,0.013699334378246584,0.014539828208663261,0.015719908891626055,0.017265056572924153,0.01903093963726483,0.020907193012385212,0.022961728830277705,0.025534144420522046,0.02864142305463316,0.031502491398429304,0.03299669974221628,0.03242788063235331,0.029804525704597847,0.026060515828631354,0.02229103104539249,0.01903943127302229,0.016271749968490925,0.01402194843631141,0.01227304340496883,0.010982592411226339,0.010218507587076342,0.010040219905787419,0.0101166289120541,0.009870423860255955,0.009046913301354192,0.007798910009365363,0.0065763763861320925,0.005650981913691275,0.004640695180853221,0.003188936110374952,0.0015928501392690978,0.00027692827191217763,-0.0009201360492617085,-0.0024313239976018306,-0.00422267568299471,-0.006260231896334053,-0.008331745747224645,-0.010335347466122828,-0.012262534940237515,-0.014028418004578198,-0.015828257134915084,-0.017925245893078052,-0.020344838232272212,-0.02279839711449621,-0.024878402601144264,-0.02608395819137943,-0.026041510489625764,-0.024555788543079434,-0.021584349888503586,-0.017797897549300248,-0.01481796725896694,-0.013790699350020695,-0.014699110550946595,-0.016804585706350204,-0.019122304609038944,-0.021151370758175872,-0.02267954040647587,-0.023537012269890648,-0.023290807218092503,-0.021796598874305528,-0.019275122621572306,-0.01615087119297991,-0.013145476472407857,-0.010929631006224546,-0.009791998025015416,-0.009443914298195029,-0.009333549225932143,-0.009070360902619081,-0.008280806409713523,-0.006531906616887759,-0.0037217765628993673,-0.00025793037160046635,0.0031125276279599526,0.005948126303000541,0.008410176820981998,0.010931653073715217,0.013410681624694776,0.015694439222870494,0.017995185331077943,0.020457230610542585,0.02308058553829805,0.025610553426788724,0.027868846594725702,0.029515872951046036,0.03044974858221068,0.031077998665342235,0.031578900404695985,0.03191000086000145,0.03236845489760154,0.033158004151990286,0.03391360257889964,0.03404943731991809,0.033344783469036667,0.03192697889299956,0.029940365684133108,0.027232110114353503,0.023742791687425803,0.01985445543468341,0.01613591522747248,0.013122028871142966,0.010821282762935517,0.009242179015641217,0.008163971769183851,0.007450826282544975,0.007017847152217264,0.006559393114617176,0.005667965185206192,0.004054898037992146,0.0016692586216840975,-0.0012257699789217074,-0.004112307991473417,-0.006599823987396981,-0.00861191210353581,-0.010411751233872694,-0.012254043304480057,-0.014274617817859528,-0.016303689205513273,-0.018052588998339034,-0.019156265913551962,-0.01983545009567782,-0.02074386129660372,-0.022501252725186945,-0.02539628237349611,-0.02880069491988286,-0.0317381775084625,-0.03324087224949012,-0.032553196431606805,-0.029182739951216265,-0.023341746555603622,-0.01609993185546879,-0.009571262641972831,-0.005708396057985997,-0.00527541168914147,-0.007550682890076545,-0.011056979350002348,-0.014750049888457717,-0.01815446767336128,-0.020888187673379625,-0.022594639764451727,-0.02319742017882772,-0.023053093802051814,-0.022297500613659278,-0.020888187673379625,-0.01872328678322425,-0.01588768810818366,-0.012593635395542986,-0.009223178915152444,-0.006039496513291468,-0.003212387378601611,-0.0006994011900708049,0.0014400336982907799,0.003358732679758098,0.005090656011140805,0.006601846054887653,0.008019645392407949,0.009437444729928243,0.011025040112980002,0.013122028871142966,0.015753870196139073,0.018402694792650096,0.02068645762934263,0.02242687102492775,0.02353903433738132,0.02403144444097761,0.02390410133571662,0.023309812557098093,0.022511766428435075,0.022223113674883267,0.022970220466035165,0.024837982205398085,0.027181170776842383,0.029227214958977416,0.03036485317870336,0.03040730088045702,0.029515872951046036,0.027478315166151648,0.02415030638751477,0.019812002494412933,0.015363338767565023,0.011984390651417024,0.010405281665605908,0.010303402990583665,0.010744873756668837,0.010727895723670734,0.009683649781726388,0.007688539698585662,0.005099145551491538,0.002399383189024439,-3.235791500176934e-06,-0.0021936090100060993,-0.004434921001834881,-0.006803581337441465,-0.00918073121339878,-0.0115748591223542,-0.013918047693798497,-0.016286705933998356,-0.01895250856350748,-0.021983378191351908,-0.025039707010918268,-0.027603636203921967,-0.029539310075277294,-0.030897683678045827,-0.031653276866438367,-0.031653276866438367,-0.030727887632514363,-0.029012943905684797,-0.026559385023460804,-0.02345211162786651,-0.019368509660837092,-0.014571762207168793,-0.009681627714235716,-0.005657456720474877,-0.0027284678630594156,-0.0007333603991770978,0.0004891736955226851,0.0007693380088122919,-6.266455254310525e-05,-0.0018879756041977815,-0.004426431461484148,-0.007253538500767279,-0.010114606844563428,-0.012720983739320787,-0.014648171213435476,-0.015565074050118836,-0.015514134712607715,-0.014775519557213278,-0.013739760012509575,-0.012304982641991178,-0.009970280467787524,-0.006506436948132199,-0.002151159736697392,0.0023399543111625857,0.006219801023554247,0.009140300340618975,0.011169366489755904,0.012629618767546678,0.013860638788020591,0.014998277007746533,0.015983097214939117,0.016772651707844675,0.017468813922968632,0.018334777422140874,0.019650698084638926,0.021408094751738965,0.023216425517833306,0.02465969452410916,0.025491696718768383,0.02589071978309989,0.026586887236740665,0.027758476283946,0.028972523509938623,0.029244198230492333,0.028140521315279405,0.026264267940159024,0.024413489472311017,0.022613645103457317,0.020423269306029567,0.017944245993566824,0.015490687111342825,0.013402189988937316,0.011763655268374439,0.010430751334361468,0.009208217711128197,0.00814699373618575,0.007187643197748728,0.006338657731574591,0.005549108477185848,0.004759552936576927,0.0037917133816408543,0.002297505037853879,3.921330003199643e-05,-0.0027284678630594156,-0.0056404734489599595,-0.008204402641963657,-0.010394773200874593,-0.0123559219795023,-0.013926539329555955,-0.01481796725896694,-0.01475853628569836,-0.01375674328402449,-0.012440817383009624,-0.011727677134887562,-0.012381391648257859,-0.014308579122372548,-0.01705928239390581,-0.020047699081479763,-0.022586153367211086,-0.024292605458283188,-0.025039707010918268,-0.025150077321697967,-0.02491236390565728,-0.024487871172570213,-0.023817173387685,-0.023027624133296253,-0.02261161779744983,-0.023070071835049916,-0.024615219516348014,-0.02649995928870904,-0.027781918646694076,-0.027951714692225536,-0.027026325458301536,-0.025421752042251673,-0.023511542601135086,-0.021457006783242596,-0.019198713615305625,-0.016813077342107668,-0.014368010095641126,-0.01193142924641523,-0.009206200882154342,-0.006022518480293366,-0.0024652832067081237,0.0010919510191737558,0.004258653292629904,0.006983885847704244,0.009556301437948585,0.012315491106722493,0.015074680775496401,0.017647101604257556,0.019795024461414828,0.02156939916151297,0.023241895186588868,0.025135126594707353,0.027342480425133205,0.02959228195731272,0.03136665665741086,0.03235996326184409,0.03241090259935521,0.031901509224244,0.03134118175013848,0.031128938002853355,0.03126477798238862,0.03128175601538672,0.030857268520816467,0.02989791798237944,0.02828484769205531,0.02557659212227571,0.021722217174046335,0.01720563083817239,0.012850354150589261,0.009564793073706045,0.007849849346876483,0.007510257255813555,0.00797719245213747,0.008520541893244882,0.008579972866513462,0.007900788684387604,0.006330171334333948,0.003868121864055854,0.0009561136588969026,-0.0018370367905383425,-0.004333043374516002,-0.006582845954398879,-0.008518525064271027,-0.010089142414324683,-0.011405063076822736,-0.012542696058031865,-0.013586947238493028,-0.014520822869657673,-0.015522626348365173,-0.016855525043861327,-0.01857046877069089,-0.0206929219590926,-0.0231634588743147,-0.02561701251802188,-0.027510249164657184,-0.028333759723558942,-0.027926250261986793,-0.026449019951197916,-0.024173748750262843,-0.021414559081488933,-0.018553490737692788,-0.016142379557222454,-0.014266131420618885,-0.012865310116096691,-0.012118208563461613,-0.012474778687522642,-0.013943517362554057,-0.015879196472426204,-0.017254548108192838,-0.017585648563498306,-0.017042299122390896,-0.015947113842935425,-0.014410457797394789,-0.01245780065452454,-0.010131590116078346,-0.007550682890076545,-0.004749044471845612,-0.0019474044820596349,0.0003788060563865607,0.0021446880730238795,0.0034181615576199514,0.004284122961385464,0.005234982387916709,0.0068565375039264425,0.009590262742461605,0.01318994624165219,0.016798121376600236,0.019548819409616686,0.020890214979387114,0.020975110382894437,0.02072041369533883,0.021416581148979607,0.023530547940140676,0.026629334938494325,0.029821503737595945,0.03213074148156086,0.03297123007346072,0.032393924566357105,0.031171385704607018,0.029846973406351507,0.028497091439340434,0.02700288309555346,0.02529643100448136,0.023488100238387013,0.02187502994806288,0.020355351935520346,0.01870833081771682,0.017061304461396483,0.015915174605913077,0.015499173508583469,0.015473709078344723,0.015779339864894635,0.016288728001489026,0.01653493305328717,0.016271749968490925,0.015448239409589162,0.013843660755022486,0.011296714833533707,0.0075357216860523,0.0026031389675138777,-0.003127489355835879,-0.00896848222759684,-0.01432555715537065,-0.018774220882218556,-0.02220410833587768,-0.02481048523063504,-0.02696689972354977,-0.028877103926149537,-0.03043922964044574,-0.031390088543125305,-0.03166176850219582,-0.031237275769108754,-0.029980786079879283,-0.028350737756557047,-0.026975386120790413,-0.02619432326364231,-0.025566078419027576,-0.02447089313957211,-0.0223654179841685,-0.01907137051004464,-0.014996254940255863,-0.011124896720511571,-0.008476072124000547,-0.007533704857078443,-0.008399668356250682,-0.0107937962652061,-0.014189722414352204,-0.017806383946540893,-0.020667452290337042,-0.022093743263614796,-0.022119212932370354,-0.021015536017157426,-0.0191138182117983,-0.016626298025061284,-0.01375674328402449,-0.01060701694815972,-0.0073893784803025385,-0.004333043374516002,-0.0014804645710705855,0.0012872167334607803,0.004114326392002318,0.006797111769174679,0.009208217711128197,0.011194836158511466,0.012646596800544778,0.013529538332715118,0.013843660755022486,0.01394553943004473,0.014319087587103863,0.014896398332724292,0.01560954381936317,0.016653789761307516,0.017952732390807465,0.019438454337353802,0.02069494926510009,0.021357155414227846,0.021323194109714824,0.0211279283954278,0.021577885558753614,0.023114546842811067,0.025330392308994375,0.02713023143933126,0.027478315166151648,0.026001084855362778,0.023386221563364774,0.020525153219568625,0.01771501897476678,0.015125625351524336,0.012960719222852147,0.011593859222842973,0.010889205371961556,0.010659978353161511,0.01061753065140785,0.010676956386159614,0.010405281665605908,0.009191239678130098,0.006347149367332049,0.0018390551910672434,-0.003900062672633246,-0.010080650778567225,-0.01577731779740396,-0.020081655147475966,-0.022221091607392593,-0.02192394721808333,-0.019512836037612995,-0.01615087119297991,-0.013035106161628156,-0.010997548376733769,-0.010080650778567225,-0.009919346368793219,-0.010182529453589466,-0.010878691668713426,-0.012084247258948593,-0.013561477569737466,-0.015106620012518748,-0.01627821953675771,-0.01703381272515025,-0.017118708128657574,-0.01632915363575202,-0.014902867900991079,-0.013408659557204106,-0.012449309018767082,-0.01188048990890411,-0.011362615375069073,-0.01115885802502459,-0.011922942849174587,-0.013807677383018796,-0.016244258232244693,-0.0182054070108724,-0.019105326576040842,-0.018833651855487136,-0.017704505271518647,-0.015955605478692885,-0.013765229681265133,-0.011617306824107863,-0.009953302434789422,-0.008815669453580291,-0.00779688794187469,-0.006379088604354396,-0.004358513043271562,-0.0017351586393677821,0.001108930623726902,0.0035455088536943905,0.00513310476059783,0.0058632308994932165,0.005999065640511662,0.006474497711109851,0.007968706054896827,0.010481690671872589,0.013563494398711323,0.016874525144350103,0.02021102555874444,0.02365789628391848,0.02733398878937575,0.030678980839527543,0.03302216941097184,0.03410886829318666,0.034456946781490236,0.03477956607807187,0.03526348454591071,0.0355011979619514,0.03494087048784589,0.033107070052995985,0.029923382412618188,0.02595863715360911,0.021790134544555556,0.017978202059563027,0.014887906696966836,0.012706022535296542,0.01136463220404293,0.010685448021917072,0.010320386262098583,0.009989280568276297,0.009445931127168886,0.008647890237022685,0.007730987400339325,0.006618824087885756,0.005065186342385245,0.0027984046818009026,-7.964415709625168e-05,-0.0031020196870803186,-0.005733865726741558,-0.0076780312338543474,-0.0091043222071321,-0.010420242869630154,-0.011914451213417127,-0.013451107258957765,-0.014690618915189137,-0.015378294733072452,-0.015429234070583575,-0.015259438025052112,-0.01528490769380767,-0.015981075147448447,-0.017848836886811367,-0.020667452290337042,-0.023469094899381423,-0.025319873367229434,-0.025803791835068264,-0.02486991620390362,-0.022900275789518455,-0.020599534919827817,-0.0183327553546502,-0.01606597055095577,-0.013909561296557854,-0.012024816285680013,-0.011167344422265234,-0.011888981544661567,-0.01401143473306328,-0.016490463284042838,-0.0180780586670946,-0.018052588998339034,-0.016312175602753914,-0.013391681524206,-0.010072159142809766,-0.007066764422237712,-0.004689616117835441,-0.002864304699484587,-0.0012257699789217074,0.0007693380088122919,0.003163466965471073,0.005549108477185848,0.007408378580791313,0.008342254211955958,0.008308298145959755,0.007586661023563421,0.006737680795906099,0.006338657731574591,0.006839559470928341,0.008130010464670833,0.009768545185233712,0.01142406317731151,0.013037128229118827,0.014590762307657568,0.016059506221205798,0.017332979181950186,0.01829232972038721,0.01908187897477595,0.020126130155237114,0.022044825993594346,0.025109651687434977,0.028802727464407162,0.032215636885068184,0.03401548125392188,0.0332853577342849,0.030262979742197934,0.02578884110807765,0.02073739696685375,0.01601705328093532,0.012111738995194824,0.009420461458413326,0.007968706054896827,0.007730987400339325,0.008410176820981998,0.009335566054906,0.009717605847722592,0.009021443632598632,0.007213112866504289,0.004445429466566196,0.000981583327652463,-0.0026265897118888555,-0.00569141278647108,-0.008068562662428396,-0.009868407031282098,-0.011277714733044933,-0.012449309018767082,-0.013544494298222548,-0.014784011192970735,-0.016023522849202106,-0.017110221731416932,-0.017806383946540893,-0.018443120426913085,-0.019419448998348212,-0.02093912701089075,-0.02293423709403147,-0.025141585685940507,-0.027365922787881275,-0.02931008305647725,-0.03030339489942729,-0.0297940067628329,-0.027858332891477572,-0.025285912062716413,-0.022688026803716514,-0.02030239053051855,-0.018349733387648302,-0.01708475206266137,-0.01695740371888357,-0.018213898646629856,-0.02063349098582402,-0.023214398211825818,-0.0248359548993906,-0.02476803229036456,-0.02282386678325177,-0.019241161317059288,-0.014384988128639227,-0.009138278273128304,-0.004333043374516002,-0.00048715550453445666,0.0023229747066094396,0.004521837948981196,0.0064065803406006296,0.008189441437939413,0.009887407131770871,0.01133067089952991,0.012154186696948488,0.012298513073724392,0.012137208663950386,0.012213617670217067,0.012901288249583568,0.014115335475576193,0.015728400527383512,0.017723510610524237,0.02029592620076858,0.023530547940140676,0.02695194899655915,0.02973660833408862,0.031086490301099695,0.030704450508283104,0.02921023692597931,0.02781790725721458,0.027367944855371952,0.02787733823048316,0.028624439783118235,0.028845175166160822,0.02794525560099238,0.02596712355084976,0.023343768623094296,0.020482700279298147,0.017545222929235316,0.01474358032019093,0.012442839450500296,0.010727895723670734,0.00939499702817458,0.008096054398674628,0.0064065803406006296,0.00442844986201305,0.0026286081124177567,0.0015079521165033657,0.001176849041939488,0.0012532575243544876,0.0012787266692583666,0.0008712156361311705,-0.00011360341858771271,-0.0015993218029426105,-0.003271815732611783,-0.004783003680951905,-0.0062177841945803905,-0.007711992538367366,-0.009766528356259857,-0.012593635395542986,-0.015785804194644603,-0.019275122621572306,-0.02311251953680358,-0.027026325458301536,-0.030422251607447635,-0.032875810489671635,-0.034166261483414125,-0.03434454916470305,-0.033470099268290164,-0.03163629883344026,-0.02930159665923661,-0.027204613139590456,-0.025795300199310804,-0.025039707010918268,-0.024301091855523833,-0.02279839711449621,-0.02027692086176299,-0.017330957114459516,-0.014979276907257762,-0.013536007900981908,-0.012839840447341133,-0.012338943946504198,-0.011685224194617086,-0.010827752331202305,-0.009715589018748734,-0.008340237382982103,-0.006650763324908102,-0.004613207635420441,-0.002253037887867952,0.00047219409096953876,0.003562488458247537,0.0066442937566413155,0.009581771106704147,0.012213617670217067,0.01432757922286132,0.01600856688369468,0.0176555880014982,0.019591267111370346,0.02183258224630922,0.02412483671875921,0.026391616283936825,0.02873481009389794,0.030993103261834912,0.0329202907359496,0.034151315994940326,0.03428715073595877,0.033107070052995985,0.030848776885059003,0.028233908354544188,0.026366146615181264,0.02586525011434433,0.026485003323201608,0.027232110114353503,0.026977418665314713,0.025330392308994375,0.0229277727642815,0.020610048623075947,0.018631921811450142,0.017069790858637125,0.016034036552450236,0.015473709078344723,0.015159586656037356,0.014887906696966836,0.014251170216594639,0.012816392846076241,0.010549608042381812,0.007697031334343121,0.004623715576300074,0.001558890930162805,-0.001361606815346879,-0.0040613691778139775,-0.0067526419999303445,-0.009690119349993174,-0.013086045499139276,-0.01650744131704094,-0.01947038833585933,-0.021762637569792506,-0.023443625230625865,-0.024606727880590557,-0.025421752042251673,-0.026296201938664557,-0.027484774257384804,-0.029191231586973725,-0.03131368477537543,-0.033249358646730766,-0.03429360982719193,-0.03401344347088076,-0.03261262740487539,-0.030447721276203196,-0.02780738831544963,-0.024997259309164604,-0.022637092704722205,-0.02108345338766665,-0.02018353382249821,-0.019597736679637132,-0.018816673822489034,-0.01768752723852055,-0.01658385032330762,-0.01606597055095577,-0.016006544816204008,-0.01583674877067254,-0.015352825064316894,-0.014452905499148452,-0.013170946141163415,-0.011557875850839283,-0.009893876700037657,-0.00823835870795986,-0.0066422716891506445,-0.0049528002503350516,-0.00292373357734644,-0.0003088692376450738,0.0029512211227792204,0.006542415081619074,0.009955324502280094,0.012663574833542881,0.014599253943415026,0.01601705328093532,0.017103752163150146,0.01769804094176868,0.017927262722051904,0.01802914139707415,0.018249876780116733,0.018861143591733368,0.020041229513212976,0.021459028850733267,0.0229277727642815,0.024362550134799897,0.025848266842829416,0.02750378483490721,0.029439463944779354,0.03144306042516072,0.03283539009392546,0.03305613071548486,0.03183359185373478,0.029541342619801597,0.026926479327803596,0.024303124400048132,0.021391111480224045,0.017995185331077943,0.014497375268392785,0.01147500251482263,0.009488384067439362,0.00858846450227092,0.008520541893244882,0.008698829574533806,0.008418663218222641,0.007374417276278293,0.005667965185206192,0.003630406876460122,0.0015419113256096586,-0.0005805434343470983,-0.0027284678630594156,-0.0049188410412287584,-0.007134681792746935,-0.009138278273128304,-0.010827752331202305,-0.012262534940237515,-0.013391681524206,-0.013968987031309619,-0.01401143473306328,-0.013722781979511474,-0.013476576927713327,-0.013799190985778153,-0.014928337569746642,-0.01669421539557051,-0.01862140810820201,-0.02020051185549631,-0.021363619743977814,-0.021906969185085227,-0.021541902186749923,-0.020013737776966745,-0.017602626596496408,-0.014996254940255863,-0.012805884381344928,-0.011422041109820837,-0.010861713635715323,-0.011379593408067176,-0.01312849320089294,-0.015649969453626157,-0.018044102601098393,-0.01950434964037235,-0.01975904108941114,-0.01895250856350748,-0.017526217590229726,-0.015802787466159523,-0.014019926368820738,-0.0123559219795023,-0.011006040012491227,-0.010046689474054205,-0.00915526154464322,-0.007805379577632149,-0.005589534111448839,-0.002541691689123123,0.0009646037230993167,0.0043350617750449036,0.0073149863030097136,0.009743075516478152,0.011619328891598533,0.013105045599628051,0.014259661852352098,0.014879420299726193,0.015252973695302138,0.015915174605913077,0.017103752163150146,0.018861143591733368,0.020966618747136977,0.023021159803546284,0.024549324213329463,0.025423779348259158,0.026221820238405365,0.027418884192883068,0.028964031874181166,0.03040730088045702,0.031137429638610818,0.03091669425556823,0.029982813385886768,0.028352765062564532,0.0256530063670592,0.02190049961681844,0.0176555880014982,0.013461615723689082,0.009666666510211471,0.006432044770839374,0.003953019886821587,0.002297505037853879,0.0015164416568540981,0.001389094360779659,0.001618319808024658,0.001558890930162805,0.00025994861497386304,-0.002711488258506269,-0.006956399349974827,-0.011439019142818939,-0.015047194277766983,-0.017220586803679817,-0.0182054070108724,-0.018494059764424208,-0.018298794050137183,-0.01789128458856503,-0.01732246547870206,-0.016405562642018697,-0.015055685913524441,-0.013544494298222548,-0.012177634298213376,-0.010946614277739462,-0.009927832766033862,-0.009214687279394985,-0.008747746844554255,-0.008178932973208097,-0.007270521772282196,-0.005810269494491424,-0.0037981845214626856,-0.0017436487035701962,-0.0003682980107365908,-0.000470175847596142,-0.0028303454903782946,-0.00782235761063025,-0.015132094919791122,-0.023715294712662753,-0.03184005618348475,-0.037443330924539886,-0.039115821711098966,-0.03650096365761778,-0.030532621918227334,-0.023044602166294358,-0.015879196472426204,-0.010335347466122828,-0.0066847246294211215,-0.004630187239973588,-0.003484061575303636,-0.002575650898229416,-0.001488954111421318,-4.5684890366273844e-05,0.0016777481620348302,0.0037577541725345616,0.0064065803406006296,0.009547809802191127,0.012807901210318785,0.01560954381936317,0.017426366221214972,0.018300816117627853,0.018547021169425998,0.018759264916711125,0.01942996270159634,0.020830784006118534,0.02266458444096844,0.024625733219596144,0.026468025290203506,0.028165990984034966,0.02966019932782194,0.03095914195732189,0.031714735145714434,0.03155343073594043,0.03039032284745892,0.02839521800283501,0.0259416538820942,0.02329283452409999,0.020423269306029567,0.017154691500661266,0.013758765351515163,0.010659978353161511,0.008444132886978201,0.007348947607522733,0.007026333549457907,0.006737680795906099,0.005820777959222739,0.004224694607375293,0.0022550562883968533,0.0003872959110483021,-0.0012597291880280003,-0.002779406676718855,-0.004502839420047467,-0.006548884649885862,-0.008671343076804389,-0.010471182207141274,-0.011761633200883765,-0.012670044401809667,-0.013357720219692983,-0.013561477569737466,-0.013162454505405959,-0.012245551668722598,-0.011337145706313513,-0.01107395738300045,-0.01199086021968381,-0.014155761109839184,-0.017135691400172494,-0.0200222294127242,-0.021906969185085227,-0.022373904381409144,-0.021278719101953673,-0.018833651855487136,-0.016116909888466893,-0.01418123601711156,-0.013434129225959664,-0.01367184264200035,-0.014291601089374445,-0.0148434369277225,-0.015250951627811468,-0.01567543912238172,-0.01588768810818366,-0.015616013387629956,-0.014469883532146552,-0.012576657362544885,-0.010479673842898734,-0.008841139122335853,-0.008085540695426498,-0.0082128890392043,-0.008832647486578395,-0.009282609888421023,-0.009010935167867317,-0.007873296948141373,-0.005878192103517462,-0.0034076530928886365,-0.0009201360492617085,0.0011683595015887554,0.002781425077247756,0.004343551839247317,0.0062537623280672664,0.008546011562000444,0.011143896821000344,0.013571986034468781,0.015567096117609508,0.017112238560390788,0.01847061216315932,0.02003274311597233,0.021807112577553658,0.023352260258851752,0.024116345083001752,0.024311610797288774,0.024634224855353604,0.02578884110807765,0.027461331894636735,0.02881121910016462,0.029575303924314615,0.029711138665333064,0.029244198230492333,0.027851868561727597,0.02531340903747946,0.021739195207044433,0.017604653902503896,0.01347010735944654,0.009972302535278196,0.007357439243280192,0.005438738166406148,0.0038426527191519756,0.002297505037853879,0.0008287663628224637,-0.0006060131031026588,-0.0020068333599214884,-0.0034501023661973433,-0.005020719192399318,-0.006803581337441465,-0.008459094091002447,-0.009528814940219168,-0.00982595409101162,-0.009673141316995074,-0.009537301337459812,-0.0098853850642802,-0.010657956285670839,-0.011787102869639327,-0.012839840447341133,-0.013451107258957765,-0.01370580394651337,-0.014079352103572501,-0.015064172310765084,-0.016634789660818744,-0.01843462879115563,-0.01997129007521308,-0.020896679309137085,-0.020913657342135187,-0.020030715809964843,-0.01851952943317977,-0.01688099471261689,-0.015539604381363275,-0.014792497590211378,-0.014622701544679916,-0.015429234070583575,-0.01739038284921128,-0.020353329868029672,-0.02362190767339797,-0.026415058646684895,-0.0280705766387627,-0.028291312021805282,-0.027136695769081235,-0.02462370591358866,-0.021151370758175872,-0.017280017776948396,-0.013408659557204106,-0.009732567051746837,-0.006234762227578492,-0.0028303454903782946,0.0004127653702631899,0.0036219168122577083,0.006975394211946785,0.010685448021917072,0.014624723612170588,0.018479103798916777,0.02186653831230542,0.024158792784755412,0.02488892154290921,0.024116345083001752,0.02271552377847956,0.021730703571286977,0.021849560279307317,0.023114546842811067,0.02482099893388317,0.026162394503653593,0.026731213613516568,0.02688403162604993,0.027393414524127514,0.028870644834916383,0.03106951226810159,0.033174987423505206,0.03413433796194222,0.03363343622258847,0.0321222498458034,0.029813017340355304,0.026603865269738763,0.022740993447235118,0.01862343017569268,0.01480301129345951,0.01174667199685952,0.009615732411217165,0.00814699373618575,0.006882007172682002,0.005617025847695071,0.0044029807171091714,0.0032738346569923657,0.0020937497832161215,0.0004891736955226851,-0.0017606283081233428,-0.004749044471845612,-0.007711992538367366,-0.009868407031282098,-0.010963592310737565,-0.011354123739311614,-0.011668246161618982,-0.01232196067498928,-0.013442620861717122,-0.014928337569746642,-0.016388584609020596,-0.017432830550964944,-0.018400672725159425,-0.0197675327251686,-0.021771129205549966,-0.024122809412751724,-0.026304693574422014,-0.028019632062734758,-0.029216701255729286,-0.029743067425321783,-0.02951384564503855,-0.028843147860153337,-0.028062085003005235,-0.027204613139590456,-0.025965096244842268,-0.024182235147503485,-0.022221091607392593,-0.020684430323335144,-0.019742063056413038,-0.019173243946550064,-0.018392181089401965,-0.01693193405012801,-0.01456327580992815,-0.01117583605802269,-0.007100725726750732,-0.002813365885825148,0.0011174201640776346,0.004419960321662317,0.0070008638807023465,0.009029930029839275,0.010812796365694873,0.012595657463033658,0.014344557255859421,0.01571142249438541,0.016348158974757606,0.015949135910426095,0.01436154052737434,0.011721207566620775,0.008664868270020786,0.005914170237004337,0.0038171830503964145,0.0026455877169709032,0.0027389758039390493,0.004309592106289343,0.0074593126797856185,0.011814594605885558,0.01664529812555006,0.02115339806418336,0.025245491666970238,0.02945644197777746,0.034465438417247696,0.04036586802464573,0.04600311454724752,0.049628267715193665,0.04995088701177531,0.04710679146246045,0.042131756327503225,0.0361379344423236,0.02972812193684798,0.023411691232120332,0.017867836987300142,0.0135889693059837,0.010566591313896728,0.008486585827248677,0.006797111769174679,0.005099145551491538,0.0033077938660986583,0.0014739929073970728,-0.00019001179623237614,-0.001777607912676489,-0.0034076530928886365,-0.005453699370430393,-0.008009136927676632,-0.010887183304470884,-0.013688820674998454,-0.015870710075185562,-0.017602626596496408,-0.019096834940283382,-0.020506147880563035,-0.021626802828774064,-0.022042803926103673,-0.021779620841307426,-0.021482476451998158,-0.022229578004633238,-0.024547296907321974,-0.027926250261986793,-0.031177844795840175,-0.033291811587001244,-0.03364838171106228,-0.032273035313812454,-0.029327066327992167,-0.02511611601718495,-0.02030239053051855,-0.015624499784870599,-0.011557875850839283,-0.00860342046777835,-0.0074657874865692204,-0.008679829474045032,-0.011795594505396785,-0.015624499784870599,-0.01869781711446869,-0.020039207445722306,-0.019623206348392694,-0.017933732290318694,-0.015565074050118836,-0.01287380175185415,-0.010360817134878388,-0.008348729018739561,-0.006879990343708147,-0.00538578199992117,-0.0032887953371649294,-0.0006229927076558051,0.001932442754183708,0.003876611404406587,0.005090656011140805,0.005803799926224637,0.006466006075352393,0.007357439243280192,0.008656381872780143,0.010405281665605908,0.012391900112989174,0.014760563591705848,0.017825389285546483,0.021365641811468484,0.02466818615986662,0.026901009659048035,0.02742737582864053,0.026298229244672042,0.024311610797288774,0.022605153467699857,0.022172174337372143,0.023106055207053607,0.02447291520706278,0.025287939368723897,0.02557659212227571,0.026043532557116437,0.02713023143933126,0.028165990984034966,0.0279961949385035,0.026026554524118336,0.022724015414237016,0.018869635227490827,0.01526995172830024,0.01222210406745771,0.009853445827257851,0.007994175723652387,0.006321679698576489,0.00471710366326822,0.0031804465700242196,0.0015928501392690978,-0.00019001179623237614,-0.002363405579389245,-0.004893371372473198,-0.007550682890076545,-0.009732567051746837,-0.011090940654515368,-0.011812572538394886,-0.012347430343744841,-0.013111515167894838,-0.014172744381354102,-0.01523396835629655,-0.016159362828737367,-0.01723756483667792,-0.018791204153733473,-0.020701413594850056,-0.022433335354677723,-0.02342664195911095,-0.023638885706396075,-0.023350232952844264,-0.022654070737720307,-0.021584349888503586,-0.02032786019927411,-0.019317570323325966,-0.018731773180464893,-0.01857046877069089,-0.018774220882218556,-0.019275122621572306,-0.020115616451988984,-0.02093912701089075,-0.02132117204222415,-0.021049497321670444,-0.020209003491253767,-0.018986469868020498,-0.017551687258985288,-0.015802787466159523,-0.01370580394651337,-0.011371101772309716,-0.008909056492845074,-0.006328149266843276,-0.003560470057718636,-0.0007248703349746838,0.0021446880730238795,0.004818981814438781,0.00717065992623381,0.009267648684396777,0.011143896821000344,0.012960719222852147,0.01480301129345951,0.01641607634526683,0.017536731293477856,0.018071589098827813,0.018258368415874193,0.018513059864912983,0.01938751499984268,0.020983602018651897,0.023012668167788825,0.02476156796061459,0.025627536698303647,0.025619045062546184,0.025330392308994375,0.025491696718768383,0.026187864172409155,0.026705738706244195,0.026400107919694285,0.025211530362457216,0.023411691232120332,0.02117886773293892,0.018674369513203802,0.01608497065144454,0.013869130423778048,0.012510756821009519,0.012035329988928143,0.012120225392435468,0.012069286054924348,0.01142406317731151,0.010184546282563323,0.008826177918311608,0.007637600361074541,0.006627315723643213,0.005413268497650587,0.003664366085566415,0.0011683595015887554,-0.001896465144548514,-0.004910350977026344,-0.007279008169522839,-0.00896848222759684,-0.010216485519585669,-0.011405063076822736,-0.01287380175185415,-0.014648171213435476,-0.01643952394653172,-0.017950710323316795,-0.019300592290327868,-0.020608026555585274,-0.021711698232281387,-0.02239088765292406,-0.022416357321679622,-0.021779620841307426,-0.020667452290337042,-0.019164757549309422,-0.017254548108192838,-0.015089641979520646,-0.013060575830383718,-0.01154938945359864,-0.010666447921428299,-0.010454204174143172,-0.011277714733044933,-0.013417145954444749,-0.016600828356305723,-0.01975904108941114,-0.021592841524261042,-0.021533415789509278,-0.01983545009567782,-0.01744981382247986,-0.015030216244768881,-0.012559679329546781,-0.010097628811565326,-0.007762931875878487,-0.005699904422228539,-0.0040613691778139775,-0.002736957403410148,-0.001522913320527611,-0.0002494405693238931,0.0012787266692583666,0.0030106500006410737,0.004818981814438781,0.00672918916014864,0.008707321210291264,0.010727895723670734,0.012765453508565122,0.014480397235394684,0.015677461189872392,0.01653493305328717,0.017604653902503896,0.019243188623066773,0.02122980707045004,0.023106055207053607,0.024736103530375843,0.026417085952692387,0.028403709638592466,0.030670489203770086,0.03273351665742003,0.034006989618164424,0.03397303355216822,0.032529759307375554,0.03005073075639599,0.026807617381266434,0.023029646200786926,0.019132818312287074,0.01555011284609459,0.012391900112989174,0.00975156715223561,0.007824379678120923,0.006737680795906099,0.006143392017287566,0.005413268497650587,0.004258653292629904,0.0028153842863540487,0.0012702371289076341,-0.00030037948775366876,-0.0021341801321442455,-0.004358513043271562,-0.00697337738297293,-0.009707097382991277,-0.012033307921437473,-0.013620903304489231,-0.014614215147439272,-0.015191520654542887,-0.015335847031318793,-0.0149538072385022,-0.014283109453616986,-0.013884091627802292,-0.014249153387620781,-0.01567543912238172,-0.018137489640363175,-0.021227779764442553,-0.024139787445749825,-0.02615187556188865,-0.027102734464568214,-0.027051795127057097,-0.025837753139581282,-0.023774725685931336,-0.021236271400200013,-0.018612916472444552,-0.01657535868755016,-0.01567543912238172,-0.015964091875933527,-0.017458300219720505,-0.01997129007521308,-0.02278141908149811,-0.02486142456814616,-0.02564248742529426,-0.025158568957455427,-0.023851134692198017,-0.02228051734214436,-0.02098157471264441,-0.020090146783233426,-0.01952132767337045,-0.01893553053050938,-0.01767903560276309,-0.015081155582280003,-0.010921144608983902,-0.0057508437597396595,-0.00024095071466215178,0.005014247528725806,0.009632710444215268,0.013495577028202099,0.016789629740842776,0.019761068395418628,0.022511766428435075,0.02515210462770545,0.0278858246277238,0.03092518589132569,0.03456732233078676,0.03850659792104027,0.042131756327503225,0.04488245436051967,0.04652099431959937,0.047132261131216005,0.047132261131216005,0.04683511674190674,0.0460625455205161,0.044356088190927186,0.04142709723810499,0.03743687707182355,0.03297123007346072,0.028480113406342336,0.023802222660694383,0.018929060962242592,0.01431060118986322,0.01053263000938371,0.008019645392407949,0.006466006075352393,0.0054642078351617085,0.00453032801318361,0.0034181615576199514,0.0020428104457050006,0.00027692827191217763,-0.0020747517781340738,-0.004995249523643758,-0.008391176720493224,-0.01195689891517079,-0.014962298874259658,-0.01692344241437055,-0.017509239557231625,-0.01702532108939279,-0.01612540152422435,-0.015420747673342932,-0.015166050985787327,-0.01528490769380767,-0.01536131670007435,-0.015166050985787327,-0.014834945291965041,-0.015047194277766983,-0.015845235167913186,-0.016736668335840983,-0.017246056472435375,-0.017135691400172494,-0.016558380654552063,-0.015743356492890943,-0.014970785271500302,-0.014588745478683711,-0.015021724609011425,-0.015964091875933527,-0.01693193405012801,-0.017534709225987186,-0.017942223926076153,-0.01896100019926494,-0.020837248335868502,-0.02279839711449621,-0.02355399030288875,-0.022560683698455524,-0.020268429226005535,-0.017560178894742744,-0.015225481959055905,-0.013493554960711428,-0.012245551668722598,-0.011192814091020794,-0.00998726373930244,-0.008144971668695078,-0.005521616740939616,-0.002210588614559246,0.001431543634088366,0.004903879837204513,0.007849849346876483,0.01015059021656712,0.01174667199685952,0.0126975361380559,0.013223902307648394,0.013580477670226241,0.013962517463042832,0.014437949533641022,0.015337869098809465,0.016984895455129802,0.019090370610533414,0.02106849742215922,0.02237593168741663,0.02278344114898878,0.022681567712483353,0.022791932784746238,0.023827692329449944,0.025924675849096093,0.028556522412609014,0.031145916035851456,0.032886334669953395,0.0329202907359496,0.030857268520816467,0.026850070321536912,0.02164580816777965,0.016237788663977907,0.011534428249574393,0.007994175723652387,0.005659473549448734,0.004207715002822146,0.0031464873609179265,0.0020852597190137074,0.0010579918100674626,0.00024296895803554844,-0.0001305830755260273,-0.0003088692376450738,-0.0008946669043578297,-0.002210588614559246,-0.003976470631196564,-0.005674434753472978,-0.007032808356241509,-0.008060076265187755,-0.009070360902619081,-0.010437220902628254,-0.012313474277748636,-0.014317070758130006,-0.01612540152422435,-0.017475283491235418,-0.018298794050137183,-0.019173243946550064,-0.02063349098582402,-0.022662562373477763,-0.02486991620390362,-0.026550893387703344,-0.027179143470834898,-0.02636411930917378,-0.023978483035975818,-0.020438225271536995,-0.0165329109857965,-0.012941719122363372,-0.010021219805298645,-0.007949705954408052,-0.00697337738297293,-0.0076186054991025836,-0.009910854733035759,-0.013179432538404059,-0.016286705933998356,-0.01832426371889274,-0.01871479514746679,-0.01767903560276309,-0.015599030116115038,-0.013306780882181861,-0.011320162434798596,-0.009910854733035759,-0.008883586824089514,-0.007737462207122926,-0.006014026844535907,-0.0036114088713780747,-0.0006739315213152445,0.0025352200254496102,0.0053962904646524855,0.007629113963833898,0.009114830671863415,0.010031733508546775,0.010821282762935517,0.011712715930863316,0.012807901210318785,0.01432757922286132,0.01639909831226873,0.018920574565001947,0.021798620941796198,0.02490589957590731,0.02797072526974794,0.030458245456484956,0.03219016721631262,0.03347213181281447,0.03477107444231442,0.03621434344859027,0.0374114126415848,0.03762365638886993,0.03649450980490144,0.03421074696820891,0.031137429638610818,0.02733398878937575,0.02288531982401102,0.01820742907836307,0.013903091728291067,0.010422264937120824,0.007807396406606006,0.005752860588713517,0.004054898037992146,0.0025437100896520243,0.0011259102282800484,-0.0004277267314429396,-0.0022869970969742453,-0.00432455383416527,-0.005886678500758105,-0.006769620032928445,-0.007066764422237712,-0.007245052103526635,-0.008102523966941416,-0.010072159142809766,-0.013018128128630055,-0.016312175602753914,-0.019224183284061183,-0.02138059777697592,-0.022637092704722205,-0.023104033139562937,-0.022857828087764792,-0.02220410833587768,-0.021669250530527723,-0.021584349888503586,-0.022144682601125915,-0.023282315582335043,-0.024785015561879477,-0.026482976017194123,-0.02769702324318675,-0.028053593367247776,-0.027348939516366362,-0.025506647445759,-0.022543700426940604,-0.019054387238529723,-0.01606597055095577,-0.014682132517948494,-0.015115111648276208,-0.016634789660818744,-0.0182054070108724,-0.019258144588574205,-0.01947038833585933,-0.018544999101935328,-0.01648197164828538,-0.013510538232226347,-0.010148568149076446,-0.006718680695417325,-0.0032887953371649294,4.7703123262636914e-05,0.0031125276279599526,0.005667965185206192,0.007408378580791313,0.008113032431672731,0.007866827379874586,0.00709425091996713,0.006746172431663558,0.007722501003098681,0.010235485620074442,0.013784235020270723,0.017146199864903806,0.019421471065838882,0.02068645762934263,0.02190049961681844,0.02400597477222205,0.027257579783109064,0.03109498193685715,0.0345927867610255,0.03719916365578286,0.03895655508436608,0.03996685019883104,0.03993288889431802,0.03862545462906061,0.0361379344423236,0.032801434027929254,0.029065910549203405,0.025211530362457216,0.020881723343629654,0.015898196572914976,0.010957122742470779,0.00711972058872269,0.00548118586815981,0.006279231996822826,0.00847809419149122,0.01049866870487069,0.011245775496022587,0.010651486717404053,0.009089361003107855,0.007221599263744931,0.005506655536915371,0.004003959224332707,0.0025352200254496102,0.000726888735503585,-0.0015483829892831713,-0.004290594101207296,-0.007015825084726591,-0.00952032330446171,-0.011872003511663466,-0.013977478667067075,-0.01568393075813918,-0.01700834305639469,-0.018375203056403864,-0.020293904133277908,-0.02278141908149811,-0.0255236254787571,-0.028036615334249677,-0.029666658419055095,-0.030023233781632942,-0.02906388324319592,-0.027026325458301536,-0.024139787445749825,-0.020871209640381524,-0.01788279295280757,-0.015616013387629956,-0.014138783076841082,-0.013196415809918977,-0.012856818480339233,-0.013561477569737466,-0.015624499784870599,-0.01857046877069089,-0.021440028750244495,-0.023121011172561035,-0.02319742017882772,-0.022034312290346213,-0.020124102849229625,-0.01774695297327231,-0.015174542621544785,-0.012568165726787425,-0.010123098480320886,-0.008051584629430295,-0.006149866824071168,-0.003934021881739539,-0.0012257699789217074,0.0017117073711411226,0.0043944906529067565,0.006601846054887653,0.008359237483470876,0.009963810899520737,0.011542919885331853,0.01307957593087249,0.014446441169398479,0.015651991521116834,0.01676416007208722,0.01810555040334083,0.019930864440950092,0.022248583343638828,0.024481406842820238,0.026187864172409155,0.027350966822373847,0.028403709638592466,0.029745099969846082,0.0313581650216534,0.032775964359173695,0.033480623448571924,0.03320045185374395,0.03211376344856275,0.0303393835099478,0.027699050549194235,0.02401446640797951,0.019540327773859223,0.015176564689035457,0.011576881189844871,0.009165770009374536,0.007764948704852344,0.006839559470928341,0.0060754746467783435,0.005099145551491538,0.003910570613512879,0.00258615883910905,0.0011513793731839272,-0.0002918896330919274,-0.0018625064592939025,-0.0037217765628993673,-0.006132883552556251,-0.008858117155333954,-0.011388085043824632,-0.013153968108165316,-0.013985965064307718,-0.013892578025042936,-0.013323758915179966,-0.012822862414343031,-0.01278890110983001,-0.013145476472407857,-0.013765229681265133,-0.014707602186704055,-0.016167849225978012,-0.018018627693826016,-0.019860919764433382,-0.021049497321670444,-0.02112590632793713,-0.020005246141209285,-0.018239368315385418,-0.016634789660818744,-0.015531112745605816,-0.014911359536748537,-0.014461397134905908,-0.014334048791128106,-0.014970785271500302,-0.016736668335840983,-0.01913928788055386,-0.02139757580997402,-0.02278141908149811,-0.02290876742527591,-0.02187300788057221,-0.01988638943318894,-0.01733944351170016,-0.014639679577678017,-0.01198236858392635,-0.009486361999948692,-0.007066764422237712,-0.004757534536048026,-0.002473773270910538,-0.0001730321916792297,0.0021446880730238795,0.00445391953076861,0.006661271789639417,0.008995973963843072,0.011653284957594736,0.014471905599637224,0.016916978084620577,0.018436656097163114,0.018759264916711125,0.01844514249440376,0.0184196728256482,0.019107348643531512,0.020482700279298147,0.022214627277642625,0.023844670362448046,0.025279452971483256,0.02688403162604993,0.02905741891344595,0.031706243509956974,0.034185277299453344,0.03572193334499398,0.03593418233079593,0.034652217734294076,0.032241106553823735,0.028930070569668148,0.024787042867886966,0.020380821604275904,0.016424567981024287,0.01347010735944654,0.011712715930863316,0.010846752431691076,0.010243977255831902,0.00928462671739488,0.007654583632589458,0.005404776861893129,0.0029512211227792204,0.0005570921661204392,-0.0018115671217827818,-0.004265124956303416,-0.006769620032928445,-0.009325057590174686,-0.011838042207150448,-0.01419821405010966,-0.016371606576022494,-0.018341241751890846,-0.020013737776966745,-0.02110892305642221,-0.02142304547872958,-0.02111741469217967,-0.020735369660846263,-0.021041005685912988,-0.0223823960171666,-0.024352036431551767,-0.026109427860134992,-0.027094242828810757,-0.027221591172588558,-0.026440528315440456,-0.024598236244833097,-0.022051295561861133,-0.01939397932959265,-0.017161155830411237,-0.015378294733072452,-0.013943517362554057,-0.01279739274558747,-0.012304982641991178,-0.012449309018767082,-0.012933227486605916,-0.013349228583935524,-0.01370580394651337,-0.013968987031309619,-0.014079352103572501,-0.013833152290291173,-0.013230371875915182,-0.012381391648257859,-0.01115036638926713,-0.009325057590174686,-0.006964885747215471,-0.004180226933537684,-0.0010389938049854151,0.002017341300801122,0.004564286698438221,0.006270740361065368,0.00720462123074683,0.0075696829905653185,0.007739479036096784,0.007909275081628248,0.008231889139693074,0.00886862562006527,0.01006568957454298,0.01196741261841892,0.014675662949681707,0.018037633032831606,0.021408094751738965,0.024141814751757314,0.02577185783656273,0.02662084330273687,0.027435862225881173,0.028964031874181166,0.031213838644877496,0.03343817574681827,0.03456732233078676,0.0341003766574292,0.03229204589133486,0.029617751626068282,0.026060515828631354,0.021798620941796198,0.017358443612188936,0.013478598995203999,0.010609039015650391,0.008766746945043029,0.007798910009365363,0.00720462123074683,0.0065763763861320925,0.005735882555715415,0.004521837948981196,0.002781425077247756,0.0003872959110483021,-0.0028812843040377334,-0.006854520674952586,-0.011099427051756011,-0.01500474657601332,-0.017993163263587273,-0.019674145685903817,-0.020098638418990882,-0.019529814070611096,-0.01827332438138162,-0.016830055375105766,-0.015378294733072452,-0.014002948335822636,-0.01289927142060971,-0.012245551668722598,-0.012092738894706053,-0.012203103966968935,-0.012423839350011522,-0.01239836968125596,-0.011617306824107863,-0.009808976058013518,-0.007083742455235814,-0.004290594101207296,-0.002244547823665538,-0.001370096879549293,-0.0018540163950914888,-0.0035859392026225145,-0.006463989246378536,-0.010411751233872694,-0.015386786368829912,-0.020514634277803676,-0.02442844019930163,-0.02594811821184417,-0.02462370591358866,-0.02114288436093523,-0.01671119866708542,-0.012194617569728292,-0.008323259349984001,-0.005377290364163712,-0.0032887953371649294,-0.001607811343293343,0.0001835402373291996,0.0022465662241944392,0.0044029807171091714,0.006338657731574591,0.007688539698585662,0.008282828477204195,0.008096054398674628,0.007629113963833898,0.007620622328076439,0.008461116158493117,0.009861937463015311,0.01147500251482263,0.013105045599628051,0.014658684916683607,0.016178362929226142,0.01779991961679092,0.019506371707863023,0.021110945123912882,0.02242687102492775,0.02371732201867024,0.025287939368723897,0.02700288309555346,0.028182969017033065,0.028191460652790528,0.0270877837375776,0.0252709613357258,0.02320793388207585,0.02072041369533883,0.017630123571259454,0.014208722514840975,0.011084471086248581,0.00878372497804113,0.007518743653054198,0.007247068932500492,0.007382908912035752,0.0071112341914820465,0.0060669830110208845,0.0043350617750449036,0.002399383189024439,0.000718398671301171,-0.0007418499395278303,-0.002185119469655367,-0.003781204916909539,-0.005521616740939616,-0.007542196492835902,-0.009664649681237614,-0.011430532745578295,-0.012653066368811566,-0.013315272517939323,-0.013739760012509575,-0.014138783076841082,-0.01475853628569836,-0.01568393075813918,-0.016982873387639128,-0.01862140810820201,-0.020404269205540792,-0.02181357690730363,-0.022730479743986988,-0.02332476852260552,-0.02358795160740177,-0.023409663926112847,-0.022560683698455524,-0.021278719101953673,-0.020056185478720404,-0.019241161317059288,-0.018782712517976013,-0.018680833842953774,-0.018994961503777955,-0.01980998042692226,-0.020811778667112944,-0.021193823698446353,-0.020472186576050013,-0.018850629888485237,-0.01703381272515025,-0.015335847031318793,-0.013663351006242892,-0.011897473180419027,-0.009953302434789422,-0.00777141827311913,-0.005487660674943412,-0.0029661823268034657,-0.0002154813078324321,0.002637098176620171,0.005421760133408046,0.00806209309416161,0.010490182307630047,0.012739983839809562,0.01464170164516869,0.01600856688369468,0.016670773032822436,0.016696242701577994,0.016365137007755708,0.016254771935492823,0.016950934150616784,0.018776248188226045,0.021637316532022194,0.02490589957590731,0.027987703302746043,0.0303393835099478,0.03179114415198111,0.03244486390386823,0.032529759307375554,0.032173189183314514,0.031256286346631156,0.029779056035842286,0.02778394595270156,0.02537284001074804,0.022494788395436973,0.0193280840265741,0.016220810630979802,0.013622925371979901,0.011551411521089312,0.00972609748348005,0.007968706054896827,0.006296210029820928,0.004818981814438781,0.003740774567981415,0.0032059157149280986,0.0031974261745773658,0.003070078878502927,0.002110729387769268,9.864205740796297e-05,-0.0028218554261758805,-0.006031004877534009,-0.009036404836622876,-0.011498450116087518,-0.013468090530472683,-0.015089641979520646,-0.016371606576022494,-0.017110221731416932,-0.01744981382247986,-0.017806383946540893,-0.018731773180464893,-0.020548595582316698,-0.022866314485005434,-0.02475105425736646,-0.025506647445759,-0.025056690282433184,-0.02391905206270724,-0.022484274692188843,-0.02062500458858338,-0.018383689453644506,-0.01612540152422435,-0.014317070758130006,-0.013103028770654194,-0.012304982641991178,-0.011795594505396785,-0.011685224194617086,-0.012372900012500401,-0.013748251648267032,-0.015183029018785429,-0.016023522849202106,-0.016057484153715128,-0.015378294733072452,-0.014189722414352204,-0.01276343144107445,-0.011362615375069073,-0.010437220902628254,-0.010080650778567225,-0.009970280467787524,-0.00952032330446171,-0.008263828376715422,-0.00569141278647108,-0.0015653625938363176,0.0037662442367369757,0.009386505392417121,0.014378518560372441,0.01823289874711863,0.020584578954320386,0.02143355918197771,0.020992088415892538,0.019701637422150045,0.018487595434674233,0.01814799810509449,0.018895104896246386,0.020542131252566726,0.022554219368705553,0.024481406842820238,0.026255781542918383,0.028115051646523843,0.03062804150201642,0.03361645818959037,0.036180382144077254,0.03729255593356446,0.03641810079863476,0.03370984522885516,0.03003375272339789,0.026001084855362778,0.02195993059008702,0.01815648974085195,0.014981298974748434,0.01274847547556702,0.011627815288839176,0.011415571541554051,0.011568389554087413,0.01144104121030961,0.010710917690672632,0.009378013756659663,0.0075781746263227775,0.005472699470919167,0.003019140064843488,0.0003193773356802119,-0.0026945086539531225,-0.0058951701365155635,-0.008849625519576496,-0.011345632103554156,-0.013578455602735568,-0.015845235167913186,-0.018315772083135284,-0.02071839162784816,-0.022501252725186945,-0.023273823946577586,-0.023494564568136984,-0.02369831667966465,-0.024301091855523833,-0.02527742566547577,-0.026279223905666452,-0.02696689972354977,-0.027153673802079337,-0.026822568108257047,-0.025795300199310804,-0.023953013367220256,-0.0216013331600185,-0.019096834940283382,-0.016549894257311418,-0.013943517362554057,-0.011345632103554156,-0.009248648583908003,-0.008323259349984001,-0.008722277175798694,-0.010191015850830109,-0.012007838252681912,-0.01323886351167264,-0.013264333180428198,-0.012203103966968935,-0.010505143511654293,-0.008569464401782146,-0.006905460012463707,-0.006336640902600735,-0.007168643097259953,-0.008730768811556152,-0.01026742485709679,-0.011303184401800493,-0.011456002414333855,-0.010471182207141274,-0.008510033428513567,-0.005844230799004442,-0.002618100171538123,0.0007014190667480245,0.003528529249141244,0.005268942120874684,0.006024535309267222,0.006627315723643213,0.008197927835180056,0.011670268229109654,0.017137713467663164,0.023929571004472183,0.030746898210036764,0.036519979473657,0.040866769763999486,0.044211761814151276,0.047276587507991914,0.04986598636975117,0.05134321668054004,0.051020602622475215,0.04866891717675664,0.04427119278741986,0.03770006539513661,0.029422485911781253,0.020576092557079744,0.012943741189854044,0.007671561665587561,0.00479351214568322,0.0038171830503964145,0.003562488458247537,0.0031719565058218055,0.002076770178662975,0.00015807077811431182,-0.0023379359106336845,-0.005088637086760222,-0.007669539598096888,-0.009630688376724594,-0.010539099577650497,-0.010564569246406056,-0.010275916492854248,-0.010046689474054205,-0.010258938459856147,-0.011116410323270928,-0.012678536037567125,-0.014588745478683711,-0.016142379557222454,-0.016787607673352106,-0.016600828356305723,-0.01632915363575202,-0.01687250307685943,-0.018612916472444552,-0.021100431420664752,-0.023282315582335043,-0.024326566762796206,-0.023936035334222158,-0.02232296504389802,-0.02020051185549631,-0.01815446767336128,-0.016346136907266932,-0.014614215147439272,-0.013052084194626256,-0.01190595957765967,-0.011999351855441268,-0.013620903304489231,-0.01643103231077426,-0.019266636224331665,-0.021091945023424107,-0.02151643251799436,-0.02071839162784816,-0.018850629888485237,-0.015955605478692885,-0.012075755623191135,-0.00779688794187469,-0.004078348782367124,-0.001370096879549293,0.0005995414394291459,0.0023824035844712925,0.00432657223469417,0.00642355837359873,0.008325276178957858,0.009794014853989272,0.010710917690672632,0.011373123839800388,0.012026838353170685,0.012706022535296542,0.013342759015668738,0.01383516911926503,0.014539828208663261,0.015728400527383512,0.017417874585457512,0.01937902336408522,0.021297724440959263,0.0229277727642815,0.024294632764290672,0.025619045062546184,0.027045336035823937,0.02866689272338872,0.030084692060909007,0.030560118892990387,0.029677177360820046,0.027851868561727597,0.02589071978309989,0.024269163095535114,0.022681567712483353,0.020805314337362973,0.01864040820869078,0.016509463384531613,0.014887906696966836,0.013648395040735463,0.012510756821009519,0.011143896821000344,0.009479892431681906,0.007467804315543077,0.00486992062809822,0.0015164416568540981,-0.0023464259748360986,-0.006149866824071168,-0.009240156948150545,-0.011456002414333855,-0.012856818480339233,-0.01368033427775781,-0.01437649649288177,-0.015352825064316894,-0.016609319992063182,-0.017916754257320592,-0.01907137051004464,-0.019733571420655578,-0.019843941731435277,-0.019682632083144455,-0.019860919764433382,-0.0206759439260945,-0.02202582589310557,-0.023358724588601727,-0.024326566762796206,-0.024615219516348014,-0.024071870075240604,-0.022806888750253673,-0.021253249433198115,-0.019996759743968643,-0.019300592290327868,-0.018918552497511277,-0.01867234744571313,-0.018748751213463,-0.019292100654570408,-0.020073163511718506,-0.02061651295282592,-0.020370307901027774,-0.01906287887428718,-0.016779116037594646,-0.013459598894715225,-0.009511831668704252,-0.005818761130248882,-0.0029322231176971726,-0.0011493614965067077,-0.00041923687678119823,-0.0001730321916792297,9.01522027462216e-05,0.0007948071537161707,0.002136198532673147,0.004088857247098439,0.00626224872530791,0.008452624522735661,0.010804304729937417,0.01341916802193542,0.015940649513185454,0.017961224026564925,0.019192249285555654,0.019812002494412933,0.0202534732604981,0.020796822701605516,0.021560907525755513,0.022681567712483353,0.024107858685761107,0.025610553426788724,0.02700288309555346,0.028497091439340434,0.03007620042515155,0.03128175601538672,0.03144306042516072,0.03040730088045702,0.028488605042099793,0.02610296353038502,0.023496586635627658,0.020559109285564824,0.017315995910435273,0.014098357442578091,0.011228797463024484,0.009148791976376434,0.007798910009365363,0.007043311582456008,0.0065763763861320925,0.006194331354798687,0.005583064543182052,0.004555797158087489,0.0030276296051942203,0.0010749714146206092,-0.0009625853225704154,-0.0030595704137716118,-0.005309372993654489,-0.007593135830347023,-0.009741058687504295,-0.01162579845986532,-0.013196415809918977,-0.014520822869657673,-0.01577731779740396,-0.016864016679618787,-0.01783185361529645,-0.018561977134933433,-0.019232674919818647,-0.020030715809964843,-0.021024027652914886,-0.022034312290346213,-0.022959701524270217,-0.02386811272519612,-0.024717098191370256,-0.02495481160741094,-0.02368983028242401,-0.0206929219590926,-0.0165159329527984,-0.012423839350011522,-0.009571262641972831,-0.008391176720493224,-0.008764730116069172,-0.010352325499120931,-0.012338943946504198,-0.01367184264200035,-0.01399445670006518,-0.01351902462946699,-0.012754945043833807,-0.011855020240148548,-0.0107937962652061,-0.009622201979483951,-0.008459094091002447,-0.0074233345462987425,-0.006447005974863619,-0.0052244744470370755,-0.0035944287429732474,-0.0015823421983894642,0.0008966847810350493,0.0038596317998534405,0.007196129594989371,0.010541121645141168,0.0133682286844243,0.01555860448185205,0.017332979181950186,0.0186573914802057,0.019362045331087117,0.01948090203910746,0.019336575662331556,0.019005475207026088,0.018784734585466686,0.018844165558735266,0.019056409306020393,0.019421471065838882,0.020049721148970433,0.02128074640796116,0.023411691232120332,0.026187864172409155,0.028853666801918285,0.030466731853725604,0.030729920177038666,0.029804525704597847,0.027936763965234923,0.02492287760890541,0.02081380597312043,0.015949135910426095,0.011237283860265127,0.0075357216860523,0.005158574429353391,0.0038935910089597328,0.0033672227439605117,0.003019140064843488,0.002229586619641293,0.000726888735503585,-0.0015483829892831713,-0.004400961792728588,-0.007635583532100684,-0.010946614277739462,-0.013612411668731773,-0.01536131670007435,-0.01644801558228918,-0.017212100406439175,-0.017585648563498306,-0.01767903560276309,-0.017594140199255766,-0.017186630737683613,-0.01658385032330762,-0.015981075147448447,-0.015463195375096592,-0.015191520654542887,-0.015157564588546684,-0.015301885726805773,-0.015437725706341034,-0.01528490769380767,-0.014622701544679916,-0.013094537134896736,-0.010980570343735667,-0.00896848222759684,-0.00779688794187469,-0.007576152558832105,-0.008221380674961759,-0.009605218707969035,-0.011948412517930147,-0.015259438025052112,-0.0190034479010186,-0.02192394721808333,-0.022993662828783238,-0.02201733425734811,-0.019538305706368553,-0.016210296927731675,-0.012389883284015317,-0.008408154753491326,-0.004562268821761002,-0.0010814425544424405,0.0016777481620348302,0.0033417530752049515,0.003986979619779561,0.0038002029219915867,0.0033077938660986583,0.002993670396087927,0.003282324197343098,0.004165265729513439,0.005693434853961752,0.008011153756650489,0.01058356934689483,0.012841862514831803,0.014582275910416925,0.015872726904159418,0.01720563083817239,0.01891208292924449,0.021297724440959263,0.02413332311599985,0.026586887236740665,0.0279961949385035,0.028182969017033065,0.027597171874171992,0.026816109017023894,0.025984106822364673,0.024795529265127608,0.02322491191507395,0.021722217174046335,0.020380821604275904,0.01909886224629087,0.017596162266746436,0.01562652185236127,0.013266350009402055,0.010880713736204096,0.008987482328085612,0.007722501003098681,0.007085764522726487,0.006882007172682002,0.006882007172682002,0.0069329465101931245,0.006627315723643213,0.005812291561982096,0.004369020984151197,0.002390893124822025,-0.0001730321916792297,-0.003161448564942172,-0.006489458915134096,-0.009944816037548779,-0.013323758915179966,-0.016363114940265034,-0.01869781711446869,-0.01997129007521308,-0.020115616451988984,-0.019538305706368553,-0.018791204153733473,-0.018451612062670545,-0.018748751213463,-0.019801494029681614,-0.021049497321670444,-0.021720189868038847,-0.02146549318048324,-0.02032786019927411,-0.018298794050137183,-0.01581127910191698,-0.013697312310755912,-0.012593635395542986,-0.012500248356278203,-0.012924741089365272,-0.013468090530472683,-0.013968987031309619,-0.014588745478683711,-0.015717886824135382,-0.017526217590229726,-0.019665654050146354,-0.021287210737711136,-0.021643780861772162,-0.020404269205540792,-0.017662057569764987,-0.014062374070574401,-0.010292894525852352,-0.00702431672048405,-0.004621697175771173,-0.003017121664314586,-0.001820057185985196,-0.0006569519167620981,0.0007693380088122919,0.0025946489033114636,0.004615226035949342,0.006593354419130195,0.00847809419149122,0.010235485620074442,0.011687246262107756,0.012417369781744736,0.01230700470948185,0.011780633301372538,0.011661776593352196,0.012841862514831803,0.015363338767565023,0.018368733488137074,0.020958132349896335,0.022681567712483353,0.023802222660694383,0.024990794979414633,0.027113253406333162,0.03009318369666647,0.03299669974221628,0.034652217734294076,0.034465438417247696,0.03264012437963843,0.029498894918047937,0.025355856739233122,0.020601556987318487,0.0160764842542039,0.01272300580681146,0.011271245164778147,0.011517450216576292,0.012366430444233613,0.012680552866540983,0.012094755723679908,0.01069393965767453,0.008724299243289366,0.006601846054887653,0.004292612501736197,0.0017201974353435367,-0.0010644629498892941,-0.0039679810908458315,-0.006812072973198924,-0.009299587921419125,-0.011107918687513468,-0.012220081999967039,-0.012856818480339233,-0.013077553863381818,-0.013069067466141174,-0.013077553863381818,-0.01370580394651337,-0.015471681772337235,-0.01825634634838352,-0.02137210614121846,-0.02404640040648504,-0.025625509392296155,-0.02592264854308861,-0.02493783357441284,-0.02269651843947397,-0.01942794063410567,-0.015964091875933527,-0.01323886351167264,-0.011795594505396785,-0.011634284857105964,-0.012423839350011522,-0.013985965064307718,-0.01625274986800215,-0.018612916472444552,-0.020438225271536995,-0.02138059777697592,-0.021346636472462897,-0.020285412497520448,-0.018086550302852056,-0.0149538072385022,-0.01151542814908562,-0.008560972766024688,-0.006540398252645218,-0.005470677403428496,-0.004927330581579491,-0.004256634892101003,-0.002804875821622734,-0.00048715550453445666,0.0024503220026838783,0.005506655536915371,0.008138502100428291,0.009887407131770871
