-0.44539113353261106,-0.30459908958703125,-0.20488962607711486,-0.13620599611687714,-0.08915609963292341,-0.08143322207518693,-0.1443695768859937,-0.30801514241791955,-0.5097941786463456,-0.660190242750897,-0.7275351902814065,-0.7288175308779203,-0.6673097079691429,-0.5227183923770014,-0.2793496671982683,0.02116609205644399,0.2853204365145583,0.45356563753263557,0.5254734238146602,0.5251734942854146,0.4818918751222109,0.4225399909277363,0.3795043889433366,0.36743269762945224,0.38221044590520903,0.4101040510009469,0.4314881031304941,0.4466861547953366,0.46933775828991947,0.5042563687865055,0.5526593452256284,0.6047734453212716,0.6562290842578968,0.6997886510367197,0.7386860618733767,0.7730787009819897,0.8030581829650197,0.8231576019759993,0.8342888888635827,0.8414403241748877,0.8438073972673591,0.8416156723123123,0.8312133067509089,0.8109031078950087,0.7712897300393865,0.7051455556753919,0.5906558147721335,0.41146992464749005,0.2150316361761836,0.08518994455262012,0.07188022243341907,0.18296628487664154,0.3794390703572347,0.5470573392427057,0.5395691701292159,0.3651072710851824,0.18596976808108354,0.09328515664916281,0.09733288223972912,0.1710873429121616,0.2467133230831088,0.24809641345375133,0.162179939486317,0.024799482624358098,-0.1217532528397928,-0.23854136424962988,-0.326531724582042,-0.4319453020520477,-0.5715896485591425,-0.7278741549198946,-0.8473570622245039,-0.8941987192620197,-0.8961787237111013,-0.8928680224759126,-0.8824986742929796,-0.8567625858560253,-0.8319433163256131,-0.8292916090257321,-0.8296184352872235,-0.7503555862798905,-0.6220951089674582,-0.5404074026552071,-0.507956229693123,-0.5142715363129825,-0.543936646043404,-0.5776154616345062,-0.6069275888228917,-0.6246526730485781,-0.6306185346497406,-0.6210665330821467,-0.5983186778586939,-0.5729592594194968,-0.5514107621120097,-0.535280276013528,-0.5056122482465777,-0.44014189404269616,-0.3342374411599094,-0.20808462218522478,-0.07771665466268783,0.03234086879422795,0.11832943898988608,0.1955555736089087,0.2719937315890567,0.34471353930508075,0.4064267228968055,0.443784302725972,0.455675435580798,0.450059164729041,0.43406260040261074,0.42142829365980516,0.41578276434560696,0.4241473399213991,0.45656657895079544,0.5238923514094171,0.5888009072862371,0.5938701590074562,0.5361502181999088,0.4826830484263768,0.4833163607521627,0.5412780804702327,0.6360188225186459,0.7242150651266915,0.7768762170922888,0.7911582863787532,0.788591693071028,0.7917399990540597,0.804787519066092,0.8128971356368663,0.8039367799996988,0.7784536489389069,0.7334983898269869,0.6644322488875458,0.5695564224009058,0.47455948267094855,0.40451578147168576,0.3561005644159498,0.30151861124167423,0.22924306616418003,0.1410770129500852,0.06866694794767572,0.025101146114763006,0.020125800367198795,0.04478733910337857,0.07646078452784702,0.08408389471894902,0.044843427032703186,-0.06574881174823206,-0.23125285990500838,-0.3909337441448684,-0.4961703193762604,-0.5755433317495301,-0.6531135167674802,-0.7212310845202168,-0.7674423294254262,-0.7920957803925076,-0.7879079510702914,-0.7418605946228268,-0.636863763846877,-0.4807364529623666,-0.334418856314735,-0.26257488937994666,-0.25786016582739796,-0.282188527559196,-0.29397577129017655,-0.2794651551889745,-0.24974426813924278,-0.23274503593336054,-0.24849125144277115,-0.28972449662808725,-0.3324734692588381,-0.37007720542119776,-0.4029156804552231,-0.41312493878185924,-0.37279168734572343,-0.29795899146875504,-0.2084720187181739,-0.11975046521699494,-0.04194134501213852,0.034096589190510944,0.11532840238299007,0.1919135129520074,0.2632752618988592,0.3355760887552898,0.40893367003283737,0.4719068138595897,0.525189677626725,0.5794217137070481,0.6399621253577636,0.69069147391368,0.7154290874220846,0.7013891074705322,0.6486952194836527,0.5900720923672284,0.5505179953123311,0.5285824578980048,0.5012680292516108,0.4529322956782451,0.40254167429133797,0.3866819613829731,0.425126156324212,0.5163345805271159,0.6402240616615301,0.7282200362118623,0.678130193108136,0.526144276665471,0.3936351044640481,0.30325400047251644,0.2404418480998618,0.19442796686104824,0.16271635114983385,0.13990471045412411,0.11614786831219708,0.07964971237943395,0.022834014898492083,-0.05853122876076116,-0.13841852141440192,-0.17943020521361466,-0.18152801127353513,-0.165202315601975,-0.16077354511482675,-0.1854347816367504,-0.2338505596412788,-0.29356759509377645,-0.3584249483991766,-0.4292049292413568,-0.4936679267562218,-0.5347516906077209,-0.5553955914886708,-0.5746812535958288,-0.6162645430033097,-0.6875969619025468,-0.7551813480691875,-0.7538998976231903,-0.6935513244654373,-0.6341719037778721,-0.5987817853194921,-0.5885464849698574,-0.5946654949904995,-0.613370399356985,-0.6375802902962842,-0.6491760510957005,-0.6244934051913221,-0.5580860690486958,-0.46832257711638503,-0.3877824512852171,-0.34710632307640554,-0.3693262120010787,-0.45646968071823635,-0.5720162470518246,-0.6640413436789786,-0.7112016092997274,-0.7148757568938758,-0.6829106762382626,-0.6073272723313548,-0.49752284723944695,-0.38216128655027864,-0.2773210109204647,-0.180658867148662,-0.08110801151086894,0.019909572486501378,0.11953578534677403,0.21243868632760204,0.29778590830691576,0.37672088160918527,0.46117857237670723,0.541233673125789,0.5921443129821838,0.6123954716245837,0.6057060898396445,0.594573569657661,0.6134444018877844,0.6759368158365304,0.7631702277621426,0.8384988930012587,0.8821232892048991,0.9081770159187965,0.9228497981368213,0.9199664694654197,0.8912604304982963,0.8450381551290549,0.8033455540565767,0.7772989126474535,0.7691244585480999,0.7746680035403993,0.7907908211145256,0.8094580710161023,0.805182267562831,0.7575457028502891,0.668296011413725,0.5684392227086743,0.4763385081618406,0.39638157707030275,0.31943956374423693,0.24280347441233605,0.17226736198998827,0.12955355931792176,0.12458542680477824,0.1313035991385317,0.12627801737085426,0.1067919756055201,0.07787828345347321,0.04092382526967439,-0.007462564318551546,-0.06243644067591486,-0.10971811412334713,-0.1359914718957896,-0.13700304129891838,-0.1359859067024541,-0.15412938098504914,-0.20761514515032073,-0.29315799662108455,-0.4145159886116096,-0.5587416498800073,-0.6602594526388956,-0.7070422733913412,-0.7319479821635428,-0.7443101085011736,-0.7276108514793216,-0.6636437298980478,-0.5663479679091948,-0.45918681458931526,-0.3684746095404928,-0.3188508869978913,-0.3141162451574878,-0.3447035437813289,-0.4034006572256311,-0.4854341827602481,-0.5640355814809629,-0.6098486100520263,-0.6225054788737509,-0.6129643130469767,-0.5715284463485585,-0.5055295376819395,-0.4359694374714981,-0.37685742332370936,-0.31405165958542924,-0.2506791398829355,-0.1898643587001746,-0.12069798350266402,-0.033886765601552196,0.060414704776848856,0.1415108430278715,0.1894258410416082,0.20600335502800785,0.1861418908258316,0.1638845015504248,0.1562972087515073,0.15853536154904393,0.157682422477028,0.15990215486403908,0.1719964123417041,0.22805406418727395,0.33991258593759405,0.4568737588688981,0.5499515860572244,0.61628782781161,0.6557525854844994,0.6816275583998521,0.7152491237783564,0.7643705484094921,0.8180696145736817,0.8513336445684028,0.8528588440068031,0.8386050370981963,0.8189137055424056,0.7882457938146978,0.7280307398702783,0.6189070332688807,0.47946424687319106,0.3473568070481991,0.2497818628437037,0.19089760491819685,0.15196333239187798,0.11927589202484684,0.09504176230823576,0.08032017057206559,0.08136864566274182,0.10058358562359901,0.12014392295054814,0.10254658050661777,0.053042136287572796,-0.010537507005852684,-0.08447420971910312,-0.16160257799951472,-0.2283445533558253,-0.2769767516269363,-0.3077769872258762,-0.32458420164500285,-0.34174975264413404,-0.37787062987390235,-0.4541905437404587,-0.5712187682613901,-0.6252309635039329,-0.6166102726745241,-0.6423474158719006,-0.7089393291010379,-0.772775612297284,-0.7939286999116533,-0.7662926488914861,-0.6889446307194423,-0.5771339629210958,-0.46496037430031756,-0.36785639511976154,-0.27990834449974017,-0.2023652975227376,-0.14516069134768864,-0.11979177376437791,-0.12540189674541166,-0.15376672042022282,-0.19469905724713044,-0.2410772315264573,-0.288861898511127,-0.32452819635349983,-0.33442447770463796,-0.30939169687255236,-0.2631010011619649,-0.20194681721199906,-0.13777659409528475,-0.08214739354270119,-0.032878525574399395,0.009429040323833772,0.044100377182662825,0.07805275228330504,0.13752755338263156,0.2605932140540382,0.4337847815599312,0.5706942916339999,0.6477955577928902,0.6940840190963115,0.717019202315019,0.7121104330887982,0.6802347397364745,0.6367429680189843,0.615796755217589,0.6170003547502055,0.6291991624567908,0.6473223979049015,0.6685350549895407,0.7004316161280251,0.7437319388105927,0.784111062601847,0.8076585701166721,0.8070872252044974,0.7881636792861116,0.7486095045925916,0.6717486667358771,0.5557478272759063,0.41323863079527534,0.29059692833757883,0.22799846273330446,0.22015733532922685,0.24007103639996868,0.25897870728261607,0.25239258095975614,0.21029218704276784,0.15645405701639437,0.13833744450279656,0.17864576530008536,0.24081034876639268,0.2511520543704581,0.19869906649980867,0.0945547598460783,-0.041528862829646004,-0.18174370698772002,-0.3149335630356908,-0.4529880265357229,-0.5891426463123839,-0.6981155068421602,-0.7704937504013866,-0.8056969805426516,-0.8169546336030342,-0.8048386335783801,-0.7815057698832764,-0.7729407882947488,-0.7818733707390673,-0.7945827377893551,-0.7973158353165312,-0.7778948994534217,-0.7388807154494609,-0.6909929836125432,-0.6444623844220954,-0.5715624211924839,-0.42322429334494643,-0.21101775812682338,-0.01613250701600359,0.08038757968671596,0.062198164014287106,-0.06356616876146148,-0.25789645445048304,-0.4357765607885368,-0.5439625738136135,-0.5837571823633619,-0.5587313006185782,-0.47815412572751353,-0.3743992210861705,-0.27699351847586656,-0.1980099359295782,-0.1356701001162176,-0.07575632960692498,-0.02402509121532702,0.005309929193631712,0.013807821684267209,0.020650111765648148,0.055648982159927605,0.12758269592928417,0.2220756830137908,0.30601545437350786,0.3480476839632283,0.3548420207532437,0.35144028217127465,0.3636269475037369,0.40310773672388983,0.46416735302566636,0.5345196965003463,0.5992324872290911,0.649359794313931,0.6781924090634713,0.6910661588965505,0.7028700987523392,0.723018549085326,0.7476794253544458,0.7640029902327214,0.7732093037453968,0.778449671089095,0.7945460759093168,0.8087998989517805,0.6670644807926233,0.38750151191626986,0.21242952014106423,0.13357938609020895,0.10472561388305508,0.10367044834670043,0.12198354766251106,0.1641536789870903,0.24095863159373146,0.33670560798723814,0.326363210842995,0.21976357391340873,0.09139429444302186,-0.028952380961265838,-0.11013114204780966,-0.14562866607572036,-0.1398826868726643,-0.10183168204748083,-0.0631666332618903,-0.07011629471045502,-0.13455119974811358,-0.24308026591009743,-0.40337399879704045,-0.5742187521404627,-0.6302678315525997,-0.5894762491637083,-0.5639898605396526,-0.5699128904715612,-0.5918207015756185,-0.6028313076656218,-0.5951972456880545,-0.5722617828776281,-0.5351018836752592,-0.4840541577309812,-0.43410727419259987,-0.40034636899033255,-0.3747991271128385,-0.34947832924813566,-0.3307403817177944,-0.3444215052359278,-0.39088918522492927,-0.4490794611251316,-0.49746625807001177,-0.5197782886142084,-0.5229373829090204,-0.5041573059194935,-0.4592013655641788,-0.40725633410156964,-0.37154326863067116,-0.34114319167992635,-0.30092820999711634,-0.2345659817018033,-0.13822445230193983,-0.03550603014883714,0.04279629033552992,0.09299996735719455,0.12828691569453593,0.16869620087187998,0.2433322550533534,0.37843317073345584,0.555400785259437,0.7018453789013237,0.7751483196515462,0.7867412800174423,0.7608673062961698,0.7312118151155277,0.7263613797277887,0.7499547958239862,0.7867305486879989,0.8223084764883676,0.8464146206568391,0.8509086881054193,0.8348701072816633,0.8113201207858657,0.7788195998968335,0.7292821762777374,0.6638502701120746,0.6018009782377445,0.5627192231994891,0.5358994301909423,0.5005451357510393,0.4636058905048867,0.45240051190103214,0.4642895165250354,0.4867863411626515,0.5001292983459057,0.4839522634049325,0.4317628568764007,0.34243542365502894,0.22324307397932008,0.0962823869219706,-0.022419744963531604,-0.12942060813642767,-0.22831585823019493,-0.3079447863164719,-0.3485962532922286,-0.3392180140421319,-0.28027766613279836,-0.1936532815782571,-0.11772848165095728,-0.09058871713492499,-0.12085427652258778,-0.20102427765718436,-0.32022693325175494,-0.4649736494456348,-0.5974402623678343,-0.6628133289400575,-0.6820782733852874,-0.7003734105080299,-0.7221662374572129,-0.7393336874044532,-0.7225737585209026,-0.6576302899900429,-0.5713030783663259,-0.49238056797382357,-0.43122505485118623,-0.38454856977705354,-0.35037966739118626,-0.3397981855870749,-0.36449277540957103,-0.428252067859002,-0.5134109130498918,-0.5968038847426368,-0.6600529009759206,-0.6817377129497004,-0.6447252223143062,-0.5372582436659757,-0.3679004409533262,-0.16820622539550636,0.012475758193442031,0.1339366894217269,0.19044395261436428,0.19799451580686714,0.18131346916956795,0.16859946057356498,0.191492358008303,0.259144260924242,0.3233278707899039,0.36291801424937437,0.38526499653666624,0.39833229220385846,0.40289243780041295,0.4113872023793313,0.42476022653590767,0.44415274440430336,0.4638299111556185,0.4785130060219268,0.49041907829496784,0.5112012399202314,0.5389453063355604,0.5662556032772973,0.5909849258720218,0.6083561905320898,0.6216516850804317,0.6419207833927302,0.671868042205885,0.7016628878757118,0.7207655901884592,0.7247309674646213,0.7089746715728065,0.6702083267115652,0.6023906839328352,0.5140270308024426,0.4385728869210834,0.4114828273777012,0.42559260646211766,0.4308184266701274,0.38480298204081415,0.27863784057435703,0.1412861437568665,0.010712644318488168,-0.09205929003088707,-0.1538898125528853,-0.18353615634660642,-0.20327331597362303,-0.22526492459363906,-0.261409279379513,-0.31885038031099255,-0.39804858541201504,-0.4843361569642453,-0.5409979171407099,-0.5242082561557132,-0.44235588265804476,-0.3670778359648369,-0.34192290300084527,-0.3859619683907779,-0.4914657908057903,-0.5519426580954476,-0.510658770418043,-0.4588385467242562,-0.4282929380021763,-0.412333079579357,-0.40655794622147384,-0.41301465568374884,-0.43829112836869893,-0.4687296988601204,-0.4317165972956182,-0.3227997642979358,-0.24314367123313912,-0.20383547235632996,-0.1936236213826182,-0.2104907461769669,-0.2495515968479271,-0.2992151056345911,-0.35285317136537625,-0.3985426029510744,-0.4232131540845999,-0.40951504560798596,-0.350584508580004,-0.2605653783882476,-0.1645629766242975,-0.08276092741405973,-0.025220773861950478,0.011441968896062964,0.03220619271833004,0.04795103427034174,0.06204535710087549,0.08716312432642402,0.1403626021645364,0.211550814991252,0.28380694021202374,0.3622665896326291,0.4502645502795591,0.546765670604593,0.6345358221129376,0.7115210295724597,0.7680820035081992,0.8051986358220633,0.8255195852496958,0.8289227349718734,0.8150085376089996,0.787110800316358,0.7639289759391341,0.770200765851289,0.785652037543307,0.798041872986727,0.8038773599866679,0.7962001619433001,0.7591371294927279,0.6813890745535985,0.5764640708386164,0.4774950325814338,0.41583971929773356,0.4068114645601514,0.43657127821328084,0.48079613781304376,0.5112945623236088,0.5111189792666637,0.47520660939110376,0.4176807091352697,0.3525049309830879,0.28786720542370364,0.21209810637527188,0.10094300184257968,-0.06498040238173394,-0.2541146874014549,-0.3954480751483349,-0.47414355832403476,-0.5251065163166003,-0.5811777786581549,-0.6302742225094904,-0.6054260391604257,-0.4970711907280149,-0.38745450684027716,-0.33409074522030047,-0.3611465986988127,-0.4543728767769461,-0.5744461783975295,-0.6704594208971564,-0.7320042988112964,-0.7661177405155841,-0.7611437901888125,-0.7134443281860252,-0.6288221297980179,-0.5250391349303513,-0.4225850095232264,-0.34739114940011595,-0.3170392263509309,-0.3202224637376398,-0.3351601006472292,-0.3348483045919791,-0.3024932357473307,-0.2549249221435547,-0.20999136853331019,-0.1756323364774714,-0.1492086635774106,-0.12696079755844125,-0.10205331088276695,-0.07307533338928959,-0.03519730377381045,0.011808581559400694,0.06195450958885761,0.11127740835560744,0.16033956646776745,0.21600096993821405,0.27810337040697247,0.3405602185629037,0.38427332820565285,0.4070427089605998,0.40913906795019855,0.4121141019047263,0.43550955441699396,0.4805384520651144,0.5263345565848732,0.5720188219465889,0.6347431162080279,0.7031850279950828,0.7576574576498328,0.7808931415564618,0.7900456278909809,0.7954207548299218,0.8015205738369758,0.8020720653252871,0.7970239692806856,0.7976778692286182,0.8055974242653123,0.811871552144311,0.8049382577146402,0.7826954674612235,0.7627013936339575,0.7501148128041286,0.7187488005315865,0.6335662250102534,0.5210528372344191,0.4313676705600763,0.3610072149521386,0.2826994706442723,0.1959936086468178,0.11872540150045449,0.07204832949151486,0.05554673553710305,0.0566028285363593,0.05954101509866907,0.05213964012138145,0.021544813434116118,-0.03890192660266011,-0.12112972152074529,-0.2061673007336565,-0.2646986228411888,-0.2950178764292044,-0.321992567982437,-0.3783969831035465,-0.4571480184548247,-0.5288957399061458,-0.5793356927023955,-0.6063009178104796,-0.6284348198902743,-0.6533962544640262,-0.6865167602849834,-0.7247856716285817,-0.7611238131413072,-0.7873198065647468,-0.7880424402526737,-0.7522262974095665,-0.6912326523048868,-0.6272261632081846,-0.5658340824527716,-0.4966604676570344,-0.4153309831811298,-0.349281198189357,-0.3393228965517702,-0.4067767432506677,-0.5184780687272473,-0.6047481957761989,-0.6404406731237403,-0.6419418158493615,-0.6180100967734552,-0.5622726379876317,-0.45776256847772023,-0.3124196467708071,-0.16622143384540222,-0.04888942867122631,0.024403730606240605,0.056756456252220325,0.066120528328423,0.08659727136286424,0.13192516713653626,0.19799911078533913,0.26599009594639533,0.3234113163105942,0.3660593851543399,0.395646062929879,0.4169331335262255,0.42749604779271777,0.4386639791765202,0.45973299907339316,0.4908645420111588,0.525691214003867,0.5712501686402042,0.6142767267719977,0.6349233129828823,0.631494439853841,0.6256164175158639,0.6358660522350631,0.6598518949839247,0.6852852204509678,0.7079750305862816,0.7337052915904639,0.7476483471974846,0.7296767217862471,0.666551171466691,0.5451008785389015,0.3749927462819527,0.2130497096980287,0.13511069036027312,0.19888957438094737,0.37881694581908426,0.5613199263301275,0.6718531852460005,0.7124876853641806,0.68172302818157,0.5828241862260402,0.44525576611438844,0.30171708122991325,0.16537555827541112,0.037726741750436936,-0.0822763560857734,-0.20266093403978722,-0.31867640352213755,-0.4189773077628701,-0.5096691261126907,-0.5775758638771137,-0.6341390019355999,-0.6846195657685038,-0.725977739082935,-0.7558756819347338,-0.7727485562571395,-0.7793103282987089,-0.7677392548156668,-0.7276351383320551,-0.6455749721691425,-0.530852801769479,-0.40982725030050954,-0.29873624254840286,-0.21979608718188706,-0.1812096548241607,-0.17974980533170368,-0.20181854258811804,-0.23744379701663565,-0.28882377678117893,-0.351842970566428,-0.4144978099868269,-0.4645441313186491,-0.4901244375561542,-0.4917671862561785,-0.4854279725047641,-0.4765941041108422,-0.46220133429108107,-0.4299856248197791,-0.39376003580687996,-0.3677435838089418,-0.35675483991889767,-0.3512079216529888,-0.32203707070614723,-0.23270746336772202,-0.07611871329109127,0.11591920569935144,0.3024044046871106,0.452786157127154,0.5579333690530276,0.6241602282883829,0.667887566663344,0.7003706175423835,0.7196096405869754,0.7079973353036895,0.6731227476931552,0.648089149525895,0.6566952977006281,0.707160979745473,0.7698168478641263,0.8198594402051894,0.8436454634015489,0.843154486448675,0.8288980931833925,0.8135194631224993,0.8023814086537557,0.7948793565596961,0.7916046592977333,0.7881169196306602,0.781534324382206,0.752998380757067,0.6821691237402426,0.5640528754719725,0.42319130880714456,0.3005716891671194,0.21389531685545413,0.1750698300258503,0.1732369332262601,0.2046424817272031,0.24851235234195013,0.282789299233434,0.28606714828249374,0.23821155556823925,0.11117022751775651,-0.07438865822222035,-0.2367550141637811,-0.3476269166912839,-0.41670029340775727,-0.4782447798043299,-0.5596132449730764,-0.6517799734398819,-0.7226407861653081,-0.7338880207751025,-0.6350401933144345,-0.45679813529180724,-0.344243068365375,-0.35809511880052103,-0.4678062325394598,-0.6337184669836017,-0.8090323487641106,-0.8576204653596274,-0.7207334159902379,-0.558442855662139,-0.4428494766013668,-0.3746103295210988,-0.35177688183580585,-0.3588853312297654,-0.3715087018651898,-0.36875018425417144,-0.3500617308341997,-0.34931035256039916,-0.3740953600786064,-0.4162457029453325,-0.4582397619687193,-0.48467585570166144,-0.4794240850435294,-0.4467762030889568,-0.3981166326233742,-0.34841159750899503,-0.3112558524819567,-0.2892250333483298,-0.27984490067847806,-0.2686921457430113,-0.23871150512941705,-0.18383334059529877,-0.10600952661086517,-0.021117474586719642,0.05899520315153968,0.12917511014941632,0.20409322425776108,0.2846015867955507,0.3533671511866796,0.40237295230189124,0.4420320027603419,0.4950002594391225,0.5591976368606514,0.5980703281722337,0.6093027217498576,0.6125153707569176,0.6204759664110233,0.6404447076532722,0.6775491309637074,0.7290173887838177,0.7833039971323426,0.8257238334184974,0.853944577616354,0.8691817036439536,0.8680276704513736,0.8552462547041652,0.8336940839862975,0.7924967596420863,0.7130178181070842,0.6092477255149001,0.5192912410658539,0.47513368994787897,0.46912722720362626,0.4785657734296205,0.47305103210607025,0.4351292812587841,0.3698253860129433,0.28451024783580364,0.19713690827791897,0.11572490567534147,0.018112464011498217,-0.09482844757330267,-0.2042446698774631,-0.2971944149842127,-0.3785161670375614,-0.45755468310359776,-0.5271547479885375,-0.5879838589352022,-0.6391693790390851,-0.6882948634219126,-0.7329635430227465,-0.7629520107247598,-0.7801781636941841,-0.7852882498316922,-0.7883341457632488,-0.793997385662232,-0.8008909108966898,-0.7907630712790822,-0.7523774175021009,-0.6865703862733435,-0.6112048810442473,-0.5537302373165761,-0.5282023123725413,-0.5270059931089239,-0.5371903128933392,-0.5520290723109591,-0.5763126609085006,-0.6112439112455604,-0.6540418437841033,-0.6785227523406477,-0.6580341332884388,-0.5772619834122706,-0.4362623767015453,-0.2863359198431476,-0.18809120979336377,-0.15802918444009667,-0.19458325562854487,-0.2524336894101746,-0.28885093548894897,-0.27435189028497237,-0.21414112808763489,-0.1382896191041033,-0.07507294263835972,-0.02327342120765517,0.04991092069143931,0.1588473064147473,0.2915174727059171,0.4259283928963446,0.5350494859138689,0.616688570725266,0.6916410881894478,0.7708254668438981,0.8335836297174383,0.8642528145062022,0.8669956510323718,0.8630577990841417,0.8667402673071642,0.8790841044649973,0.8910023425316972,0.8889686295951589,0.8695375943653795,0.854112116456382,0.8577034176331865,0.8749371571924398,0.8911017482545532,0.8974875354740752,0.8852283434744975,0.8295519079363594,0.7230075749795547,0.5931981410649821,0.45831762549121197,0.3374795633937127,0.2513510079427379,0.2164536204714365,0.22599150088663672,0.2565483545406144,0.2839614155567433,0.298501472534515,0.289456475947912,0.2558773403382225,0.19064934851786947,0.09719463324825071,0.016850185258297238,-0.02192489962943784,-0.03954601900324141,-0.04935463500805077,-0.061023393261339744,-0.07844731237615939,-0.10881597028552764,-0.16321110672054603,-0.2600747732741095,-0.38509326377987224,-0.45789013434151493,-0.5309222869634375,-0.6392791740905656,-0.7337635567603025,-0.7619337315434602,-0.7109221510209826,-0.6138984546518399,-0.513985053565727,-0.42758521172075353,-0.3667465941256318,-0.3323616227706758,-0.3218484647438566,-0.3287943816422034,-0.3651569060987741,-0.44858512483116236,-0.5553813025691768,-0.6418885388086288,-0.6816738858567829,-0.679943710056357,-0.6397975087788237,-0.5639010000172343,-0.4675990494074496,-0.3771756477002198,-0.3045654477861764,-0.24838192720884777,-0.19829760098835492,-0.14439275521723438,-0.08485999000622935,-0.023265944623865668,0.03565957237024592,0.07606142428379017,0.09755566014381001,0.10623640332486275,0.10605888798758314,0.11742246763739225,0.14716654165607784,0.19526401051398581,0.23967120457140048,0.2800289114705722,0.3290340371947624,0.41217192272240194,0.5132339968363184,0.6084169089139977,0.6937776799153372,0.7681207364963503,0.8250227089262732,0.8617436588928459,0.8788886931157466,0.8818046470496524,0.8733855506266389,0.8615264320613027,0.8481201283209432,0.8314043995761953,0.8055080992276246,0.7435255653328137,0.6191288056306861,0.45774377615531114,0.33920677753514883,0.29739072285616475,0.3244216093100924,0.37208935820743305,0.4124608507911897,0.42868249193813723,0.40130388976276804,0.3123748387891419,0.18778078784266922,0.0880476995771775,0.03772584476077323,0.013709897179353146,-0.02270552228180218,-0.09937521906995324,-0.22253190413331092,-0.3614481710856867,-0.4704012329703693,-0.5473332081955515,-0.6026796891544606,-0.6317470543216877,-0.626316427947605,-0.5901463929559999,-0.5334613941225572,-0.4954984233471204,-0.5337880492566079,-0.6400471849890399,-0.7064008259374749,-0.703130019255611,-0.6601484231024478,-0.5942364789726448,-0.5200879966463662,-0.45984217373567177,-0.4375327736806701,-0.4651623218464901,-0.5108218583386133,-0.46888356684138355,-0.3914807695873629,-0.3666767954465997,-0.3867626531800506,-0.4316624507903724,-0.4773852212666789,-0.5152908696168551,-0.5207149313663954,-0.4891248333100215,-0.4351514254695947,-0.37713236411669143,-0.320059737607572,-0.25318343307633007,-0.18398515561650314,-0.12794334991833953,-0.07425040031433743,-0.015111054498768572,0.049669742605940675,0.10973249250038204,0.16962614466427475,0.22362693547510532,0.27490104739281945,0.3262888799613634,0.39140296509938505,0.47978229988878784,0.5882266396901675,0.6961843708821029,0.7735427263487665,0.8197080182341194,0.843163995392021,0.8583677873474906,0.8772394513736502,0.8938146491472312,0.8975754168451524,0.882539301303684,0.8552161954392874,0.8373308946391713,0.831222403935881,0.8239907569836417,0.801674697887076,0.7591590033537896,0.7041909526519783,0.6446811302821249,0.5794708312065306,0.512908348105793,0.46589585509283676,0.44889319353719165,0.4415864491411662,0.4206095966718166,0.3710552840785285,0.2933663081935476,0.19303460435497521,0.08480446930600016,-0.005372747343934267,-0.06719669630132802,-0.12940349729231962,-0.2138570903252844,-0.32072809048999507,-0.4155614762462954,-0.4656936987875007,-0.41128581703186595,-0.10144746563503454,0.45038925685417996,0.5988517595743005,0.4214008378608066,0.023194822872348787,-0.34829679414346565,-0.5534279882508437,-0.6493063783852745,-0.7005521205130104,-0.7269198551182467,-0.7290688250644697,-0.7077673426396086,-0.6617046977647438,-0.6017935790187338,-0.5593850796592666,-0.5470610335826787,-0.5510076422970157,-0.5495273142548538,-0.5320457058525597,-0.5034620541799256,-0.4772305807722847,-0.47121871763246714,-0.49485735840025447,-0.5372592475430747,-0.5745933694189678,-0.5947206855598797,-0.5885284320536581,-0.5395514542969353,-0.45807214408659985,-0.3685135825223876,-0.2764742770377748,-0.17402971461475703,-0.06490842715910554,0.03270002163594694,0.09875974517346787,0.14114318121250807,0.18580111269990704,0.23456922068201375,0.2802422167829091,0.3110417487314781,0.35492684953688186,0.4321284135011391,0.5291066337972428,0.6041103809934131,0.6391875741782266,0.6426402139601255,0.6472470885840035,0.6677375602349225,0.7042228342975947,0.7462631391021043,0.7850960116425517,0.8113538625578849,0.8147635230385515,0.800443078241012,0.7754525715804912,0.7535556788323584,0.7379895559894454,0.7307928172738386,0.7352740829460732,0.7529002748008595,0.7762989542072287,0.789445376912022,0.7713763368373278,0.7143356081634611,0.6251709943424786,0.5310399546193907,0.46230996655836937,0.427773183230957,0.4093100666545111,0.3769032580909984,0.3243380594951918,0.25451927355749243,0.1851583278784766,0.1252206470947431,0.08426413262530075,0.056675531318761595,0.03303459446438174,-0.0070103199687999666,-0.06172637246592291,-0.11533082705430914,-0.16608241730888743,-0.21251383746288774,-0.28975744301867584,-0.41968844078458706,-0.5830678514182714,-0.7429515535155834,-0.8413343849511706,-0.8545493339333541,-0.803941192402337,-0.7365806342212929,-0.6745512447983648,-0.6088157000214971,-0.5194787928659838,-0.42000429553330504,-0.3479576223012496,-0.30499766570755654,-0.2926379646714024,-0.30026868256461536,-0.32445603533438755,-0.369924519880848,-0.4381587984764298,-0.526156957032061,-0.6175614629743155,-0.6877673683339939,-0.7194242825900565,-0.704634340250654,-0.6429714566549649,-0.5565470234784257,-0.4686852985192099,-0.38461420395995144,-0.2836446934667182,-0.1553424194135468,-0.038184565090899285,0.04067015164594442,0.08042857238796314,0.10150530367204891,0.12085659384946879,0.15427578717207913,0.19486528003720582,0.22042372788680528,0.2390349390386242,0.27827446969726655,0.33461533106056485,0.38738540863742926,0.4004002328139399,0.3892215619351202,0.40299018805386033,0.47931828011647215,0.5875720703013233,0.6687422140876385,0.6964258008560105,0.6840870240372087,0.6616877739388333,0.6560484257238794,0.6794842301275986,0.7168028355440108,0.7356061425206915,0.7113721148096727,0.641237486213619,0.5483662190356178,0.4542372157274919,0.3757968843962261,0.314357603488381,0.2644965981173867,0.22157846808773277,0.19479325389522023,0.19280211492419427,0.21301858255190304,0.22821752046327318,0.19707765739046332,0.11954212978059482,0.020870362745984427,-0.053682463871553246,-0.08904232216925768,-0.09702107052705164,-0.10150897611069848,-0.1363860889449701,-0.2125134872202201,-0.31345431787760436,-0.397856437729241,-0.46650842192957737,-0.532085784736033,-0.5963895286273522,-0.6718999930530367,-0.7541977973305305,-0.8244210692046514,-0.8600951705825268,-0.867966508828803,-0.8667006190033496,-0.8648839578647273,-0.8688285354180965,-0.8712565863957104,-0.8544594450930836,-0.7719866506821411,-0.5101439734459209,-0.10763378146668509,0.1277384153502257,0.1797344538550839,0.13360941688207545,0.040239955323239256,-0.059164621180967984,-0.16434948393340287,-0.28897152559044104,-0.4174818041721721,-0.514471251726461,-0.5662273086416652,-0.5815530183826,-0.5764976302545338,-0.5552780221953434,-0.5156158462571346,-0.4526797737749781,-0.36891566403779896,-0.27597043274059907,-0.185975235160617,-0.08882000410050864,0.030363309510631264,0.16151354151704375,0.28243831921305473,0.38778486517498834,0.46600715366745804,0.5256022844848961,0.5831650963768839,0.6451833382123086,0.7058912728494341,0.7660349350260122,0.8182496780279628,0.849536535523093,0.8559097157031686,0.8503703848575916,0.841781956591125,0.8467280331811466,0.8673989563446012,0.8916560082043085,0.9036946578227113,0.8980498279930768,0.8811476078285072,0.8560555059401718,0.8274410360666725,0.802042627638806,0.7845760437338061,0.772020051077613,0.7573874991712767,0.7290717580723017,0.6816470986050136,0.6103327562614523,0.528093618121613,0.46066763515320863,0.41374464202026984,0.37748367472662936,0.3386098151579606,0.29678160533993214,0.25942332990496364,0.2293444370349077,0.19563631094978443,0.1495948883803972,0.09436963581291463,0.02709522686972311,-0.05142790542107888,-0.14031056753116175,-0.2262454530123303,-0.29437015734759125,-0.3469101126902674,-0.3907546515649662,-0.4064712156788639,-0.4002056411099446,-0.39806788618843747,-0.42133267436389243,-0.4922440236075701,-0.6041663389348172,-0.7220515700104243,-0.8017853326359439,-0.8120799607859402,-0.7695317964211401,-0.7097233982298211,-0.644452772313708,-0.5749653982842395,-0.503785393417378,-0.42748958769101947,-0.3508216966132439,-0.2837491135945021,-0.24568576675266915,-0.25696743268864075,-0.33116703152850413,-0.458761081008044,-0.5747867249420588,-0.6349463716954928,-0.6539854722010047,-0.626015226559333,-0.5313772948162063,-0.3974007746011746,-0.27665130943601307,-0.18709550662179508,-0.13630783164155577,-0.12286425214910206,-0.12396625264051128,-0.11777211508342876,-0.08491657568280098,-0.015513592144453577,0.07495853766722102,0.160511364249628,0.23713881344027557,0.30745450844468636,0.3922840413987012,0.47436223852707227,0.5460422672993351,0.6049490534644488,0.6426875475754128,0.6498127171227899,0.6384288100410372,0.6411836696551383,0.6825061527522146,0.7519805164233703,0.7933306797748403,0.7504540425890238,0.683024051317934,0.6574826875741709,0.6687688417719316,0.6858218916862411,0.6918365584265271,0.6819629403363714,0.6523154339250387,0.6013013322472083,0.5188564518013017,0.42259880438927416,0.35617086346371646,0.33219627291078596,0.33970476690717155,0.3456251800014339,0.31308344325386483,0.24314469417991355,0.17239011926789227,0.1284488988306497,0.10294922411581686,0.07492327220757486,0.023592612093534627,-0.045072055367456704,-0.10561597516088517,-0.14005036368944063,-0.1470857614825136,-0.14474900936649113,-0.16813585042435814,-0.2164009981926353,-0.2723836516288493,-0.30353079017661233,-0.3010458216470916,-0.29320072810423736,-0.3113579399098829,-0.39167926988488405,-0.5194530011410796,-0.6193389092675778,-0.6688547785584443,-0.693275426317526,-0.6868151425244715,-0.6229097794262367,-0.5179301085513829,-0.4274766513189725,-0.3801478847388506,-0.36444325814468836,-0.34901398705577075,-0.30804792228356115,-0.2589251403055812,-0.233259195470709,-0.24499267030384814,-0.2768614341165051,-0.29780658085323497,-0.2864001099829299,-0.250880927295043,-0.2120725269946189,-0.18008352703391262,-0.1524463732215169,-0.11934447112392385,-0.08373564288179954,-0.04583989803434773,-0.0020149956669783266,0.04371116862477502,0.08892684242357093,0.13939233783622693,0.18861808790771012,0.23343714275361074,0.269114467519219,0.300029343445881,0.3247593839362938,0.3417202606017033,0.34344337547396225,0.3512455880133628,0.3619097261652303,0.39736419593937183,0.47692953179956454,0.5861019593068155,0.6861956320340108,0.759468865549468,0.805251353516749,0.8233304891459512,0.8121480262067886,0.7812734467204911,0.750253607871153,0.7307380942755402,0.7197553412597991,0.7031941726853365,0.6686821951058518,0.614928562907966,0.552078973268886,0.495319729191804,0.45032326261151606,0.41804827538796435,0.39002474644368906,0.3663115822509367,0.3245181034446316,0.2576267960521622,0.17631123216633632,0.10004966886904024,0.040020739005982624,-0.00017751531727716282,-0.023887475637783533,-0.03342306984652493,-0.04001649943633789,-0.05816832713471682,-0.10763349106528328,-0.1928580636636505,-0.2964076049780067,-0.3998660342540516,-0.49136114353574295,-0.5664016088976548,-0.609728715585871,-0.580488011194122,-0.5023182151725198,-0.4405631560365513,-0.4290945542738304,-0.4678798105040615,-0.5342684311741032,-0.5966189879212528,-0.6383182718723717,-0.651264728373067,-0.6279228906865015,-0.5702457098841439,-0.5072109039681765,-0.4596362538990341,-0.4353815426992532,-0.4343430907243366,-0.44537658893749693,-0.4737616051920607,-0.5255958075813408,-0.5889629961174956,-0.643354821547373,-0.6709675703501,-0.6510980791376787,-0.5778675446183515,-0.46534172362265125,-0.348091408492701,-0.25292691112452365,-0.2003439083290053,-0.17670117576298672,-0.15486449299097813,-0.1033818185237246,-0.017767809778983644,0.09277653299134993,0.20467112199545656,0.3046632429760992,0.39127095970519643,0.4660317763342137,0.5412906157956852,0.6074672148644489,0.6573224329408915,0.6930376442797771,0.7181076889148996,0.7286109887845267,0.730165579076823,0.7289457475135738,0.7330667709575404,0.7403155201147134,0.7506149593454032,0.761961207631949,0.7601497057564337,0.7341019626961992,0.6957845714217936,0.6708552573503009,0.6749513699404104,0.7055664167307757,0.7392840583299083,0.7171241605017787,0.6022746447040647,0.4531462089937064,0.3378393931838274,0.28528172779005295,0.2851035066267731,0.326711386635359,0.4052728353356996,0.5087428799263418,0.5991287171504707,0.6390698421086244,0.6001990909667271,0.49651329297759234,0.3696003508395148,0.2766697485840869,0.2370741006367085,0.2110819380629082,0.14477662657641763,0.014209863546873012,-0.16166476208593691,-0.33530369859794273,-0.4753672339652623,-0.5569593792391003,-0.5454530366815175,-0.4359636454933296,-0.31171293337129746,-0.2746309180609383,-0.38103286149861143,-0.6154505047093676,-0.6838601364121406,-0.6303489445654031,-0.5945141684542955,-0.5742096456323326,-0.5655068698434127,-0.5703481097093226,-0.5812913729249176,-0.5711073804193068,-0.511989637502106,-0.453140942287383,-0.4399621216095202,-0.466307100644605,-0.5114745422197046,-0.5681321120295649,-0.6155238882281657,-0.6406491044363701,-0.6394018299632133,-0.612817229242771,-0.5653130099851883,-0.49621747656490317,-0.4169533967541202,-0.34571942155166024,-0.2887484430713525,-0.240802699332198,-0.1916333849833132,-0.14408903682836877,-0.0907369431325686,-0.023357494301142586,0.0518757093409427,0.13251093656282067,0.23366488929842974,0.34647708548475264,0.3090858007936381,0.20533124570242745,0.15178827158131536,0.12756884200033491,0.12009896207897384,0.12770414879382255,0.15831692444737258,0.2428810141028841,0.44958580745032856,0.7138327621278674,0.7822409817890162,0.7987635523914549,0.823340146760016,0.8363012721016749,0.838551291830245,0.8448002234897138,0.8516637391892884,0.8518454431181783,0.8425285589674605,0.8254228136077547,0.8073523409661074,0.7847496441514472,0.7280643885315561,0.6060103903336463,0.44918872147223565,0.3297939800752427,0.2827277976469622,0.2989185889019041,0.3424290414357245,0.3725317254128286,0.36387700154889874,0.3080867907152509,0.21652430901410105,0.11856063080760824,0.023830091445226746,-0.050518499419176514,-0.11827919169122408,-0.20043250730524384,-0.29216754161177383,-0.3774556247903423,-0.4353579513521548,-0.4699226968058982,-0.503058721501127,-0.5433511991457143,-0.5897989290513481,-0.6447497575540014,-0.7143305856395624,-0.7751031498880576,-0.8048710902342826,-0.7980021686631119,-0.7720624344456019,-0.7474755227135476,-0.7248655190500513,-0.6881601191069664,-0.6201037625517126,-0.5216540044241047,-0.4256218069841013,-0.3550908687444601,-0.3208577536111758,-0.31266413525226083,-0.3210043082068055,-0.34359399913612226,-0.37627232494866003,-0.4098240040969176,-0.4439693568480926,-0.47923694150764123,-0.5083841744992692,-0.5146833819726179,-0.5047752116786508,-0.486742694972719,-0.46525897189407694,-0.4357739814644683,-0.3915532431477246,-0.31040366726987545,-0.17991665457173592,-0.011199325160003562,0.15859148363226605,0.295258776183485,0.39918464350313443,0.48029820845286153,0.5504782674469016,0.618280393710529,0.6843375364716726,0.7453001558510627,0.8066985001948107,0.8696401184276663,0.8597384402035891,0.7622464577570796,0.6946747911448701,0.6918037627629193,0.7423546907566005,0.8162712511558065,0.8549403233643438,0.8393723496739991,0.8218252106869921,0.8169934123619004,0.8167138423753553,0.8200664311020924,0.8257116357338476,0.8340275983339397,0.8362617800270858,0.81943069450241,0.7682069379267111,0.6805476575590533,0.5854196158031059,0.507697729839014,0.44880354249382093,0.39192643583193476,0.3149071424698969,0.22936794943182903,0.1482424009232509,0.07828463975847941,0.02011797635999196,-0.03240765678977507,-0.07764171582549605,-0.11729375242424635,-0.14439447342196757,-0.16151714930317213,-0.18066388779153314,-0.2180445657297412,-0.2702730201765095,-0.31716192815214084,-0.3350698888891425,-0.30844219113968613,-0.2658013949172473,-0.25439272104148297,-0.29317835984528356,-0.3797171532450576,-0.5038607585576971,-0.6341816879263987,-0.7264026482639602,-0.7570481242233769,-0.7064565079223942,-0.5977950377571875,-0.48524615252673137,-0.39698801851190146,-0.3449324186085479,-0.34242847431552326,-0.3822636750938785,-0.43234555974101424,-0.477808619790315,-0.5219819073909581,-0.5677733123469856,-0.6075386515385328,-0.6331579739520713,-0.6452329560149699,-0.6507737932670854,-0.6450158296222493,-0.6238689951920576,-0.5698071477753779,-0.47570893264624503,-0.3576359378205006,-0.23975090438038013,-0.13748973252727187,-0.051490648287543676,0.02421213693327651,0.09658394203699476,0.15554857118334364,0.20137277715918947,0.23771075883996154,0.2762044317371924,0.3301825161407339,0.40493026799069776,0.49024446412738776,0.5449423230221239,0.5313026689465725,0.4843805080993435,0.4717209374428822,0.5290695222040958,0.6345768985975718,0.7173092168063033,0.7526958162720878,0.7566209661060848,0.7350516866048701,0.6995491300101968,0.6717311155067069,0.6560365425695996,0.6514151904772029,0.6663041249358567,0.7016003977626846,0.7343643704088361,0.7187811362026763,0.6308712032547619,0.5014301246147521,0.36129189748559526,0.24317254346770867,0.17010372606582522,0.13132550823433042,0.10337933206700783,0.08312369302225461,0.0655206189662051,0.04783941249217743,0.019595023525143966,-0.03507043352482783,-0.11426662642557228,-0.1895776061367045,-0.23874448540830703,-0.25293093318654436,-0.2541775120553641,-0.27679086085370735,-0.32573674486035753,-0.39543578921107,-0.4580995161771392,-0.4874562233003912,-0.5009554829059415,-0.5394677022065341,-0.6168501422386854,-0.7205644872649579,-0.817001868228179,-0.8143096039787748,-0.6787910905082883,-0.5333792950745209,-0.43018142301853673,-0.3745018189001563,-0.362396758360242,-0.3795429874126734,-0.4126783609564034,-0.44212727928519596,-0.4492824842788626,-0.4268580800769578,-0.3858604633199055,-0.3475339449420253,-0.31562211425235787,-0.28039140155406284,-0.2443511082399229,-0.22773646219025312,-0.24485391525593253,-0.2707467292512577,-0.2876442047117973,-0.28922713156948004,-0.28491325275061186,-0.27992056702423473,-0.26802005130393053,-0.22733341410647837,-0.14670094024840583,-0.044542910585361424,0.05122804863476,0.12709932485831257,0.1783231065110997,0.20827018057064095,0.23856574886161813,0.2810317540519409,0.326259661810468,0.35915087966851583,0.3737425018150092,0.38462315643479883,0.44373787680061005,0.5621498645508125,0.6752243959970653,0.7415783292802606,0.7841847738202923,0.8140903184081567,0.8188419209191145,0.7887546847783591,0.7407116841514153,0.7075395343205918,0.7018887487691965,0.715975760588998,0.7401990424558469,0.7656932814863106,0.7811112425168671,0.776103643321454,0.7226990255111232,0.6253327956650417,0.5426951353150342,0.5148463485681857,0.539806109771212,0.5879421911890137,0.6131079428093456,0.6023157702218614,0.5541010059394091,0.47265524417604693,0.3765452769458309,0.28743698408375523,0.20776759381958979,0.13151680264202242,0.052926127494087746,-0.03371997815212026,-0.13100027533188321,-0.22940551332351328,-0.3017894267172756,-0.3491197896297223,-0.3831219563471484,-0.43475465750933784,-0.5040105717860931,-0.5778237440016135,-0.6503191881328269,-0.7164629421530806,-0.7716710038276484,-0.8114377841838174,-0.8349805347008,-0.8501734041417045,-0.8543708367859094,-0.8352525228724741,-0.7771001897983995,-0.6752992717475456,-0.555135890015596,-0.45240105868458086,-0.38812466007275187,-0.37395100854357377,-0.4181314626932004,-0.49831020150606514,-0.561672241137878,-0.5936516060627781,-0.609718054888586,-0.6040748282508267,-0.5600022204440598,-0.47400269297326286,-0.36785678124981064,-0.27617945590274084,-0.21267976906667954,-0.17245153248485987,-0.15623505436903903,-0.15940013833556296,-0.15381820866506454,-0.10192676830335139,-0.029505844739851548,0.030225624321884994,0.07213681208653085,0.10225073989556065,0.12723301393030018,0.15297236736045577,0.18647023650375213,0.23982615852456382,0.3205586419614261,0.41819176957858883,0.5266877686615632,0.6421686545395816,0.7293288372741271,0.7752134059997777,0.793399940251268,0.8017080477758903,0.8161241940236936,0.8405517545125366,0.8663296652031819,0.8827427477756155,0.8876118572530042,0.882365887370808,0.8691789619002855,0.8506102319574909,0.8296160580859132,0.8067564897303634,0.7715304019417352,0.7134360941936422,0.6344876678503643,0.5550989665748458,0.49561420713771015,0.45179779043307533,0.40937080441706847,0.35751617583630596,0.2842781514738873,0.20211095887783942,0.11741967811307479,0.03378294640078294,-0.029488129227678062,-0.05266521432564308,-0.04183038469532501,-0.021656708266875647,-0.026507999240562286,-0.07897872594341801,-0.15610459608862048,-0.23178945985502616,-0.28679410612353057,-0.32978339575388627,-0.36860510126785334,-0.4084129662802472,-0.4493995658933897,-0.48130568142645597,-0.49735806638965646,-0.4814820174919196,-0.43912236523206155,-0.3957682837796193,-0.3704082744258756,-0.3592952371506762,-0.34991841264723206,-0.3415836269619012,-0.3317178739344883,-0.3101118728634483,-0.27232025534972115,-0.2305329337799339,-0.1991763278279363,-0.19397350557425774,-0.2284179795570669,-0.30547459407883876,-0.39486292929585887,-0.46099053503202164,-0.5062022902226825,-0.5316151087524004,-0.5162047997974039,-0.43327496565954127,-0.29503389916657524,-0.17322136711439254,-0.1011063474807864,-0.046644961027932086,0.024716398398587067,0.12085943171517716,0.22664298412572662,0.32400135450977885,0.38927000828901637,0.4265855343854316,0.4488945511466644,0.4724484298292744,0.5063579286590635,0.5415449090393083,0.5772156917267409,0.607390010346368,0.630893871698933,0.6500002157333291,0.6626468867406274,0.6765468245203771,0.6871732470779486,0.6967249847913729,0.7151814367582054,0.7576307494458001,0.8034930186211935,0.8380369218020414,0.8556643539187279,0.8579090099971042,0.8422527831086251,0.8058092523652082,0.7456128778658225,0.6581350046546076,0.5286055031208948,0.37571801337491695,0.25359316355679035,0.17601565148516518,0.11414565801254878,0.05011988156286717,0.0003009798339319576,-0.03470237125037331,-0.06259869794983468,-0.08637892790131625,-0.1008265118441484,-0.09825621861957622,-0.08322926816920126,-0.08490328374250268,-0.14560680365101805,-0.29277009731117376,-0.48118368951443247,-0.6113687976235799,-0.6788317864652413,-0.6952952426581053,-0.6786333569031099,-0.663760590408003,-0.6569453962319314,-0.6444157880140632,-0.6252237832330851,-0.6202752766269601,-0.6298852191309232,-0.6313933815693723,-0.6068056888323095,-0.5590535394782794,-0.5108005960872976,-0.46569691081826736,-0.4298802318434714,-0.3829962694215714,-0.31488579831775726,-0.2417733318529245,-0.19247245268716462,-0.18382133521447894,-0.23460950970445088,-0.35446286242351127,-0.5175741785014762,-0.6435551219791269,-0.6975699680902238,-0.6986639159028005,-0.6542281063302424,-0.5448307463096199,-0.3357891793401083,-0.04719162316547236,0.18781807340310408,0.2928434192426953,0.2888137511747412,0.22395692689065536,0.14225009563542448,0.07316193267624096,0.02724058902873112,0.00214518446657258,0.012201961270303728,0.06674326053164586,0.1537780569013301,0.2562794349427908,0.3628312684010551,0.4618504754828896,0.5364976466417946,0.5790909716605792,0.5945961018623083,0.6071495087143658,0.6328555336879066,0.6715529661993095,0.7162714570901725,0.7579806987297869,0.7800176788170561,0.7790195729864902,0.7651948827516121,0.7482893951232393,0.7375242400912766,0.7323549027085503,0.721049176144511,0.6925892646605226,0.646577587428837,0.5824438183657425,0.5016513605304487,0.4079268614680734,0.32844081093477684,0.2855142824006968,0.27664884362512526,0.290578021781994,0.2986757588144276,0.2707429809676307,0.20788505280925854,0.13261590383026015,0.06559664763455063,0.003316301609270554,-0.055538642404045865,-0.10896772018879065,-0.1406780485640219,-0.14542225900036254,-0.12774635105469212,-0.10406066327617575,-0.08492040349393376,-0.09207622012881796,-0.13287008487791752,-0.20839918012267353,-0.2985532263547161,-0.38451877896435904,-0.45586323601644946,-0.509540638596597,-0.5518577052664874,-0.5933911949746526,-0.6369645922979233,-0.6821281958005901,-0.718042337323307,-0.7310080632637167,-0.7110777575998035,-0.6577531824036638,-0.5767047323376285,-0.4873666886201004,-0.4172485017772279,-0.38223398530718733,-0.37494609152403957,-0.3956573209030881,-0.44558389351449923,-0.5009148298556364,-0.538581588767056,-0.5515076384680729,-0.5372782724407091,-0.4869002956793456,-0.40653954197650805,-0.3158795656086176,-0.236071218726983,-0.18354946481302947,-0.16386879806345134,-0.16389291138152245,-0.15793509209950396,-0.12718369577215735,-0.045127377103231794,0.09230450741222106,0.24532864129942017,0.36968504947964703,0.45546836479015684,0.5138297013038722,0.5595012471269375,0.5984440428627185,0.6325704168404951,0.6607161572246553,0.6833354878727397,0.7005501024801178,0.7148984035384087,0.7252452476286189,0.7293141306462507,0.7305280596392872,0.7379507984332989,0.7509328831833652,0.7445594796841113,0.6993420591964269,0.6508794636751353,0.6348761744710368,0.6433164832828276,0.6550594004662992,0.6379796335936971,0.5506901257243492,0.3575334539147141,0.09823985286697072,-0.11097217946929845,-0.20663802089734662,-0.19075031809341905,-0.07349511388646399,0.11203611966189561,0.309713148277835,0.4509271465170268,0.5007481023068419,0.4683824933727504,0.3668432097056941,0.22953672595777924,0.07648076565430521,-0.07371760998372791,-0.19327006952044815,-0.2861771653108521,-0.37363039748715493,-0.46844055648202143,-0.55787051766136,-0.5968705327192464,-0.5190543895369911,-0.3634296747356177,-0.2964115667609936,-0.34738325744649595,-0.45005668003223076,-0.5324439949292573,-0.5913803519428451,-0.639001855531082,-0.6685358908870579,-0.6696294051951593,-0.6398743232144132,-0.5836516310924288,-0.5201606657374674,-0.4633774219678191,-0.39977297983388577,-0.3145869913910047,-0.21767296041405387,-0.1415717677013359,-0.12426940244884949,-0.17947468623825596,-0.28706268732165974,-0.39943269411357674,-0.4774370138674739,-0.5051442285063711,-0.4787417710737467,-0.41387319771809006,-0.31708593242556954,-0.22463087756007666,-0.17168875794146143,-0.1582282615046173,-0.143432955802452,-0.07163676808612662,0.0668765390183469,0.24468814698732866,0.4203999025576311,0.5662710219257423,0.6662951922506309,0.7206220517232585,0.7386048815607533,0.7350796790870444,0.7233223999069838,0.7087552565255726,0.6983733882342035,0.6994595426229396,0.7096017122029397,0.7249956560155376,0.7443369287539559,0.7693782990578065,0.7956572624098945,0.8114673599601526,0.8130624004505252,0.8072603208876805,0.8059752148215618,0.8130670726857194,0.823213926160923,0.8240251796168135,0.7983031830661239,0.7456260783337817,0.6731642671270569,0.5838336295514218,0.47571386709804725,0.36451087743761823,0.26851396579166126,0.1955436635216059,0.1507845150430113,0.1248601531621238,0.1098104459797348,0.09111650389564677,0.059139763947625046,0.007678646655785286,-0.05435540529717801,-0.12598180909385426,-0.20761504491151184,-0.2977203719425153,-0.3965517560246573,-0.49202900384478176,-0.5637798581900401,-0.5953981390248726,-0.5924761722171817,-0.5742821246577244,-0.5652433249817225,-0.5864798723862548,-0.6420380741229902,-0.7150545659699871,-0.7666953491563753,-0.78967452507749,-0.7984184602279232,-0.7981245946941927,-0.78820758457146,-0.7667787460734894,-0.7347154382927995,-0.6843254233019714,-0.6073794773605469,-0.5021325447005683,-0.38946798984405284,-0.2915085935097703,-0.22716720212176328,-0.20187981364502539,-0.22832883039780905,-0.30949115210890976,-0.41811280322113786,-0.5065665376368608,-0.5486871830431375,-0.5564685484980224,-0.5363846975563583,-0.47009952170834923,-0.364366039510677,-0.2564491836666756,-0.18481032329329428,-0.1505122851447477,-0.1369004717429781,-0.10459748172929459,-0.033262180767928536,0.0729165570561072,0.21228168289891178,0.3885813260195281,0.5266513604957767,0.5828614693315739,0.598927569799515,0.6041696331083167,0.607608885407785,0.6189743223456569,0.6455940436144572,0.679397021910196,0.7122306411285899,0.7419597236494249,0.7674987774040098,0.7849825747867476,0.8007093805987211,0.8167178851911304,0.824690874320385,0.8171151848520165,0.7949319914096321,0.7830496667919689,0.7923296762604711,0.8148547045408439,0.8362227780170349,0.8403787668309244,0.8135062291849517,0.7431031222386703,0.640576560616192,0.5317354809743183,0.4435127751318083,0.38157954975006914,0.33359451965523046,0.2840043815433188,0.2222508904884567,0.1524907073193351,0.09042012427617653,0.05613114409102582,0.034701600835379286,0.012060638836393208,-0.011565732276140776,-0.04019626249545207,-0.08592922322772353,-0.1572993055635943,-0.2521661167742745,-0.3565457739011374,-0.4644281705440137,-0.5662646882464479,-0.6313340879609289,-0.6475694046222683,-0.6348762673463343,-0.6254034451896551,-0.6343164866767166,-0.6609633047179094,-0.6957522658625438,-0.7195076474854454,-0.7159966423658312,-0.6803924570904062,-0.5993969827451887,-0.47552197977460603,-0.3565558819852687,-0.28975774016303685,-0.2815507940239416,-0.3184238298339321,-0.3849341949432741,-0.46646934370766546,-0.5547360994060919,-0.6363650802707302,-0.6895420739967062,-0.7071478034097736,-0.6886149239926979,-0.6320789121700385,-0.5363376357745326,-0.413194053672005,-0.28212505181720726,-0.16802895220806421,-0.09452511998332848,-0.06009050635198948,-0.04683181333941937,-0.0361684187560023,-0.011206361198509797,0.04401209585535741,0.125050978143798,0.21394624087361117,0.28944741584464484,0.34027240600854775,0.37610978453904925,0.41853395531266213,0.4780414778527061,0.5623379926365624,0.6560634582459354,0.7313573746987383,0.7761766315714502,0.79467412409638,0.797507008700457,0.7994027629614227,0.8042823237448127,0.7989314629877946,0.7785496913766812,0.7576506869815794,0.746167395062818,0.7370852388686807,0.7208743108202228,0.6947347195474269,0.6643244201545416,0.6375373841464881,0.6186628107464289,0.6037950562393873,0.581738284843131,0.5356076868890243,0.45809692678812686,0.368674834519968,0.306021749058481,0.2625087596014736,0.20869705002925937,0.12074377084613372,-0.005256427103335725,-0.12070035020809607,-0.18804019832203872,-0.21922123048329747,-0.2312444578110292,-0.23595348920923223,-0.22782287259366885,-0.1731206742319491,-0.09706728455528948,-0.04274808485391483,-0.026236139779539855,-0.0931106075912752,-0.3047567670974717,-0.49102452462395924,-0.6207940190114578,-0.7593875862986689,-0.8637762698513022,-0.9024741305268141,-0.895604759578007,-0.872680434110266,-0.8474204994391413,-0.8293994322197639,-0.8150827281258972,-0.7714376922119432,-0.6670297869634005,-0.5168605672804741,-0.372056236765488,-0.26048430214168466,-0.18826105594977968,-0.16369872524338672,-0.19538601622470647,-0.2740239087421198,-0.35146199505905773,-0.39797239345463625,-0.43307817927424747,-0.4713580696068696,-0.5071283192006882,-0.5279622659562844,-0.5369863800936754,-0.5333863480361055,-0.5143787597691737,-0.4668635524564306,-0.38763525944102795,-0.2763787605802259,-0.13043488281409582,0.04029216031543132,0.194822384309874,0.30713283687223536,0.3775683785752241,0.42244534487722163,0.4522231481522536,0.4796059495334918,0.515613213307077,0.5604543334158067,0.5940955005229358,0.6100213886422433,0.6010109391101365,0.5673192188272286,0.5421923212780785,0.5546153691105066,0.6049448609706092,0.6781727136204404,0.752538937899297,0.8122533700671603,0.8476632786694905,0.863051983595882,0.8697830861182989,0.8744090026980531,0.876101685413988,0.8765178761942558,0.8623083621051199,0.8144450618618491,0.7406778143493519,0.6695141079325104,0.6192305093522777,0.5850856782385004,0.5411483591853852,0.4600024166969489,0.32181836943680014,0.14327207617593507,-0.033829945677746324,-0.16194046698518208,-0.23868536949957417,-0.2748812831769968,-0.28202168151606377,-0.26707122791455945,-0.23026137538591912,-0.1887770496468548,-0.16436490088062997,-0.17013242004112522,-0.21760070689565297,-0.2921653890121426,-0.36710660236064163,-0.420265195537061,-0.45235902804518746,-0.47965032599432156,-0.5232934283111697,-0.5908121690425135,-0.6753905569913183,-0.7514275627852774,-0.7884129759162766,-0.7718155916416459,-0.7156888573426506,-0.6289086610561581,-0.5141514272337478,-0.3875056103398126,-0.2779398371282261,-0.21523692629971616,-0.20693552530699907,-0.23914487378562074,-0.2920999724358084,-0.35569533919829793,-0.42611756436053116,-0.49892281898297125,-0.5548654343778443,-0.5365724149598635,-0.42483454320624653,-0.3200445548093351,-0.25335440065202036,-0.21479038579312876,-0.1906726224057011,-0.16947478264270152,-0.13086120143175795,-0.04779572887495956,0.09398015777240798,0.2634171498151353,0.40432493636686356,0.4952803586451088,0.5469245293010639,0.5751421518729068,0.593247371895832,0.6087384310670182,0.6263814008322367,0.6563354562779631,0.6960001890437043,0.7409546649372073,0.7833769416836311,0.7979777447584651,0.7982024675408084,0.8060031264617525,0.8187261456077918,0.8309177434829218,0.841848258738411,0.853107876078978,0.8623026591821658,0.8663464425737025,0.8592662492271651,0.835700703475939,0.7969228576978713,0.7404449912531408,0.6582189217665075,0.5422107700707685,0.38833417202782317,0.24134853913753013,0.13526766599760767,0.06638601844448233,0.021974060579817892,-0.0037147629494639262,-0.03553929447000412,-0.07348461661781475,-0.10468155488139906,-0.10805328461788984,-0.06688332928589005,0.020890332907123103,0.13143752362716687,0.21433200574870384,0.21965089866052462,0.10414475837581248,-0.14032095964603902,-0.3839512117084507,-0.5370117446363528,-0.6254499851853867,-0.675825021746853,-0.707786251333388,-0.7190838384488311,-0.6988786208705523,-0.6575412787632778,-0.658906715009278,-0.7381137831011558,-0.8387134479702498,-0.8791714268476574,-0.8649489057507054,-0.834931451445855,-0.7891590216090424,-0.684250424995926,-0.44716277620626466,-0.13168228198470344,0.08873488948846996,0.15833899515136818,0.10728263573807009,-0.04470143681406126,-0.25797000115153246,-0.4243914047826766,-0.4926852578216199,-0.5026013652573353,-0.4790798083139324,-0.4311436458972009,-0.36654160325975826,-0.2885682775833159,-0.20495271752625446,-0.13260642317779925,-0.0836209648359136,-0.0630320242807571,-0.061482631026141196,-0.04809798698302797,0.00034070199644250344,0.082458367498193,0.18262678552698947,0.29301904393542866,0.4032919654462577,0.4949059922614337,0.5548072053890176,0.5891466699565279,0.6032418217970041,0.6046158856896146,0.6019555178984822,0.6094900576119472,0.6327000120031961,0.6560896317442728,0.6735185355300541,0.6902079665227179,0.6996014029645,0.7065460896262794,0.7213543040958155,0.7451966738695318,0.7765732657998938,0.804945784999101,0.8256267662795627,0.8342118272412196,0.8277307218467681,0.7995061486528026,0.746448771652182,0.6846943939205025,0.6305683916507265,0.583588967774338,0.5374247979130125,0.4873175356634622,0.4272226374626791,0.35487710362038805,0.28547323348288994,0.22237220798593038,0.15323209514706745,0.07201705325143996,-0.013693085323032114,-0.09171435128058048,-0.16664506182104374,-0.2399604139423713,-0.30582617165919407,-0.3510875681698817,-0.3898659573727993,-0.4274293272643173,-0.42904822848526514,-0.36912784009709504,-0.3141882145565282,-0.3285715229812167,-0.4367729612012129,-0.6070018580266003,-0.6540278873026034,-0.6171724720928621,-0.601024754332935,-0.6155243984986472,-0.6475694842991979,-0.6861067140981028,-0.6953953336205088,-0.603241970364073,-0.46925260102694943,-0.40045089884229496,-0.39462032497271393,-0.4354516147447498,-0.5114994774616923,-0.5965451184999149,-0.6564598671373686,-0.6701667153644124,-0.6362848111178725,-0.5591309607252765,-0.4511985804563376,-0.33908703198959234,-0.2648248135021197,-0.2483280305653006,-0.2655739469830037,-0.2920581015672491,-0.3186430905681469,-0.3223419531933922,-0.28425194935090986,-0.19417898457317473,-0.03898091973965098,0.16936582649996232,0.35973835009600813,0.4880435124631276,0.5553516207225079,0.5830756376432057,0.5904287502444922,0.5859462358732613,0.5764424100606611,0.5532950606577723,0.5325746775728014,0.5636139631748205,0.6356007703943672,0.7019190404495215,0.7358720208842242,0.7362479807290349,0.7206600822566663,0.7126704399215781,0.7243156263360744,0.7440313431194083,0.740803693535305,0.7071681351744715,0.6620121200751198,0.6373285041560969,0.6509725884064919,0.6759712702374113,0.6765524656879378,0.6477948780281501,0.5915724759289512,0.5064264314033731,0.424654115820262,0.37113595452330334,0.3387761639310766,0.31933197686294174,0.3117952476854659,0.3049842910644207,0.2784007420964841,0.21064651957496314,0.07707261122216624,-0.08507910709346767,-0.21151622427350972,-0.28102622128871463,-0.3265531770415148,-0.3668332603760169,-0.4012158389007655,-0.4301823566383181,-0.4719738282496251,-0.5123313668783198,-0.5321182110999442,-0.5174320115763084,-0.46948084392240386,-0.43061351194062136,-0.4599492981405178,-0.558732597864089,-0.669114056359082,-0.7499664217125208,-0.8002722944164017,-0.8183762350219304,-0.8038879436571772,-0.7337922637116632,-0.6077705692202305,-0.47054377665492814,-0.368257851112036,-0.3150457867677391,-0.32121074169352615,-0.3951203820026283,-0.5167277210776067,-0.6284967567080173,-0.6968714263938707,-0.7261580591703665,-0.7287566932950705,-0.7081046399208437,-0.663386687507658,-0.5849971499506778,-0.47095372214640113,-0.3310401902088185,-0.1828967020617766,-0.04583485560455006,0.08319453913976857,0.19424742555133478,0.2681530147858834,0.31530340640198895,0.35586875214693325,0.39754781486370044,0.44603359007151266,0.5039609689498237,0.544326311538939,0.5890713426028973,0.6603757669640798,0.7434477298032083,0.7941681839766922,0.7898448521292643,0.7621869621514575,0.7280678080047321,0.6882011169464882,0.6420139763461308,0.6079582957007004,0.6106291194420731,0.6671272650625669,0.7703693523323762,0.8641684204645799,0.8787542419076803,0.8270385035492606,0.7506737984654557,0.673227365810093,0.6033235024373925,0.5388324366754574,0.4686547534667297,0.3833898778395243,0.31114322289570795,0.26824168310756963,0.2490042828893315,0.23366608609599807,0.2083122795847782,0.18830023295583526,0.18413889471958947,0.17668264798511304,0.13019420413307098,0.03029484574111802,-0.09563549003304316,-0.21977325462859232,-0.32114560458956626,-0.39243841691609155,-0.4388833468724707,-0.44992566162287556,-0.44447858028710613,-0.4710430538346011,-0.5249962320405812,-0.5752510291591745,-0.6303811519575966,-0.6878908970079053,-0.7296709381677229,-0.7559358919521674,-0.7769774988046045,-0.7949766472421326,-0.8031756040310745,-0.7949228477676918,-0.7600725066090193,-0.688351995587643,-0.5842208840952133,-0.466578257104261,-0.35899424713155903,-0.2707058153837047,-0.20748924637215208,-0.18656691265825223,-0.22760117230095206,-0.3281606033657709,-0.4415136689977369,-0.5125844127265632,-0.5282474626455699,-0.49303374197186556,-0.4185432198705613,-0.3277461321213065,-0.25230314930916764,-0.20276116180798065,-0.1733280011816958,-0.14753486880653674,-0.09432821669430014,-0.005749336817043698,0.09036834024821563,0.16529245607564438,0.21843604396617572,0.25989099640169616,0.2977140203907022,0.3435175246856544,0.3926792473373652,0.4418595451091687,0.49057517884521695,0.5307182189961562,0.560470590592341,0.5810484950922987,0.6031238127732107,0.6292929916309151,0.6615041264760212,0.6947756795805451,0.725475395819076,0.7525057502529447,0.7771598092034245,0.7968256681513521,0.80388048843208,0.8001557234301923,0.7818860806711159,0.7536297684212869,0.7194549656312091,0.6822201400941463,0.6283481916789059,0.548425552126185,0.451634690109743,0.36405201155604877,0.30830562097054137,0.2932194247154075,0.2952472434964416,0.29188699326277506,0.28072298023879294,0.2610993933940069,0.23877444167078268,0.20012005704487285,0.12266398380453532,0.013382505802299893,-0.10903331152626741,-0.22719505391471467,-0.3359110382823847,-0.44071027156547254,-0.5425194353032823,-0.6349215775033059,-0.6952683304820699,-0.7080984151494185,-0.6805486109703327,-0.634567825544897,-0.5978054379299266,-0.5805797935143429,-0.582082474281167,-0.5902194925490477,-0.6150517584142464,-0.6632140405220508,-0.7279328299423521,-0.7889811510291521,-0.8003531937463131,-0.7207317148219179,-0.5632088547138321,-0.41173907114268204,-0.3029263743012619,-0.22054341342225145,-0.17338044353616064,-0.17384612679940215,-0.23068771510815472,-0.32642292254294275,-0.4315565158767033,-0.5025046402438268,-0.5232927828113921,-0.49365969765602863,-0.4166896791271629,-0.3026659723207047,-0.18028506830931587,-0.07901463681277766,-0.014396384392437714,0.006605907455786339,0.013970245086224853,0.05082640938893288,0.13190811417365284,0.23114236343916253,0.304968774057158,0.3443558734368809,0.3661144680359444,0.40053849164714295,0.47053521272055365,0.571784993629593,0.6701343757805368,0.7313365553253778,0.7612323982761445,0.7845358178303723,0.8068717537838002,0.8202256427940559,0.8207746661254551,0.8209763184496507,0.8305633581845908,0.8409796369303627,0.8380385464720472,0.8303676097420493,0.8332611373594403,0.8459182534557044,0.8629640988260177,0.8739544205314042,0.8706556674286487,0.8462940323672796,0.7842909021318976,0.6698667099978249,0.5182015048717459,0.37663345269462073,0.29093121751415996,0.26152031369947204,0.26692495494058527,0.27586004696461364,0.2825298207689976,0.27106750248456984,0.23026974494033228,0.15461098457099504,0.06585125025339193,-0.024132015844179934,-0.12820562289048526,-0.2369647672957904,-0.3382760920796402,-0.4161580162561488,-0.4802479067934231,-0.5461505384560094,-0.6222395364871519,-0.6980638261318033,-0.7438339741514918,-0.7301813301929297,-0.6691547885427898,-0.6041263035199997,-0.5763588077336158,-0.5908246135165236,-0.6479514408984194,-0.7091336847824412,-0.7445520923666568,-0.731371036372378,-0.6766615837455195,-0.5880163285878135,-0.4946823709002826,-0.41951647411495785,-0.37464227954737883,-0.359050538050728,-0.35155328743367326,-0.34422044237257304,-0.3426204265044208,-0.35052478385527325,-0.3527871880658802,-0.35221864675763365,-0.36799029215799584,-0.39413558412758687,-0.41484202761951416,-0.4041933399561169,-0.35351333147648695,-0.2584377380699063,-0.1377548820029773,-0.03299223100687156,0.030777983582695827,0.04768907008606093,0.04959315072372882,0.06040361057491717,0.08833310465803541,0.1230618364201933,0.15903391130705544,0.1855992237988929,0.20834250801624177,0.22363002784568176,0.20010793920008169,0.1321484453026648,0.043966961581849325,-0.03494979358233574,-0.08575291956772928,-0.07369752056674324,0.03927492319369104,0.26192446309902173,0.48064839802178555,0.6126549961351434,0.7043503943220609,0.771529598564804,0.8042985298495786,0.8078760637669374,0.7954550364681486,0.7769513016983535,0.7628646138955466,0.7530380688289428,0.7325892779674444,0.670290111742615,0.5584710651170363,0.44150402255989557,0.35961680474687124,0.32730956124235944,0.32634490478108025,0.3370444967828341,0.34647050170908994,0.35696485053948684,0.3628344512988448,0.34545287648557055,0.28471087536242173,0.18793927111040085,0.08032335542759524,-0.0229516425876188,-0.11238650998828073,-0.18507005900447793,-0.24047013105698462,-0.2857355513880352,-0.32575321123425766,-0.3665683001446176,-0.41140980986699727,-0.45428879249140214,-0.48375596093482404,-0.46411575085790585,-0.4183382526613421,-0.42370945704388263,-0.49254652908277197,-0.598287747096906,-0.6741295899004927,-0.6814320893137816,-0.6184536769290321,-0.5122787057677067,-0.41204615942913503,-0.341895347983021,-0.29722216839205307,-0.274230348885067,-0.2771578976572171,-0.31056348115544113,-0.37321056035295835,-0.4434454612581265,-0.4974027929909678,-0.5312463482976117,-0.5402412083086408,-0.5166054676337436,-0.46304490937443726,-0.4068809951382751,-0.3693083366460839,-0.35079301914599437,-0.3419521973408902,-0.32215211260996535,-0.25732760834262586,-0.12894174253565696,0.03989301613812184,0.19265114094650493,0.31091467581879867,0.3942414796782859,0.44844476288843665,0.46196910398435126,0.4348596808012057,0.38294758886381863,0.344328279412565,0.3564958618965916,0.4335306332347597,0.5463495528656697,0.6478403106811601,0.7230035154441008,0.7798412652154305,0.8226406358542449,0.8428277845724995,0.8331341926412881,0.8059771019926859,0.7960163336393696,0.8000284729361037,0.8012452692350396,0.797485183330011,0.7899345155803847,0.7700350783076284,0.7229698745414304,0.6316988338730908,0.5042753005490189,0.37454153632208925,0.2772789847789337,0.23606765334259922,0.24057912610464455,0.26804564418456095,0.2892184684284966,0.2769211997893157,0.21290779660363987,0.11196939276700492,0.019824310250467655,-0.04405103695913745,-0.07425325391974746,-0.07952025891589605,-0.0607552802241851,-0.026788466618411513,-0.016636343149368408,-0.06693517983635548,-0.1729065191831858,-0.30033842649538056,-0.4297253061314973,-0.5528371620941086,-0.6613787208285954,-0.736961981208953,-0.7633930994943346,-0.7632272549066926,-0.763302039998252,-0.771255449888091,-0.7712982545971772,-0.7337436455134208,-0.6644018155306176,-0.5834322961462358,-0.5030304404301161,-0.42737098430191117,-0.3515338136105775,-0.2705023238393357,-0.19441190267436495,-0.14778921437892756,-0.1518283031378993,-0.1994611677651173,-0.25242872011613326,-0.2863733433495614,-0.3032041759697998,-0.31856202417300905,-0.3378498994932833,-0.3639019868669662,-0.3996438338968945,-0.4304662991606087,-0.44159279396168327,-0.4061234721337472,-0.31793372695342575,-0.18786460495097504,-0.05599521591366588,0.061955828809290396,0.17408792653422878,0.2858724092502732,0.3974893415376603,0.5042292218016957,0.6026397250822203,0.6721292045428882,0.6938288556098577,0.6827951482893824,0.6519712172119471,0.6206791839566537,0.608863092348131,0.6253882328456106,0.6569061136322528,0.6818646423867734,0.6978949785202,0.7099930213342022,0.7229609841011253,0.7345480314947643,0.7439044083475945,0.7461453045611264,0.7380060604948256,0.723505362023246,0.7059921955405107,0.695636361372368,0.6940621787099555,0.660989568920673,0.5484457216337685,0.41530762157326895,0.3335502046902416,0.30227705485596423,0.29576676592268214,0.25708183807799234,0.1872379226067922,0.12410773725851938,0.07730286957948454,0.04841575404032139,0.03746777018017702,0.040210195850520575,0.04341843329026337,0.03937606123168465,0.020148868837561604,-0.02084347434832175,-0.08198441331442038,-0.1254797006776055,-0.1461626084910197,-0.16050940533930583,-0.17197503241228795,-0.18353177319506492,-0.20512317513085626,-0.25362564916612407,-0.34340511962813686,-0.493194866258684,-0.6833551854501367,-0.7854461626704904,-0.7729015221453728,-0.7206215971059242,-0.664846692834443,-0.6139614435811432,-0.5664501028013111,-0.5227137924480085,-0.48126321323579163,-0.4505037361213624,-0.43419983650887317,-0.4318976465241354,-0.44528997071562676,-0.4698119721970433,-0.49091803226668573,-0.49500238765484755,-0.47490130552367404,-0.44378787946677817,-0.41476702469283455,-0.3971361967664816,-0.38572795484093503,-0.36465252235153317,-0.3264439090438172,-0.28024172907138084,-0.23286147155566195,-0.16528847896565618,-0.06394099719911792,0.06205264482048214,0.16989536339832664,0.22705545563079613,0.23665606499411457,0.22567006892554878,0.22462695746781153,0.24530001375615476,0.2832933858623041,0.3212052224732962,0.33707018546250395,0.3292322835051713,0.3208776486286028,0.33894106398848034,0.4009460802143983,0.5106498246675634,0.6734942736988582,0.7662046043126831,0.5386492350865997,0.33073347594913755,0.22413367586212338,0.1725938622078016,0.15616334761129988,0.17603430159721548,0.25034268853220215,0.4101079169720928,0.64823659469961,0.7985748953546151,0.760659311581359,0.6397172231885383,0.5083577515802693,0.40370012082485474,0.340528748967492,0.3152269752737566,0.30457880450634417,0.29380495108974447,0.26724951797278157,0.21034181801080223,0.10692389106313782,-0.05138341235650024,-0.23345689687713891,-0.3882560710317633,-0.49001760949979767,-0.5507192010102869,-0.5818302803869883,-0.586961431306885,-0.571150786603997,-0.5537145107459472,-0.5456772264464487,-0.540577279325233,-0.5403307493471928,-0.5613387953821812,-0.6058311555418864,-0.6579185485248661,-0.7008010419417062,-0.7347392246663603,-0.7430677904798167,-0.7211694028266771,-0.6756433012650085,-0.6272443234111248,-0.5827489519770167,-0.5253586900571384,-0.4446448288549677,-0.3523186880820354,-0.262778162354126,-0.1981391869335398,-0.17731055410094623,-0.2027454991159098,-0.261833043089204,-0.31274466330721856,-0.3338421585560272,-0.34374829825419817,-0.3556808035604833,-0.3752715962603253,-0.37493098182323614,-0.33359281473958324,-0.28154266362159147,-0.24527012269872447,-0.20913831217015766,-0.1362367294517639,-0.02960055733804736,0.08909910497526095,0.18924515083482762,0.25974537639426254,0.29680786789728353,0.3196450806926306,0.35138457625689945,0.4068831169326513,0.4799155941509482,0.5389875033355931,0.5655948864852405,0.5883645965272251,0.6216172407090925,0.6559353357149054,0.6860794109841332,0.7211126573583353,0.7682482102624103,0.8170033369772317,0.8546858180271283,0.8746538816877426,0.8791355177546448,0.8764072494906795,0.8672215040874298,0.8554822062881614,0.8309733536760754,0.7849639882749931,0.7229302283787297,0.6544264523195547,0.5876607719792583,0.5415982488560924,0.5198299955689066,0.5126777201986175,0.5061684131948185,0.48776097554830217,0.4419061973677009,0.3585674477847767,0.2445484184138371,0.11633107047680023,0.013286227164016328,-0.045356593982229416,-0.06348203172912642,-0.067369112848506,-0.08588943749140306,-0.1396036527410738,-0.22983231670800658,-0.33955354137819865,-0.42879001099896247,-0.47286705616199576,-0.4965694157571418,-0.5249424802897349,-0.5781281010646802,-0.6736206048618276,-0.8093136107650836,-0.8996872166430538,-0.9086043166421858,-0.8773915085815561,-0.8348444969015327,-0.7984140512209443,-0.7768411969015709,-0.7418669948247828,-0.6446690190645284,-0.4887125092026105,-0.3584301604104278,-0.3061818008108048,-0.3236924916988121,-0.3814290802947249,-0.4569245872282422,-0.5346352379977386,-0.5955566446534951,-0.6310287998818518,-0.6439409547669822,-0.6340809731099898,-0.6016390626651749,-0.542095019233134,-0.45532827454295993,-0.354646890649954,-0.26792057300521116,-0.21805630091815292,-0.19208695906859935,-0.1650126546526299,-0.11289143260322346,-0.02282408961503714,0.08923746612963013,0.19642740927015287,0.2829142065922788,0.36127296052189034,0.4288609918080283,0.47141435332108556,0.5017634793218908,0.5418811210853304,0.6065297248865885,0.6976240208721924,0.7817558771974706,0.8251561602558206,0.83797033239768,0.8443343293538873,0.8576092665310152,0.8794371740443452,0.8900357101641575,0.8716279666968392,0.8456381105000128,0.8333399955679998,0.8390268962832339,0.8553208728628583,0.8692718462841171,0.8660846416945369,0.842537866237076,0.7891956978413013,0.7038082674597967,0.6086676281641761,0.5291198591281923,0.46909147813781066,0.41452950224914226,0.3521526064767611,0.28096691123171963,0.21452101844722676,0.16426966492384099,0.1295550942969479,0.08935877626125396,0.03083796970617618,-0.0436674928063817,-0.13135579206878437,-0.22428583136761174,-0.3143567738449505,-0.40055613681553287,-0.477872510754178,-0.5528603286798602,-0.6266313076489868,-0.6969078323763225,-0.7539265887094716,-0.7735614689085807,-0.7469861795424514,-0.6955128857947718,-0.6510315720229753,-0.6181007913615959,-0.5950778388871996,-0.5737252149335843,-0.5506245868694986,-0.5187938037334382,-0.4757028182508376,-0.4329565253247709,-0.40989418240156356,-0.39738983487760066,-0.38600053366898285,-0.3750307401037968,-0.36662463612903823,-0.3700638434225211,-0.4045376371595777,-0.47347536558673053,-0.5478803375998008,-0.5979368420598359,-0.605127741248093,-0.5767202810157638,-0.5428248196191026,-0.5168310717129198,-0.4885794366368522,-0.42949131129401,-0.31626991229755114,-0.1490700951509588,0.02809185200967743,0.15891587814888028,0.24128403640030158,0.28891322484459836,0.3218776225356384,0.34659642335533825,0.36457226809007565,0.3803756812119177,0.39970611734339784,0.4211315159579838,0.4430898263610759,0.4657169191096932,0.4884442599904669,0.5354048163804049,0.6181384434309103,0.7134413059388757,0.7872295116019004,0.8337222269595728,0.8552461973181608,0.8544991301176592,0.8390464141125279,0.8239296636504025,0.8111522417625405,0.7981890292255136,0.7815665680844504,0.7643834084540572,0.7472096625258406,0.7279194192845551,0.6795685352298587,0.5753370839410316,0.4301505903140748,0.3052569639822357,0.23366995100930205,0.2168908856255698,0.2508704874920631,0.32781844661327647,0.4103888372690583,0.4636774684823719,0.47615701229722307,0.43746077907112624,0.3390232176289703,0.1847538886543725,0.018669836921528182,-0.12060159387603545,-0.23058698137505204,-0.31164769902393824,-0.38120216251144495,-0.45733609185580687,-0.5370359338918502,-0.6141114691752076,-0.6703079890976764,-0.6871924806192513,-0.6589342987559927,-0.6041101967884737,-0.5619756174213231,-0.5675803932468172,-0.6204905886124071,-0.6846899415187652,-0.7343581298333549,-0.7646748203428722,-0.7754059471431943,-0.7619354985063959,-0.7188478425558857,-0.6401643528492444,-0.5130963853428331,-0.32488074647938775,-0.12201305302738392,0.01586781388299794,0.04291434464648061,-0.05903023871175729,-0.2752124198202668,-0.49798341254753514,-0.6259224296843631,-0.6640573955920932,-0.6433680900674279,-0.5838474987242213,-0.5174357299919763,-0.46470101076191744,-0.42245908930387155,-0.37012690010035887,-0.30200392070944027,-0.22371789531003666,-0.13772198569182786,-0.026476354631630162,0.10181094451974662,0.23271807832306202,0.357584262498128,0.47358935519000606,0.578106563233826,0.6533727991643593,0.6952186747704102,0.7261636851145122,0.7615498295505673,0.7841826819132092,0.768505183059468,0.7378939810427025,0.7278411271533588,0.7414753889724837,0.7642141116757892,0.7820284381544255,0.7809080009267787,0.7657341400976662,0.7576721977342248,0.7585060987451158,0.7603264077776697,0.7557713198958872,0.7346493350145015,0.6811134336938232,0.5736616821652328,0.4148310509754736,0.26354932344343535,0.18354000823713418,0.17497376294129124,0.20398349227924764,0.24213297055807706,0.26130821340717475,0.25029861948948856,0.21355919254789563,0.17228366070764561,0.13244845354524645,0.10063578083173111,0.0688298504154406,0.03738058399975895,0.003330114812453945,-0.03757335195795263,-0.08958967724794167,-0.1646674238042327,-0.27359132843107037,-0.3943108740974631,-0.49193862205428845,-0.5714601996275855,-0.6262130351864612,-0.6585243473117269,-0.6814410225888916,-0.7188706832910139,-0.7637807839308404,-0.7923495553974518,-0.7957820961965327,-0.7740441320978195,-0.7288027442351583,-0.664559019502597,-0.5788367055212307,-0.47470372631436686,-0.37118916900941357,-0.28530838014010973,-0.22714765528270608,-0.19847583835568275,-0.20447397445638038,-0.2516215699374582,-0.33469927162196633,-0.44382407359876347,-0.5414092697571841,-0.602125211236544,-0.6171356516114885,-0.5790252580391482,-0.4880235401551138,-0.37733664394688554,-0.2833016762252475,-0.2102165210287767,-0.14248585186386994,-0.06618042102697001,0.00573422412196763,0.0779408321224003,0.144209695076508,0.20765912219451418,0.2703647497348543,0.32934706729617974,0.3781057988759662,0.41498938881713326,0.4631428492727246,0.544743855416747,0.6444820880153419,0.7098352421406815,0.7329347733493357,0.7404985806234327,0.7578048778553801,0.7907548620916754,0.8275747304613691,0.8494374295943654,0.8396606222973008,0.8064384486200431,0.7793446362987305,0.7646005508771854,0.7547852909849095,0.7369906362983971,0.7036505818602429,0.6381151232342933,0.5331509098463278,0.4111319682631557,0.31533578234219356,0.27898272190761986,0.3085753628093237,0.3917194338669386,0.4856198455522686,0.5343137876573736,0.5209733335285714,0.43510107050937386,0.295373810931509,0.16029828961560344,0.06280533132222575,0.0028592546505933274,-0.031423996496846164,-0.056911164542752066,-0.09230771515943738,-0.13663163084329819,-0.18665526974744978,-0.23589922527012952,-0.2997789454293576,-0.38289782634337466,-0.4766024662601579,-0.565091683575408,-0.6307659747422706,-0.6717739321961981,-0.6967809032800866,-0.7134110291606608,-0.7208212086762439,-0.722510761356639,-0.7078888415264455,-0.6688925790292927,-0.6070597310612275,-0.5243104847079,-0.4259495255747047,-0.3272658070289977
