0.7550649218665616,0.7789589594140023,0.7833520335671397,0.7778097612039441,0.7706323989847859,0.764178535634507,0.7571334233231568,0.7471451649059805,0.7444222616343436,0.7510847444918973,0.760891316693048,0.7679279267532249,0.7731305459485387,0.7807960647063613,0.7903904954608297,0.7969041399885157,0.7858096013827515,0.710814951076433,0.5208364416039085,0.22831843579416286,-0.06360499359259467,-0.26416831697391324,-0.3511604522840374,-0.35393599434140216,-0.32536801653054953,-0.3094130507544037,-0.3141260050548341,-0.3068114660157061,-0.25757625433469744,-0.16485966228828786,-0.047007590763082335,0.06193511600502899,0.13770947726929525,0.15782405962031817,0.10411147156998424,-0.019468319760390224,-0.13140216282033376,-0.20834750912608144,-0.2727038814537162,-0.32883565600829145,-0.3858365205809378,-0.45051581695941884,-0.5342245796535003,-0.6219937587937451,-0.6906515337969464,-0.7287143713084427,-0.7542012203550792,-0.7565439416153779,-0.7183834925318394,-0.644697354709736,-0.5285237452619658,-0.3607321978055756,-0.1849165625357196,-0.055318015031633055,-0.00024461641610273903,-0.014496817495410853,-0.0756216996196496,-0.19435295726006452,-0.34993084986268347,-0.47942884157937576,-0.5417206644000538,-0.5218759465588308,-0.41873313091521247,-0.28618566700490194,-0.17681167026110234,-0.09332649673388532,-0.034969000323899165,-0.0007359008773692078,0.015684152065771624,0.025731490056512103,0.038976074945674226,0.057910596136332024,0.08526160941930057,0.12062299169290283,0.15489900010892874,0.19205996456976407,0.2468933343114571,0.30941394869362887,0.370635829569071,0.438611514091045,0.5207253863937387,0.6030605003399734,0.6676704612185637,0.7080708517159552,0.7288150578519395,0.7378082033952453,0.7355671769107597,0.7252549265721397,0.7051342631919242,0.6821341990710122,0.6702801936699994,0.6828124307105972,0.70776365288188,0.732543612570275,0.748772567322956,0.7595854671120962,0.764140757215456,0.7396080869001621,0.6652235549454196,0.5390389949948986,0.39921682137972303,0.2861459709273787,0.22862789763602728,0.2151470088557208,0.20627402921802873,0.18366734887889674,0.14434275281122533,0.10358606752276496,0.06060599351359761,0.0053601182249516,-0.051939757005299576,-0.10374286221703163,-0.15109956721077525,-0.20086639447421253,-0.26600789371406447,-0.3371847945397895,-0.4063612501359039,-0.46032579576266275,-0.4973512806600986,-0.5290457928824817,-0.5709704812441276,-0.6154751344506316,-0.6333411740866978,-0.6050328904754302,-0.579714860224949,-0.5910516745257,-0.6310228050841149,-0.6595436902177939,-0.6610774296627475,-0.6157497180037265,-0.5119704612823267,-0.37501292461051144,-0.2528481762208759,-0.17428033941494342,-0.1440208470832241,-0.16078652822909412,-0.21754009455467954,-0.29410253405085396,-0.36278843111270764,-0.42207550655274434,-0.45749627584023367,-0.4541987847408297,-0.4241778979110196,-0.3968917147365035,-0.3661238872975655,-0.3315031460472001,-0.29918917725621946,-0.25827352543557786,-0.1822127241612025,-0.04863685894741687,0.12280539580337091,0.28158271345730684,0.4069792746710205,0.48953813648606903,0.5435433787401713,0.5771990174859266,0.6132438270948763,0.653191352472882,0.6870101835361914,0.6917847330387641,0.6654161017719971,0.6285783135618334,0.6034008702721438,0.6048127055967715,0.6298487742720549,0.6777114351667547,0.732895540829617,0.7809808579208205,0.8117041426065416,0.8303480733085805,0.8377133516099149,0.8367048606907276,0.8312643431771949,0.8181337915465439,0.7949744415386351,0.768796402554083,0.7321049454479507,0.666036557885969,0.5584356021386848,0.4406095205545112,0.34176957958186643,0.27276634833541896,0.208221413549042,0.12586671328337967,0.02065233188100645,-0.12180746102445132,-0.30463912448125713,-0.48993186787350723,-0.6231594192180091,-0.6973625227613515,-0.7239115615167946,-0.7316990067136377,-0.7383579197675039,-0.7412371093926557,-0.7154399494933544,-0.6387038371387973,-0.5069723491794921,-0.39551942879560625,-0.36470191088705317,-0.3821913632052662,-0.38442818964684045,-0.3289707652826672,-0.19783902274489587,-0.036031533208203737,0.060832450782410646,0.033627639584365925,-0.11976949262961745,-0.28091229403799395,-0.35557934845031514,-0.3694136408920009,-0.3464665394850125,-0.29634290351856085,-0.23112869481891846,-0.16530556373649716,-0.10586455450315833,-0.055270295666906534,-0.02328052758748279,-0.025251389693289075,-0.06641722729522286,-0.1286281719008247,-0.17444478504069746,-0.19645661593033797,-0.19889078783680622,-0.1812620240867161,-0.13748757729401717,-0.06730769984098968,0.00834549679670918,0.0719584228918379,0.11679273808804085,0.15847011677929035,0.23426386317681877,0.346661183240317,0.4635230270608094,0.5418987133881725,0.578777172755187,0.5929206927097179,0.613392444026948,0.6559945400180166,0.7161357944431659,0.7728331134938892,0.8059259376327517,0.8213398306580779,0.8113827541081603,0.7784859625116397,0.7243997721665877,0.6547403605583415,0.5878591436361771,0.5303512528168398,0.48151896710437136,0.43758627469287986,0.4144110306760073,0.41543195963277424,0.41717756227072317,0.3832796450569341,0.30795270820894993,0.23004453205105568,0.1989425047274694,0.22663817933519828,0.26575955514428407,0.28093544460192427,0.265602708379832,0.22240966354137953,0.16182662881974563,0.09849145389766545,0.03380041859754448,-0.0226642112506533,-0.05100002972644714,-0.0393820170211734,0.014738585629275255,0.07740253099701945,0.13125390409866977,0.18536980526546942,0.2467091443524799,0.28163641659408417,0.2274989541303432,0.1009183492920561,-0.028125930955939446,-0.1287795976637362,-0.1851943360189127,-0.2074271298330614,-0.21036505215692058,-0.21871417245873578,-0.24907484714178035,-0.3304001541180998,-0.45191099098102455,-0.4574427340818429,-0.4116550676530737,-0.4068297781956958,-0.4401319384576756,-0.4800102667831119,-0.5008393557873029,-0.5066458476362661,-0.4930007490100799,-0.45391143628533237,-0.38982009590121425,-0.3158306912042473,-0.2693266249557013,-0.2774184793397422,-0.3283512505299802,-0.38950725398891767,-0.44296465352652503,-0.4862723744047283,-0.5095586340364968,-0.5006605793357918,-0.46001967363775764,-0.4008271195811221,-0.33222844711224286,-0.2507460427514056,-0.12661590937057948,0.033349117564522406,0.19230861815473865,0.3230764620681244,0.41472343119026245,0.4697704137238375,0.4810934332755355,0.4615176327522044,0.46994849989171056,0.5230613712632671,0.6046196853677688,0.6833479234092229,0.7477821228120038,0.7988695406152548,0.8322771362945259,0.8439498324398029,0.8369294221862575,0.8212731937797467,0.7991141479340057,0.7622374102453136,0.7277595083655624,0.7201977994422964,0.742284343039722,0.7738616435970741,0.788420012395427,0.7781700383126029,0.750082461444907,0.7177016897356917,0.689234180246537,0.6432867486020845,0.5766021093573629,0.5067330271742387,0.4545866826792748,0.4065138455592778,0.35279536239669984,0.31185449293991074,0.2674207302761641,0.21101137502437423,0.1476846995709864,0.07847548915940637,0.00048427888619813185,-0.06641632297434821,-0.1107409136812296,-0.1605410735056074,-0.22355521321727656,-0.2892583202972411,-0.3390071663839261,-0.4148464503608024,-0.5378362217353112,-0.6614416446930041,-0.7395362127084852,-0.7815900919651564,-0.8105042596781368,-0.818210603847018,-0.7929647060443278,-0.7854105507106511,-0.8227854154228857,-0.8635057613493237,-0.8904516693900816,-0.8996384052850301,-0.8847850373659246,-0.8288717510511384,-0.7298872217864049,-0.5989853302224171,-0.46025860969762694,-0.3250086321599712,-0.2136513110213271,-0.1354901503202914,-0.0933336194734503,-0.09197088733222272,-0.12131303246085479,-0.162630558408914,-0.21480789472375578,-0.2620166007310085,-0.2939084358325493,-0.30878088771797985,-0.30187970667970176,-0.28705876026462857,-0.284885947475299,-0.29425001547689333,-0.28914939640387627,-0.23088233976917488,-0.11995800651383685,0.017639346671217457,0.14584953032460737,0.24588417096549314,0.3266787839262186,0.4053356298853031,0.48118121170628725,0.5512911929831443,0.5998866309367256,0.6321808173198092,0.6633328310271754,0.7125060976625998,0.7714362037179942,0.8147228996697002,0.8280558620070824,0.8139771775535386,0.7765516401161053,0.723235565209603,0.6839570825174972,0.6876718944134773,0.7383572619405939,0.7940772034464552,0.7887440837847782,0.7197524754911363,0.6225585085611937,0.520839513898326,0.4339643581522401,0.3736892840719006,0.3413726740144492,0.31653579049174996,0.2660687652867179,0.19588243541994446,0.14184298742075588,0.11734328193820487,0.11093181612056174,0.09091990687022967,0.05019097229363307,-0.0002748279173641686,-0.06529827874337031,-0.15113324028481903,-0.250445580528705,-0.32650649506800666,-0.3457460779293358,-0.32490083910974765,-0.2960847818419335,-0.2818382823103498,-0.29075208355949567,-0.3220525194201135,-0.3737408218537208,-0.4330501580380784,-0.4750948769995302,-0.49127458751514325,-0.47846160399360105,-0.43260782218460186,-0.3622263747801528,-0.31113554091592105,-0.32421042480605233,-0.3943128996827092,-0.4425927928818853,-0.4401737534423405,-0.4283782133217762,-0.4418766488281283,-0.4669063060245505,-0.4656834611123926,-0.40699196369109586,-0.26807211328764113,-0.048565894530651424,0.18087617796567482,0.30078279060512164,0.280281822483649,0.14741406149491135,-0.03216767494830212,-0.17736098236763234,-0.2631398274913221,-0.3000922320772491,-0.31654095332836196,-0.32224414196436213,-0.3070905791133158,-0.2653186023327319,-0.20255447583852257,-0.12536121330490005,-0.0377051954686499,0.05571923854399615,0.16171902595870577,0.2769691928692521,0.3925827502162049,0.4971622022572976,0.5810749498777188,0.6318083616594989,0.6509190038160211,0.6468395790295017,0.6328361083629885,0.628956999745456,0.6484604313759598,0.6885433829390033,0.7369096286828042,0.781536869016631,0.8106528499138879,0.8195033523122852,0.8093921722697082,0.7927835357184444,0.7785861116114239,0.772960216534999,0.7725656920159836,0.769550790223268,0.7628980830939025,0.7398651883158358,0.6712377001434191,0.5397666096020287,0.3738436299400051,0.2098059020287845,0.07380647432526571,-0.014632625519719307,-0.047990510450746246,-0.019001481405540387,0.056553203142962805,0.12046928301908812,0.11488490178469452,-0.004884917154480904,-0.228262943006309,-0.4810124765082981,-0.6598914025944467,-0.7513511377890597,-0.7872222552758498,-0.7901017330631744,-0.7598310253857782,-0.6902731130266226,-0.5970224638760112,-0.5148159747156109,-0.47220162883070754,-0.45864276798377596,-0.4523632079404534,-0.4585319295693546,-0.5016611284078693,-0.5916732563792386,-0.6933345753913066,-0.7524885475511028,-0.7453670077161025,-0.651867573789634,-0.5448990428241243,-0.4767706473306375,-0.44430716253473546,-0.41704599464300296,-0.3843193910941493,-0.3616300524300766,-0.3467120573805808,-0.35926670402872324,-0.39942657470655935,-0.4419808481267357,-0.4676512283458085,-0.47287730151627927,-0.4586775753329944,-0.4330142744634931,-0.38931899860858654,-0.30827157471327454,-0.18923131189176112,-0.059624489339901665,0.052874778965997404,0.14890568834511694,0.2380313535385038,0.31427069589346096,0.3750951131241508,0.4059278095543361,0.40880369722338766,0.4113811336346687,0.4375547294609453,0.5050725441853565,0.5992473814195256,0.6825277988332035,0.6993088756855091,0.6746731015699376,0.6593568754656071,0.6714328902249602,0.6924115298556687,0.700894337349317,0.7079724947836563,0.7136444919056328,0.7278156458754658,0.7629026276826147,0.8192710791130797,0.8601151847984712,0.8787322564399216,0.8800459290484222,0.8713353423626474,0.8561141334348255,0.8336768761674158,0.8023361274582609,0.7440610475888293,0.6536717635703326,0.5402329897980346,0.4198669763590778,0.29782667826297443,0.18446097300287007,0.11370567728740881,0.09101883404509474,0.08291143520654326,0.054705988912943176,-0.014121980410991155,-0.11182248708292225,-0.20303057425879223,-0.2705373986346761,-0.3310201129598192,-0.3973996707174661,-0.4753888445962479,-0.5454241925147328,-0.5911831978396503,-0.604858316183799,-0.5894554621188356,-0.580840668797678,-0.6094824749945295,-0.6657763192342352,-0.7170366075484089,-0.7428905631826316,-0.7494665979412655,-0.745318314865609,-0.7399224063283765,-0.7446632771241192,-0.7670382116194995,-0.7853368436995214,-0.7527030910976158,-0.6365130003063915,-0.4834648770424126,-0.3389884899153506,-0.23349931304427657,-0.1698671127174153,-0.14840804241959754,-0.16915809321621794,-0.22240392086968913,-0.29258977140140324,-0.36027321748334146,-0.37946381402508816,-0.3285442819988718,-0.2628153547143005,-0.21518761655868685,-0.1822918756221578,-0.13628143132002848,-0.0707957271384994,0.019441022405460036,0.11521618102655588,0.1977218810840144,0.2684394834824188,0.330002811377619,0.38052047264500033,0.4243195009596818,0.47914988069358466,0.5476728069149047,0.6154312028464108,0.6643879989250973,0.6855629178969131,0.6653093894132576,0.6205114377252179,0.5866882219928276,0.5909703504033894,0.6390982176140214,0.7106309618656094,0.7665373287395107,0.7869526047018484,0.7788275444196863,0.7402776927126634,0.6610875763833166,0.5755055481276456,0.5409247414524653,0.5660599040027148,0.624360854361534,0.6838342411209366,0.7277956329455777,0.753856259434087,0.7475874469787578,0.6807559910613052,0.5529474860329896,0.4057902717750785,0.29022620688803075,0.2211632914874131,0.17243712276893547,0.1373735944035987,0.12694486903565733,0.14587553493727634,0.17768348392074396,0.1924622233309532,0.14095649580261377,0.02809609549904726,-0.08676787571069665,-0.16338090737391014,-0.1904518414242788,-0.2019554321484743,-0.22773869369694805,-0.28613104166458275,-0.3705491977564847,-0.47943379292281446,-0.5833142221273181,-0.6703557313124658,-0.7338633230874654,-0.7707398325400994,-0.7850458459285238,-0.7909326911845835,-0.8049255160012292,-0.8362267409211368,-0.8564935947907178,-0.8350877403324579,-0.7861652691827664,-0.7271950975989078,-0.6679911033948415,-0.6176427776700151,-0.578579701833348,-0.5337985582923322,-0.4774969856948446,-0.4415284240565758,-0.4690647146497323,-0.5544706044629445,-0.6471468809520343,-0.7014755171871541,-0.6986923106179146,-0.6237645872859595,-0.4677925721403064,-0.27892658784680496,-0.11661889596678306,-0.0015977652685816516,0.06201764183943882,0.0925712681784184,0.12245087399241314,0.15035128328422398,0.1748383624124437,0.20610191118470167,0.2528907310701537,0.3079525963256678,0.36399401840001255,0.41612001901251283,0.4513864000991899,0.47063798273236274,0.5008033444720494,0.5628507844315481,0.6247577885268883,0.626530265309718,0.6034698322476784,0.6017428321745705,0.6406893703400655,0.7006885917904178,0.7569402621198184,0.7908575341665964,0.7950738538745663,0.7824229764847459,0.77039782263878,0.7655551499897516,0.7668472147491868,0.7699928312385753,0.7675878452869271,0.7481954448409706,0.678557954414327,0.48361293589503196,0.22441020774956838,0.0689256220077245,0.07313078655857325,0.2103920187974957,0.3907824167200056,0.5044341592939692,0.5219365330725007,0.4542177841610189,0.3302505784244843,0.17550063404619243,0.03563015188254355,-0.0631484327021146,-0.13031892708784498,-0.1873509285723995,-0.22277749071523212,-0.21976500588573564,-0.17459645911575558,-0.12294457452794692,-0.10313015811963137,-0.136592341238584,-0.208436705541075,-0.303872468178324,-0.4043595082528738,-0.4833795354172079,-0.5377207653141642,-0.5716742637081477,-0.6022823587978197,-0.6205860773916443,-0.6160974828454547,-0.5792703088153683,-0.49091918559152103,-0.34520031885148283,-0.194327960039195,-0.08059422986294135,-0.010297840386275977,0.01244796852276295,-0.025412598836654525,-0.1213186571426813,-0.26945501868803984,-0.4088619675518972,-0.5035746560648118,-0.5533296349052318,-0.5718814039086059,-0.5519510301082249,-0.47706285078501337,-0.3664168421646006,-0.2414686079853428,-0.11247788862192812,0.008772442694370722,0.10751716960196285,0.17265674037149567,0.21182659629816575,0.25237938548496386,0.31382424071777393,0.39016065477524964,0.4734380312562824,0.5393951270180056,0.5576937871465953,0.5471905342833808,0.531239563979029,0.5379314327977264,0.5859014156111865,0.6793666190988038,0.7699983066776278,0.8141879468341162,0.8266165902769976,0.8106351199169257,0.7580996656858708,0.6632786939147302,0.5600198781549726,0.5240658506527803,0.592719593411427,0.7014450799770138,0.7572633012908313,0.7389094404368223,0.6634524119603377,0.5635189015891114,0.45440274583206375,0.3155832872470371,0.1524891037615426,0.012334186673848254,-0.07023738585724293,-0.10426013121492915,-0.10851406194775826,-0.10093486237153779,-0.09874656435653908,-0.11361029845819635,-0.15488792369204718,-0.22128313012100279,-0.282629452878414,-0.32649934606319325,-0.3527184570462956,-0.3669029516895934,-0.36374282204919023,-0.3548875705301526,-0.35584628589945005,-0.38874331156746783,-0.4851833294777464,-0.6103834946173291,-0.7090561562787369,-0.7744695779077144,-0.8154898574709101,-0.8455552797159396,-0.8686462072794802,-0.8908162166308365,-0.9128135742216654,-0.9261193273871932,-0.9097510103689096,-0.7116768274985248,-0.04208946512851728,0.3392301919228293,0.43459780167678896,0.4391847294328878,0.4106564433219627,0.3593758774057062,0.28126935150846627,0.1777653071724949,0.06821131384773221,-0.022438720588511794,-0.06956165689112095,-0.05250570591486894,0.01994066902708842,0.0972456844862959,0.1354728216523006,0.11690806828565294,0.0524644438646959,-0.03662697380431812,-0.12489830803356683,-0.19443596185704676,-0.21438722525277085,-0.1645328069589712,-0.052996308465070294,0.09489743597283795,0.2439982325177412,0.36324305620929026,0.4337052078105015,0.4572598190852215,0.44896696064566904,0.43643511648518435,0.4411737210026844,0.45499964719981456,0.47344098589507755,0.49931052606035453,0.5393296316782992,0.5930273105043046,0.6463630734656253,0.6960553807443145,0.746742240842064,0.7877690454563228,0.7983753432721314,0.7650226883908405,0.7019015306634023,0.6432807402338371,0.6110517331975005,0.6065719218706,0.6142033539484997,0.6202078911888309,0.6332023570725183,0.672022321830064,0.740214681464646,0.8105409984950444,0.8540494175585894,0.8615800439789059,0.8339120226497814,0.7630808634479722,0.6379092886908203,0.48294036752946656,0.34247246359215816,0.22057345640015802,0.10820873902733649,0.023704750420238913,-0.0323638153523226,-0.06454672201996908,-0.07968962377065253,-0.08513159746799645,-0.08429936776775401,-0.08705864442950771,-0.10544826006151228,-0.16149207257917136,-0.2642479080993907,-0.3813691459752491,-0.49900309083694033,-0.5739564123660049,-0.6010432957247198,-0.6049148435403184,-0.597011949173468,-0.5614737419573385,-0.524918582344974,-0.5136641489318319,-0.5175016371090966,-0.5134940778374681,-0.5013118139669653,-0.4908799453960935,-0.4664167526694753,-0.4270091335554532,-0.37658904090077977,-0.3361985960758184,-0.32105631338601476,-0.35714675980415406,-0.43846873784902074,-0.521930768215247,-0.5707957518129452,-0.5927349464778079,-0.5956597183193211,-0.5742027456558217,-0.5193505582896621,-0.44256637809426036,-0.37689923269284775,-0.3393287846548235,-0.32310882551661385,-0.29768948993000216,-0.2500485653242057,-0.17855143121571573,-0.09402659411908115,-0.00423218621513356,0.07809762075640399,0.1291621636133333,0.14926499403950613,0.16376099470097405,0.20168163664558195,0.27705159019802367,0.36761553775366057,0.4382780175466668,0.507285852286376,0.5778465947313353,0.6331697529927971,0.6691845910950065,0.6950674641710445,0.7161683379847127,0.7323890246401048,0.7478533069258566,0.7665180082346397,0.7811097658260278,0.7872492909435092,0.7853480344040055,0.768590277648048,0.7177835123693468,0.6252317554790505,0.513497021811096,0.41341005834839945,0.3315655497744831,0.2578185030615842,0.19344224683626643,0.1505481215303856,0.12791828142914266,0.11607826905601851,0.10208874118613831,0.07213372179905003,0.02793830093034025,-0.040388518865892245,-0.14192632050232928,-0.2783638928774186,-0.4309069948743112,-0.5740390350261896,-0.6724831945469648,-0.7151236845875998,-0.7095899971662923,-0.6785771094215678,-0.656624628247539,-0.646472650557805,-0.6357974030713276,-0.6168348820589781,-0.5742771728050478,-0.5264392824746104,-0.4964386076273207,-0.49363536103224825,-0.5118198790925695,-0.5289974761694558,-0.5238430203288061,-0.5036970306135362,-0.4540318332798762,-0.34360331321025006,-0.22917361217694993,-0.17144744927942077,-0.14067427093270146,-0.133018884210993,-0.13645146918081139,-0.15965222197998444,-0.20584274363734698,-0.2688464288943003,-0.310038423211289,-0.3170717650294054,-0.2944201662520961,-0.2443247349676112,-0.19202086115362332,-0.1438512735882284,-0.10490061902435106,-0.06513929500905856,-0.01105185889533288,0.05874700422805061,0.12297215572812574,0.1742420077649879,0.2386580157312827,0.3117844693743596,0.3884363630277943,0.4536646073528399,0.5017554043857222,0.5467110810379655,0.5990227226570345,0.652298228141868,0.6928135365562647,0.6970325349745358,0.6740119733589893,0.6718818704720821,0.7058416065974273,0.7513850296984947,0.7949107344042019,0.8334590844252944,0.8645462674881947,0.8739076940655897,0.8625448579835806,0.8451296345728431,0.8306705739744252,0.815469143420708,0.7929044671175376,0.7567433692977402,0.6906528096520774,0.5810220716047625,0.449797584853913,0.3443550904862169,0.27885705161585933,0.23791610472321495,0.20746811817247574,0.19172170458640447,0.22221229345533566,0.3335018803113286,0.48499322445408094,0.5142005332218147,0.4422566191882736,0.338643398075122,0.22332504085105365,0.0992128329518335,-0.03652307003277883,-0.17649059462078442,-0.3062162966245213,-0.40464412995279014,-0.46826152097584606,-0.5230503463762154,-0.5955486486839735,-0.6858720278822721,-0.7601069141079592,-0.7691038262725108,-0.7111649912835873,-0.6526350569207117,-0.639488210407593,-0.6624797708728191,-0.6939920364712747,-0.7205417743559582,-0.7376999144272343,-0.7254912415133419,-0.6816161560912727,-0.6129210116521463,-0.5433081019606479,-0.4749418331535092,-0.4130164436070864,-0.3687132609873901,-0.3405609343989673,-0.3347708774669294,-0.3681964452855931,-0.441468711690316,-0.5018147234206393,-0.5164580897027449,-0.4987399948327095,-0.45791744511305177,-0.3778008793039551,-0.2509200604397321,-0.11413682133680593,-0.02409747914715228,0.01877842035549397,0.033375946186664104,0.058586148221356306,0.1091883776898887,0.1864454248539847,0.2636301152237338,0.32644384507458096,0.3761788243458909,0.42344298363914973,0.4870631304577106,0.5651067370295917,0.6331202359948693,0.6797110840040689,0.7099003372269099,0.7237327281859016,0.7248946121215935,0.7239039140908686,0.7327117906759594,0.7274757199599863,0.7001893407462288,0.6588744059972758,0.618039822411315,0.5960485061014129,0.5980822574132082,0.6153250018661878,0.6543999228991998,0.7112175974780713,0.7675631361727498,0.7993864400180433,0.7962156924148104,0.7507646513492443,0.66490886284074,0.5465905786266446,0.43096537147335334,0.3465926219104867,0.28833143246983706,0.24758931252604802,0.23838552963572476,0.2546256811889382,0.27846634364972556,0.28862973983322626,0.26273578529597563,0.18017061890609393,0.05211930310081252,-0.0667425280088964,-0.15757094023653212,-0.22363054458640255,-0.2866283769906438,-0.36135186291514826,-0.42156710608029524,-0.4520206813984511,-0.4785061996106426,-0.5023495189517018,-0.5183116898354444,-0.5309400988103076,-0.5516931321353777,-0.5668052155214504,-0.5869871953676767,-0.6366753727006353,-0.6979570762819967,-0.7430435011068697,-0.7585815289665094,-0.724289402855165,-0.6144966419252452,-0.46734847436416704,-0.356483638960245,-0.2893586780449518,-0.24802012214770883,-0.23741831066138888,-0.25772517089481767,-0.31662877391265265,-0.40411204014216007,-0.48462313039360716,-0.5093191077798327,-0.4615630319345936,-0.34404657945592276,-0.18437290619569238,-0.0381226463171802,0.04324670997979518,0.07126225562416785,0.09347520553436127,0.14024191426505542,0.22267817896285658,0.3286900830924836,0.423310559351533,0.4819487231025561,0.5018307566549497,0.4958478442791377,0.4850820404848077,0.46576732720449615,0.4298282595708707,0.3910588580218453,0.3669953006861061,0.391792571288202,0.46935330616567805,0.576411092128437,0.6641414809239164,0.7017199056162815,0.6891267670607679,0.6607082645334552,0.6502324076916558,0.6577313518148916,0.6596655052864938,0.6460895098390698,0.6073917910907015,0.5527176515698335,0.5052289925157819,0.47190696832635487,0.4426094143735867,0.3822242502729357,0.26358690587777506,0.10713391706404071,-0.009445084213696726,-0.04630508069222262,-0.023171459378711633,0.03081416374619588,0.08238165744803712,0.12195919825690625,0.14577990535551977,0.150670675180467,0.14642861560532355,0.1338748602945069,0.11199414207104322,0.07147643867734799,-0.0011600065667743233,-0.08402405253332118,-0.1728215222368946,-0.27319009260206184,-0.3810991718778498,-0.4725494990297189,-0.5380928638367317,-0.5787626363166793,-0.5835746949928146,-0.5535445735067936,-0.5158647431609769,-0.49928535014249326,-0.5307204719101689,-0.5896424335376291,-0.6298773585628966,-0.6286561118863278,-0.5830967682523229,-0.49319360891261577,-0.34197976573185834,-0.1866784095202818,-0.09928652378540877,-0.08182922617452468,-0.11072369090890108,-0.16256981670349882,-0.2304912541394264,-0.3156407159296098,-0.3956133334536832,-0.4387065421926274,-0.4304102900808415,-0.37947004061800654,-0.2934465760853121,-0.19808155819346968,-0.131073912892784,-0.08622017525688032,-0.030687080177039562,0.045116279868069764,0.135151545359537,0.20765853980228396,0.25595113673478664,0.29737700877110224,0.3357030906713005,0.37432049160471803,0.4129968175590093,0.4284581272148459,0.4005189442945186,0.3593191586053887,0.3459798309172011,0.3853641813540707,0.45877202063923816,0.5425171924078704,0.6194634978322074,0.6832623962245195,0.7334510166729887,0.7649769672648752,0.7826639411859353,0.7887281351317489,0.7847872608542856,0.7756840390702915,0.7713594486796655,0.7759287485356574,0.7872110320885884,0.7930220753680123,0.7854372280618371,0.7590287617269207,0.723515143945005,0.6910095098155399,0.6555094276949678,0.6034246108839151,0.5256156434285411,0.42977405201645863,0.3586318056322616,0.3221959186167233,0.30989143309922695,0.29307192397354387,0.27787456949511224,0.25633829013882986,0.22263713497980225,0.14505545292837854,0.01568230241219404,-0.13352761927165108,-0.2711068823909351,-0.40022500480763296,-0.5149237984237919,-0.601138022444398,-0.654189288516017,-0.6837399194419614,-0.6975860471828619,-0.7206342720559525,-0.7631341283776473,-0.8032438589947503,-0.8154067652935809,-0.7961272841621878,-0.7469190285021653,-0.6553793077911918,-0.5126299549233883,-0.3605768802999819,-0.291445318091066,-0.32100456601593297,-0.3817867744002496,-0.39026580457727156,-0.334304223887064,-0.26821007861228696,-0.22194745134014102,-0.19392813029335318,-0.18681929368567485,-0.21030743064867602,-0.28573460382784566,-0.421290880454319,-0.5652479634739008,-0.6386467902629814,-0.6358966429814001,-0.6011036749327444,-0.571936958446635,-0.5549072582626016,-0.5210135095357423,-0.4330266422271377,-0.22959066208909493,0.07783029080489966,0.32218051497868444,0.45381332838194455,0.51902077938032,0.5474274488685121,0.5398720371599838,0.5044489981017262,0.4777358848716539,0.48739664478637046,0.50767266260764,0.5212190699689402,0.5298942978652832,0.5399008774564351,0.5527607526595488,0.5540918650031187,0.5334483039537574,0.5099836481439972,0.4846183400597004,0.44051503581962154,0.3910801096516104,0.374854452518942,0.4187290641555149,0.5031066762498914,0.5917242043240425,0.6791898663911391,0.7704356507078799,0.8470850405209664,0.866424245942342,0.831226893073709,0.7792557183702987,0.7291156760895244,0.6749295646269392,0.6050455329778893,0.5201948437836916,0.44438909388796005,0.3834051400603612,0.325335488640835,0.2554316968715013,0.15470734315692444,0.0052163728106299455,-0.157626879987466,-0.28072800590094366,-0.33676552996278325,-0.3234100125573775,-0.25920898202511006,-0.16853344880874443,-0.09152184128880377,-0.05645047052321818,-0.055841157499214575,-0.08132929418155013,-0.12695435804351837,-0.16876690077122922,-0.2005976591421957,-0.2231988118376171,-0.2554278116754901,-0.31481609032840013,-0.40932481729771153,-0.5042583236530797,-0.5742113983662825,-0.6117819520542246,-0.6253242952365448,-0.5994294387005141,-0.5041645262062406,-0.33728421613155757,-0.16725504894803284,-0.04147857322189368,0.019582656263752114,0.03310050138376182,0.009839126309526715,-0.04595171843392635,-0.1298938749121759,-0.19680265728695814,-0.21275122820077516,-0.18638966826903008,-0.1536457521782602,-0.13705736906156016,-0.13851264505605354,-0.13030068082935364,-0.09487256976303542,-0.03747565260622696,0.019503773682054238,0.08478619650720957,0.1816960434849196,0.304752532214471,0.4125897324526243,0.4725461211493579,0.4942525571969357,0.49927649734881346,0.5117505016054759,0.5423233850623741,0.5807840518876243,0.6031608079533864,0.587836734742303,0.5418467986043523,0.508639311435459,0.4898278313832272,0.48285366265878066,0.5012728259816337,0.5587582966758621,0.6409476569374022,0.6749888565377623,0.6272098630186018,0.5635577154646592,0.5115750665839947,0.4567094936470549,0.39179990057501424,0.33986521977602735,0.30980883340109866,0.30452228139085114,0.3100988108238804,0.31496817768600044,0.32948703537758933,0.3574500845379164,0.39816778857307916,0.4375652725011368,0.4542266714023904,0.4240185847596716,0.33219849710219645,0.161390816830776,-0.06664984736229317,-0.274475036786011,-0.4214447092053599,-0.5138943823251579,-0.5727468834201741,-0.6100544541868832,-0.6199017022730118,-0.5859294057504093,-0.4519840360060044,-0.04024591936367676,0.5443639271602418,0.7612335159571532,0.7999454987044307,0.7120689524931281,0.17401977402670143,-0.5898065906941639,-0.7905074937577333,-0.8336398644448068,-0.8407913788349383,-0.8251689540483299,-0.7893872429582162,-0.7250769916242378,-0.6018523962507815,-0.4208630714658248,-0.2717658109309539,-0.20182667734529644,-0.18923169999879735,-0.2193937375761591,-0.26705558015984077,-0.31163136610946396,-0.35553386544441257,-0.39162924371255353,-0.4101206833253884,-0.40065529455285775,-0.3617313360506833,-0.3059132960278826,-0.260989390689003,-0.24245991650260892,-0.23935429374142256,-0.2316453489420028,-0.20214027396855272,-0.16200539076518158,-0.11461356556316225,-0.0520336769077751,0.03195633025120033,0.10909095974190518,0.15387805342335484,0.1811218243512451,0.20504640602799776,0.23961941124771377,0.2828835579590917,0.3437634425779865,0.4149332823733535,0.47426207349643,0.5135506937297225,0.5500993088551532,0.5879944314880136,0.6292836900247034,0.6726974518318695,0.7095497068636963,0.7344355367394784,0.7387787371092346,0.7296002425246118,0.7210925175325743,0.7243115295601825,0.7414603544527777,0.7692801249376232,0.7898754948552071,0.8018054595928954,0.8008468904276344,0.7709057347270704,0.6919089975860292,0.5792947399731954,0.47231093473618424,0.39191136363432993,0.3502624583625475,0.3339454618780214,0.29687631954773563,0.2152508011902536,0.12494223677306339,0.03335233542744915,-0.06624167103832233,-0.1795467440874197,-0.3077409379321938,-0.42412700506243484,-0.5083855690734034,-0.5658792368481872,-0.6158209333302679,-0.6616263131145455,-0.706858577568642,-0.7575944839515407,-0.7955916186654293,-0.7956781998990935,-0.7666842663866986,-0.7335429227156559,-0.7217128755164801,-0.7260226349908907,-0.73342331323878,-0.7267217792774455,-0.6972672494580036,-0.6416771348923099,-0.5712823490298259,-0.49061357796200233,-0.40902173320155644,-0.34569642444660087,-0.2901389880370265,-0.22443885123531782,-0.14874369352373012,-0.08305312825683424,-0.06442203742613342,-0.12962121482134076,-0.2639520908245307,-0.38225890540127005,-0.4663280869209846,-0.5257534650158928,-0.5263281045255146,-0.4041137758773853,-0.20069930158090513,-0.03897775137579247,0.04835296297787678,0.08222541551595255,0.08659114129262817,0.08070531357506065,0.09506348034291984,0.16249650700217078,0.3046784424831717,0.4713656153488356,0.6107348713930555,0.6987548785906308,0.7459358580307583,0.7597313704437475,0.746873414985894,0.7335833896322246,0.744055265775774,0.7740684660466973,0.7894847337970154,0.7798413198280411,0.7641919059255563,0.7555521748686242,0.7516964375627907,0.7531870156646024,0.7585489769829168,0.7544183001031279,0.747336633063444,0.7355050611230368,0.7262862328502954,0.726809925416535,0.7364483819259331,0.7386972926065991,0.7105959929091066,0.6628505079650752,0.6145456384443713,0.564937015921325,0.5129315783054025,0.4561721837799284,0.37227573960232785,0.2652917469311792,0.14432098373887872,0.01866282665583169,-0.09318499325285438,-0.1962498610984599,-0.30498251367492524,-0.40222208695420775,-0.43350057185525076,-0.42162421175463505,-0.4114411848157292,-0.41953706432535653,-0.43910892062960033,-0.45542952553797084,-0.46013450776602555,-0.4830512288673082,-0.5442120300318529,-0.6171201449497165,-0.6449374070293228,-0.6204713162146619,-0.593992198244939,-0.5898461939720663,-0.5918291884712171,-0.5915831626264627,-0.5901588465733449,-0.5876869805192882,-0.5777632832949048,-0.5390157560630938,-0.4747953779684675,-0.4109458171937341,-0.3778310161867266,-0.38096340798597644,-0.4118703562798077,-0.45003063395708365,-0.47635913177423256,-0.47643331140615447,-0.44868409339270027,-0.3970920507313091,-0.32650633682601066,-0.23007581492134033,-0.08394753026653953,0.10636559929072852,0.2786439249844149,0.3952670016455837,0.4531551306948728,0.4579717640152028,0.42651203932518356,0.3771036302416803,0.3331973072125266,0.29108769379913335,0.2639929366312985,0.2571248351624615,0.2700874114846831,0.28452174303909994,0.2979704110107111,0.3317245424998809,0.4045173647174207,0.5135887102159802,0.6229211172684547,0.716278641695948,0.778231127772569,0.8032866723014417,0.8172008717332578,0.8408928352049495,0.8691383878545861,0.8904855667496209,0.8843276942246184,0.8533414017586353,0.8319451964042063,0.8232118899450651,0.8141650034382539,0.8022748868155852,0.7871679521608903,0.7695957701137935,0.7295228767667111,0.6176910865886088,0.41530529750474227,0.24475478780561272,0.15663408619791294,0.13308708442775724,0.13686040003380937,0.14016978662332383,0.12266745005729457,0.07060793169948484,0.01705931139827274,-0.017157028913714616,-0.036981920389312105,-0.06530477388710246,-0.12120281920197723,-0.20794523906159343,-0.31559946236390646,-0.43032150708433287,-0.5324385870743402,-0.6222957088277521,-0.6932031151537946,-0.7392535372918387,-0.7610186822609752,-0.7764046832721976,-0.7858928778490508,-0.7911075874792703,-0.7980388031952849,-0.797523975313293,-0.7908845501177755,-0.7997828288645169,-0.8236689516448727,-0.8482255222919907,-0.8606787143289674,-0.8276268777971449,-0.7261620241959527,-0.5757715904046904,-0.4097529802454773,-0.25750409195653834,-0.13171532330190636,-0.045612178542260746,-0.01793041265429868,-0.059592919745164306,-0.16675727990682,-0.28164385764137456,-0.3661843636288426,-0.42982959382714697,-0.4662799440667921,-0.4626363153383347,-0.4133728547559326,-0.3351520500672684,-0.24011285754275197,-0.13614648255510214,-0.01557099436060871,0.11568443339223941,0.2348978945400265,0.32988535147772446,0.3986922244533018,0.4507593402806047,0.49777144687219915,0.5312834293836649,0.5528921455225585,0.5779275957704993,0.6045104358945568,0.6238755459363563,0.6423113587505563,0.6593454034934251,0.6714967358458848,0.6771021747153316,0.685767976813589,0.7103998079902695,0.746166030716754,0.7809266986210108,0.8054262067274544,0.8155092305295188,0.8124870069930736,0.7952601645018551,0.7683878264297097,0.7395663202520826,0.7304956786052972,0.7465809906230264,0.7719068448868586,0.7698631970931776,0.6689801128170872,0.4761233561994107,0.30649507017239247,0.21275358400533403,0.18053898052892797,0.17833596793882142,0.17938626229763077,0.1708131818537346,0.1464388570483665,0.10100254074028368,0.025458065995676897,-0.07723767980304924,-0.18945017509540985,-0.2656925512709075,-0.2931347426360468,-0.2883469885654933,-0.28580331125011654,-0.31595706699698806,-0.40604555516085183,-0.5441913217556312,-0.6713133835374371,-0.7356689458354144,-0.75849047598662,-0.7791025212207962,-0.8083766828260298,-0.8335168845145831,-0.8411485312938574,-0.8269796696239647,-0.7859540214823689,-0.7071970555107358,-0.6024707337207581,-0.48931466784029803,-0.3737528617141182,-0.26837497354940615,-0.19203675328922412,-0.15894263574472006,-0.1738393352692284,-0.2374954405406363,-0.3397828685434784,-0.4589083111482391,-0.5638192365358655,-0.6263595521553577,-0.640839192096436,-0.5993969881493262,-0.4874026541963936,-0.30945250514776396,-0.10512620516209341,0.0685140011994514,0.19816961123730675,0.285721540930278,0.3314194907356702,0.3400025221528918,0.3329933389240619,0.3406017998171627,0.36574444086830593,0.39854619212994197,0.43764687071669006,0.48409397841201424,0.5400356965267257,0.6079025270878752,0.6800577597838139,0.7273499920881558,0.7394885611936213,0.7310526519072678,0.7210689267880053,0.706519777024429,0.6812959051153488,0.6592600650493962,0.6410642784435888,0.6202829537402907,0.6071247098826379,0.6075145957803516,0.6181859789461837,0.624609786834807,0.6328210164420917,0.6495303287030115,0.6766164933453735,0.7071730269012885,0.7082297849744424,0.6705753367701295,0.6010213654017799,0.523808492815811,0.4692101583008089,0.4384093400152704,0.423992208487793,0.3969405918154138,0.3455487349314979,0.26824293765506785,0.1711801016696477,0.06971603863140277,-0.03181918969223648,-0.10781687105472783,-0.1399061084490932,-0.12902849495406377,-0.0933508577363355,-0.0552323134734127,-0.06321818264463981,-0.15074307467352444,-0.337998340619281,-0.5580166877774985,-0.651074926347342,-0.6501233199031763,-0.6219184473229667,-0.5818871844439312,-0.5648966993367128,-0.6075755933570248,-0.6931346670296719,-0.776460311657692,-0.8108267830334751,-0.7829581036763892,-0.7246091063843868,-0.6506661356059137,-0.5440759650990523,-0.39460251885534314,-0.24755327292643498,-0.14184869456512325,-0.08503788093920732,-0.067721969254153,-0.0758267302092067,-0.09391984530143056,-0.12255695870180347,-0.17501400824354663,-0.26468475780279527,-0.3376731656933708,-0.3535892178713476,-0.3487048329852681,-0.3326085490005754,-0.29541332163571077,-0.2233844814981632,-0.12931910596936347,-0.051792020514013166,0.0055750650350248915,0.041932150638954044,0.06914234371586493,0.09148307784173543,0.12602667639206075,0.1835896151478664,0.2793989878540233,0.4103512747654866,0.5554231023681381,0.6635624466435985,0.7050356765888282,0.6937541079670319,0.6641263898573637,0.6625289787341591,0.6963935195322184,0.7338937589099203,0.7589756017531434,0.7699636630213086,0.7647885719339029,0.7388806306811305,0.7117813529860986,0.7095932590253217,0.7269083226682955,0.7503304774996575,0.7708606088918347,0.7870248064382742,0.792598809890432,0.782502513794383,0.7478730976806662,0.6687176083937036,0.5532462385784187,0.4554225313116159,0.40326745043148954,0.384515107245702,0.37073183887693106,0.3405156679958758,0.29484081700850395,0.250246228727772,0.2058907428812461,0.1490281187803246,0.0830106226809422,0.026968992690433114,-0.005612920997391675,-0.0011256994374539665,0.027456237282731874,0.046215636435116336,0.001415385456410364,-0.11898844556109289,-0.2613719074632218,-0.37378273239523485,-0.4475632719588991,-0.47442434646187837,-0.4224723304144025,-0.30047265810274565,-0.2195901601704932,-0.26863190455441044,-0.4239283508504164,-0.587848367139773,-0.6719855148822602,-0.6921520767626251,-0.6832663766213233,-0.6565123028733684,-0.6079223962604553,-0.5165493219050821,-0.37535786610082994,-0.20823743441085213,-0.05598979941823124,0.032351484777987355,0.007101580120115795,-0.16129731608010553,-0.37413154788319025,-0.5143242980304814,-0.5763441233143215,-0.5925569106960313,-0.5843629782692844,-0.5574413426738257,-0.4995964643321929,-0.41399824573691696,-0.3135961959424997,-0.203336688974762,-0.0891373342613607,0.011888273239220419,0.1019963888750184,0.18690651990512872,0.262833413399275,0.3370341561811288,0.41198590417395914,0.4675638640034711,0.47922007745605544,0.4464544751702752,0.39632884453593964,0.33621426824296724,0.27821424807411266,0.2472423173113063,0.2583799823184099,0.30226939655820473,0.3772183126676466,0.49167738989459997,0.6211974331468868,0.7143883421272674,0.771166310600559,0.7982072394223042,0.7970461295763059,0.7760597351261407,0.7338379324749446,0.6631784343412626,0.5620063121885713,0.44528156858574736,0.3417698192642305,0.26870244385801706,0.24762712970244485,0.262427707841954,0.2804361248596636,0.26404119922919084,0.21570051712870633,0.1371753742512879,0.06721693229067813,0.038767974084954186,0.04729321950775239,0.05064762667320242,0.0291345569694824,-0.021201951524856252,-0.11025690023435508,-0.238919418314176,-0.37779231208495057,-0.4946565362753341,-0.5768240589966099,-0.6097669347723709,-0.597254638262397,-0.5737532756771289,-0.5754608837438663,-0.6028321078277431,-0.63539487290202,-0.6607969709328457,-0.667844930552103,-0.6687078358354765,-0.6726769825098451,-0.6808615240448984,-0.6756845016993909,-0.6482557615206503,-0.5972749769822766,-0.5322270607106481,-0.46710495817933534,-0.40791641353339486,-0.3420287195042392,-0.25801441228274663,-0.18008933208138916,-0.15683127251791643,-0.21341969584000883,-0.325571790597816,-0.43174549194750134,-0.48381157104309164,-0.4904166146180357,-0.48140495528378546,-0.4811042281807204,-0.4873966524936221,-0.48627675960828404,-0.4596193434295644,-0.4024748757814945,-0.3134462725366239,-0.18763331018895044,-0.009344920570784841,0.20912874025761707,0.39521215358432993,0.5203117905474467,0.5915000076179889,0.632305613273435,0.6616304773600122,0.6875800070018744,0.708833997511518,0.7296195849392437,0.7551145451090454,0.7786538755423954,0.7818505626081211,0.743226138411636,0.6772973879022395,0.6128520708870362,0.5622737752215782,0.5379207256112495,0.5588216264567228,0.6386288949464847,0.7475786717117824,0.8264557246561546,0.8639592441580198,0.8875366139989064,0.9091754164590233,0.9169056755468129,0.9007602364187272,0.8554215872699671,0.771657636351655,0.6509104379099165,0.5275824814715462,0.4449410172285737,0.4149971168256402,0.421412436747935,0.4345667576091119,0.42851481216107723,0.3845373411889834,0.31934886686639935,0.2300924238381194,0.12620638399491346,0.014705518000800563,-0.11039463402667704,-0.2437229118756544,-0.35728768147268636,-0.4447039453626509,-0.4991485322954296,-0.5169930583066432,-0.4932088628277177,-0.424195596350756,-0.3121569394263633,-0.18537910678106825,-0.1490348978229476,-0.23116940538001926,-0.36064504099851624,-0.48390060032857657,-0.607078395720782,-0.7186459701506878,-0.7986723579373357,-0.829655522469351,-0.7978301831126734,-0.6998305499434108,-0.5611799103423724,-0.41337700977884473,-0.274048680437769,-0.17169987041459692,-0.13780241886336828,-0.18343374804203338,-0.2869395397786687,-0.4080869462962952,-0.4957246917191505,-0.5281778117516672,-0.5097831834603391,-0.46454472592007123,-0.41707455235581387,-0.3758455124696325,-0.331468899730754,-0.2752699175697152,-0.21451943352284,-0.16131116753631766,-0.11946923224941763,-0.06489604719435754,0.006576522321097717,0.09347767332807552,0.16212934771460014,0.17897206582173325,0.15240271094207336,0.12953133898572933,0.16161848680462385,0.25452331050619026,0.3724422112014875,0.4835183373326614,0.5740943333762446,0.6481170997643336,0.7045276552866824,0.7464441578472022,0.7701417308546166,0.7735574163638711,0.7423341522352579,0.6676349861998595,0.584921233265196,0.547766671779094,0.5488315899563133,0.5638344232487693,0.5790103762874064,0.5879043942420543,0.6159516534899583,0.6566521689189363,0.6863087783392758,0.6554538763552713,0.538008932890611,0.38907829325562615,0.2960216320670606,0.24973893226973803,0.21149441074425215,0.16132401327307969,0.11148927358774345,0.07994961291700187,0.060505346332544147,0.03537574191143886,0.0019640857969537755,-0.03479738281158171,-0.07572511875681885,-0.11491710198989498,-0.15180146540284406,-0.19765972284057023,-0.2738334695602212,-0.3866635128303169,-0.4684337681555705,-0.5001088953107782,-0.47503067023583556,-0.4041641929600769,-0.3661227656017928,-0.40933588438146123,-0.4899623352954202,-0.5756577461326963,-0.6344432212987274,-0.6529249405095114,-0.6324515149071068,-0.5651302821444038,-0.4256206261828702,-0.23978167097279277,-0.09570743383925624,-0.026703814773862192,-0.006715194697345038,-0.019485486270802325,-0.060740964423710755,-0.15122054866442425,-0.28744196192621807,-0.41787380363684445,-0.4797773973880849,-0.4828693460991668,-0.455788450264658,-0.4045890808157199,-0.3305325284370211,-0.23620681587542647,-0.1439359732532374,-0.08891359776532033,-0.07033184207665612,-0.07100830800074277,-0.054864410114922484,-0.0013595300400378108,0.06623323039854297,0.1374725469317378,0.21895938337536894,0.34213025716746376,0.48204732442159226,0.5837275495332446,0.6374349541452832,0.66785733918539,0.6886481396395023,0.6983314806488532,0.6772754068041367,0.6294934010786704,0.5880353063997268,0.5812023796949255,0.6142156045657533,0.674983302150055,0.7486628311087083,0.8161840262516921,0.8600060189444437,0.8745316375642559,0.8802087725905446,0.8807429872160477,0.874094184136928,0.8521420108714196,0.8201378803080431,0.7801814114127017,0.7253912442406816,0.6458313418567774,0.5358488430147205,0.40196784306713534,0.2909872317534862,0.23731137545536396,0.22249234212610786,0.20828629174966595,0.17004074104595887,0.10281969633809064,0.010651101538000706,-0.07934317592436586,-0.15185403090997407,-0.19384292287409544,-0.20357766840148384,-0.18038016257158673,-0.12170803248208915,-0.016251250019390626,0.09903549134869682,0.15174854120986317,0.0973030426025143,-0.047448909445209984,-0.28607049033476606,-0.5274099777942248,-0.6539903700376568,-0.6964568649513061,-0.7273332884459718,-0.7723744674552199,-0.8337779761789493,-0.8745820204169684,-0.8204867796703528,-0.671662917869645,-0.5041376844127606,-0.3525591814341406,-0.23186684712478411,-0.1275376666287306,-0.036015874504959015,0.03415753933326985,0.059644744298396925,0.02612414868335145,-0.07224371958286306,-0.21874725964377048,-0.35572766635619535,-0.44411870317564806,-0.5001610292665737,-0.5384806550340823,-0.5487322494525331,-0.5266441175279474,-0.46330439794190664,-0.3368326172654545,-0.14503724438232715,0.06652592673435814,0.21205238881322305,0.27066542295153145,0.2801346305483539,0.2833366253439064,0.29579186973585947,0.31693539351816274,0.3445265552099107,0.3885559614644426,0.43553369280252074,0.4681774835140133,0.46454669926504166,0.44223957968950794,0.44651260888369704,0.4965452397113068,0.5830525205647621,0.6657417013715815,0.7210826942259634,0.7553377776590359,0.7805737916851476,0.793243072951685,0.7843964792504083,0.764719537537154,0.7613565685823711,0.7777739048988046,0.8027793281393467,0.8266705583089645,0.8288698747850977,0.7719895629251149,0.6302045968739979,0.43680098749956686,0.27192114672549533,0.19532184019328694,0.21441798985983074,0.2860238817489216,0.3632953669539708,0.3998305689111739,0.33981877956253115,0.2556915630464374,0.1912871957871008,0.14196836253613765,0.08779756445176704,0.016587585328316296,-0.06668774792552501,-0.1404933685438875,-0.18933971013426054,-0.20101103799210757,-0.18256731088495054,-0.18859616020790687,-0.2690696791955234,-0.42709514620469835,-0.5819916521924436,-0.645314786970772,-0.5931350101871747,-0.5046540175849284,-0.4635588959038832,-0.48999171647347944,-0.582427482790631,-0.7154284705221136,-0.8151350565413301,-0.8425197012645985,-0.7928869071827358,-0.6591804644238918,-0.4670109375118854,-0.29655766511172393,-0.19336075661640686,-0.14882089261544554,-0.14277060274504103,-0.18472956582322755,-0.2855445261359219,-0.41863364709980716,-0.520911614355659,-0.564347669890379,-0.5607467770799218,-0.5437440878122494,-0.535913217565424,-0.5377321686575348,-0.5255552303293541,-0.4616517079170185,-0.3373189338724613,-0.18703667366467017,-0.042251859204729944,0.09472959486506602,0.22892497821541197,0.33388688875506806,0.4017303584203384,0.45079265363049803,0.49580921007742484,0.5405449386957517,0.5752591942061388,0.5582609227006938,0.4721500330346318,0.3705583689739931,0.313188127796583,0.3384897390000595,0.46283457463836897,0.6440315930098082,0.7929122234108207,0.8634904888231669,0.8830666538932955,0.8872019924128192,0.8876195984845089,0.8868490958426049,0.8868339499805973,0.8932173457177806,0.8961534608571659,0.85780276200381,0.7372701644196348,0.5599538240308592,0.3779332410972552,0.22405275092561777,0.10258674578219791,0.009882738136549779,-0.05786048349810379,-0.1059528119128263,-0.1386347642901677,-0.17223367976960952,-0.2187803163911701,-0.28929100245566614,-0.36747655117943123,-0.38714250679172785,-0.2630028373338488,-0.011145741659589274,0.23530001121127692,0.3697731138714972,0.3990636834692604,0.31776619402110223,0.10306805955288129,-0.22578657068331626,-0.564440084920991,-0.7811273903932144,-0.8728263791198051,-0.8942282302650849,-0.8840856478734345,-0.8660804465149115,-0.8510530538806375,-0.8413130667502462,-0.8362486454656579,-0.8403400050561307,-0.8443704444786099,-0.83453971852594,-0.7895128869983633,-0.682565710699791,-0.49715588134265304,-0.28011512311518777,-0.09171691634349724,0.0429601515481266,0.12626797663347394,0.15155145132154874,0.11163299667187257,0.014577701426370862,-0.1004296615263609,-0.1732594443858992,-0.19571976501537616,-0.24113220766753224,-0.3357031307171854,-0.42802610009069486,-0.47129319062886443,-0.45841386849279003,-0.4010864287774956,-0.3101142579337066,-0.19937153614538397,-0.07138683649326248,0.063099581029972,0.1923728922423982,0.31656359490429525,0.42896632039344,0.5298213048979694,0.6090607234033899,0.6606718861414963,0.6888695160767756,0.7035236560569201,0.691965482356347,0.67322636619795,0.6924595894919034,0.7402639690506209,0.7667431296751306,0.764902283399513,0.7408994724876987,0.6965375061323906,0.6563778158567065,0.6439604498730201,0.6522019170466813,0.6704412380833522,0.6958174360502831,0.7298270674805278,0.768817060066651,0.8070036169249887,0.837768521001196,0.8499570063601536,0.8186976275432515,0.719014070867664,0.5628444108737418,0.4092336901415131,0.2976629456535479,0.2403643885213262,0.21276985938502227,0.19121649825081483,0.15380213832311213,0.0855256141325032,-0.019537565764081936,-0.14838546302542185,-0.24893646143502718,-0.2996650220301171,-0.3103204537698044,-0.29697964821301315,-0.28049616951067025,-0.27170355372816146,-0.2859144265177992,-0.3102768496885677,-0.3239784848044411,-0.32447245200790065,-0.31458698555881576,-0.2887168003585488,-0.33430448539554547,-0.4826598203618701,-0.6378462746444594,-0.7518297523712575,-0.8310608734645113,-0.818404271059303,-0.682921316963556,-0.4791936539630551,-0.2751768387744504,-0.10961007178232773,-0.004434944477575524,0.010904415517906189,-0.04952213585997068,-0.16216450548659125,-0.306589593656073,-0.4547605440715582,-0.5824153287243257,-0.6680221753775987,-0.7127625505194715,-0.7237697389221112,-0.6926397470125583,-0.6023545216995394,-0.4777196458221812,-0.35925552796904603,-0.25704775820383496,-0.1661527018442279,-0.07979774244926693,-0.008321801733357594,0.059943217268154304,0.12780943764442734,0.1936217928095237,0.25510493290083464,0.3132352097801413,0.3764261785099383,0.4520016449547346,0.5460506857030696,0.6406066113688593,0.7023378702397467,0.7191795430133273,0.705740017472698,0.6853997824675845,0.6791052714472634,0.6892214272327026,0.7192497930362829,0.7601873876960262,0.7983182855794011,0.8230757106875178,0.8198035892852473,0.7918167674401395,0.7554832704749245,0.732722177881713,0.7336110673766134,0.7423675957695026,0.7315733000747873,0.6890347485660391,0.618010955017088,0.5135635269494024,0.3843067447066718,0.258730001736508,0.16250961635467856,0.10338877831008793,0.07686983088134303,0.04274079217126453,-0.012783488900680156,-0.060950559803792284,-0.0806548380681878,-0.08666426222412665,-0.09875449804408777,-0.1334203220214141,-0.18269898491770342,-0.22577617311041417,-0.26968375487551893,-0.31161580424390556,-0.3464911460170112,-0.36269129842690023,-0.3704935213040333,-0.3970542857306511,-0.44248130070601405,-0.5040826314950697,-0.5431780231053925,-0.5600492577201531,-0.5625146534981178,-0.5425101040483874,-0.5179404977428832,-0.48598255141328467,-0.4465318012807242,-0.41438242929149965,-0.3577817402605033,-0.2616070925805334,-0.15742438444675233,-0.09175050819167423,-0.06560259908943668,-0.062417709692061896,-0.061693902604209455,-0.06872680587556038,-0.09861027691039796,-0.1480771813445433,-0.19495822779463085,-0.2046717745763194,-0.16055599576952304,-0.0750651035554554,0.016993715641215053,0.09549245792954902,0.14273349755943252,0.15821985956814547,0.13802450478588477,0.08476248755678048,0.02255224964944541,-0.004880420719361144,0.01019108968218633,0.034710335217045835,0.05208087279059973,0.05636434448058205,0.04575869970882468,0.034566944967712274,0.04143039525477011,0.0897256516741257,0.19185171036745008,0.32900373591170856,0.47375379082947927,0.6068877441219367,0.7067426996345246,0.7675296664361043,0.8019466859563837,0.819918515225527,0.823502392162734,0.8079058921675861,0.7757239455817144,0.7420918540074832,0.7280019264372843,0.7454967430076886,0.7836593181455418,0.8170176222004388,0.8300913380472503,0.8184627085704356,0.7582781121357798,0.6189451220500133,0.399404227055072,0.16100639307478362,-0.037961105513968064,-0.15548064816965132,-0.2084813402130916,-0.2246580100813599,-0.21478706920087803,-0.1840450982151137,-0.13806895570706174,-0.09263902252455339,-0.06837418665630057,-0.06858429919730943,-0.08596374032373971,-0.10127739481291619,-0.09993973891656371,-0.07621375371024637,-0.03021250008672116,0.051922643380094495,0.1442847447498874,0.1274610203909767,-0.08098757400362107,-0.368473307321991,-0.5736005475337294,-0.6703272688375679,-0.6949893103043869,-0.6648534154371378,-0.5750140588325486,-0.4335393620375051,-0.30572516827717433,-0.2675397979650868,-0.30010405951673885,-0.3523625485839871,-0.38618094866223956,-0.40444459113452347,-0.41868190438821884,-0.44122168708923165,-0.47778372715152756,-0.5255158885791036,-0.5622243137209482,-0.5857434174994406,-0.5943061294749846,-0.5946716860436028,-0.5778721439043194,-0.542622679609158,-0.4957238240896077,-0.4480446715425721,-0.40128255861151324,-0.3616277124249529,-0.32927747973495647,-0.28893411654848444,-0.22651750472033041,-0.12923410744722846,0.001297040483727639,0.13371040535873624,0.2385755563901201,0.3126592486078129,0.3737923609948246,0.45062801077104025,0.5418221630194304,0.6114989347096633,0.6328713114759302,0.5649001945435294,0.4239765177235307,0.3190111040686676,0.33071216577851,0.44631515260357146,0.5828445737581356,0.6640150324398354,0.6986405087501398,0.712765853825617,0.7264682059073861,0.7602681412043658,0.8007688759689939,0.8251367316061993,0.8272335083534187,0.8134848057994526,0.7976508678949665,0.7677812951981513,0.6953800121311803,0.5638202734883606,0.4124453331923908,0.28889742448582234,0.208497771112701,0.17045512232259674,0.16945881770594373,0.17546629653499868,0.165317106308048,0.1330628277520147,0.08728782195766144,0.04232015332839207,0.007942185359807934,-0.03068669019574656,-0.08932451145081981,-0.16895494603692046,-0.27704774394653886,-0.388702720392516,-0.4725301481565767,-0.5144684720315408,-0.538969403807385,-0.5792936869784187,-0.629084580720983,-0.5937780389553127,-0.5379961723736958,-0.5256037360034636,-0.5430080581759504,-0.5786157590516032,-0.6036151132891557,-0.6005074625964538,-0.5705793217053831,-0.5302093569052776,-0.48535525310355543,-0.4417893887813393,-0.40048989414295616,-0.366621255822928,-0.34517428004391615,-0.343605131714937,-0.36506486913887554,-0.4026236821178382,-0.44390331502984864,-0.482070436933955,-0.5305072214900814,-0.5946910781813357,-0.6598979189144865,-0.6738359623213964,-0.5907565305533553,-0.37054316469309295,-0.05200672928474314,0.20701418345061415,0.36997304985962975,0.4585165362815474,0.5045633731017521,0.5214423578738875,0.5201435669860744,0.5231496334649773,0.5352667371619413,0.5517648033176876,0.564022763910382,0.5664372767183302,0.5615402864757915,0.554099333380242,0.5457514228878508,0.5661379798142924,0.6172563281222618,0.691432768988678,0.7540107348398976,0.7926338856833484,0.8175666482921283,0.8348034892164763,0.8531523222762922,0.8692093200298975,0.8710118316908038,0.8617510664447255,0.8552884786270523,0.8525325312378138,0.8229905481757596,0.7395442265968118,0.6220140691354357,0.5094068895691922,0.42023164894587967,0.36049453112785634,0.3305234830156962,0.32973407261358567,0.34568714214719637,0.35611218089029534,0.34807137332497345,0.3259313009753598,0.2972279563120523,0.25516570240054265,0.19095536597238114,0.11178206158226704,0.02881965482633368,-0.06449666955770814,-0.17154943412466214,-0.28120799140398733,-0.37357063436434507,-0.4297676559781702,-0.4446682671533622,-0.4602967693863997,-0.4920297388422311,-0.5402566433217711,-0.599345287688192,-0.6590890240514118,-0.6928785450504009,-0.6993984912381315,-0.7156946901914413,-0.768969167514864,-0.8479325155938433,-0.9119794170948937,-0.9109360273400376,-0.8552227519286023,-0.7781445820729116,-0.6922405479262563,-0.6030688730843066,-0.5181221070807969,-0.4391741866678939,-0.36645428175403283,-0.3042790451629701,-0.2625797457245988,-0.24010241129937873,-0.23464122477367208,-0.23012237334122446,-0.21475637125935565,-0.20603545888774322,-0.21939289505263834,-0.23717327414033135,-0.24737949531039324,-0.24047001903970044,-0.21531796919900256,-0.17892768232002776,-0.1372872926987308,-0.0955882057485351,-0.04605076286735936,0.031989534256913886,0.13772558962638526,0.25050068384543384,0.350855083372907,0.4290309223677678,0.482712133085926,0.5221835829706398,0.5655912093603701,0.6163112016255868,0.6472160132302729,0.658677064042287,0.6705031954626456,0.6928426352162032,0.7186450974008558,0.7405746882942195,0.7654265269094858,0.7867396939662177,0.7897739167777699,0.7658561313693203,0.7097655507594558,0.6443951760970774,0.588148670613345,0.5327326038996355,0.4917426233835813,0.49475866871396806,0.5422252730156484,0.5973383636055055,0.6270550255560864,0.6238402361847049,0.6084579212113802,0.5899311760446563,0.5449900650999422,0.4552624267037473,0.33845863163010037,0.22170354317794874,0.12127849509479893,0.04019004725101282,-0.015299619526414345,-0.04725929799904831,-0.055492849695805035,-0.024302128688500423,0.06493978663232673,0.16859907283007092,0.21996855778155747,0.1939270118139349,0.09535494409496426,-0.06323497532201308,-0.2658493148040956,-0.4518019499401646,-0.5325743264340209,-0.5366946747591911,-0.5380770538621177,-0.5646702285973465,-0.6189187173194084,-0.6782063263024103,-0.7248877122756985,-0.7417591907323968,-0.7196384000300398,-0.6460056001140201,-0.5142322256776567,-0.3582791324059691,-0.2339125295991359,-0.1652942806331192,-0.1444576662565254,-0.16084401838035903,-0.2114462125966755,-0.2950302574189349,-0.38833178916225447,-0.4358142570736448,-0.4279036771799018,-0.4094191744281343,-0.4069937228442635,-0.4235666441883913,-0.45506162223359964,-0.48393409599104925,-0.4836896131588204,-0.4409100861704848,-0.34968737955354284,-0.22715557816285978,-0.11080340776356534,-0.007988487004420229,0.08741365692532019,0.18912876892136007,0.3002306588732192,0.40728374115023924,0.4946361089889594,0.5516842934555903,0.5794808648250119,0.5830718408598075,0.5808804326864081,0.6020601753639132,0.6513722785052273,0.7156549185909633,0.7753332194842916,0.8217603057717044,0.8415064830021018,0.8309413023605867,0.8080586604445477,0.8095078752055626,0.8262174497150794,0.8328288507271226,0.8157875115428715,0.7852176340140244,0.7635519030190628,0.7629096659576378,0.7673153780643538,0.7521484994068828,0.705627814117219,0.6371377545808325,0.5646028147697326,0.511615104544043,0.4773393303008957,0.4423256733491256,0.3904136189422911,0.3278058534084686,0.2814924803078529,0.2531221154622257,0.23115654230240726,0.218315383231782,0.20445799064333273,0.17611692081450783,0.09093661477977853,-0.0587093187487435,-0.22150777095166196,-0.36734356799654616,-0.48947147008982683,-0.5613112099047889,-0.6002463124279981,-0.6059637698106217,-0.5834524678520674,-0.5621673274454508,-0.5981896551556868,-0.6655669085216741,-0.7268735288862495,-0.7692052756090189,-0.796862825125895,-0.815486690817612,-0.8247960345944935,-0.798384183244302,-0.6614479514872905,-0.4473196748111772,-0.2706456010851601,-0.1717723756056094,-0.13037378599508723,-0.13585674557398178,-0.18986526537443849,-0.2905269398582254,-0.39848191661961363,-0.4726157231519369,-0.48778918613042266,-0.4449725568633234,-0.3671276857752897,-0.28041574076205983,-0.20083147050889555,-0.15839404629706824,-0.15286435944257923,-0.15203548064881636,-0.1325665935019668,-0.08172658870353189,-0.0022364376031367124,0.09503673594463678,0.1984559931880819,0.2880602051939449,0.34932732663689975,0.37543946208013396,0.3868155066181385,0.38852901231859216,0.3607598024947585,0.30573920783486924,0.24856779379693067,0.2583384088554572,0.361116641329299,0.46951783210396086,0.511030518075129,0.5074403297984493,0.508016094657632,0.543676314835756,0.6171198958317572,0.6568311029437564,0.6227087667776164,0.5500508034748154,0.461699489457196,0.36322772300047074,0.27636937913371035,0.23021980142327259,0.24105265942924145,0.3085645063182842,0.4296202303943367,0.5666799981052326,0.6860085695758048,0.7734446025735199,0.8026028017529947,0.7332312809710121,0.582263364789265,0.427826615419789,0.3191878404812772,0.24666202919447494,0.18080718860637687,0.09774485508777128,-0.028453592474282155,-0.15803476672877226,-0.23355798222136437,-0.25969054876158587,-0.27964155604573565,-0.310516607577034,-0.3448598682652892,-0.37792710432932086,-0.43035204023926815,-0.4931878732875859,-0.5439091791659758,-0.5636968852837781,-0.5521360376430661,-0.5310770149442239,-0.5297251835118328,-0.5481217000237186,-0.538520260756165,-0.5062514303320506,-0.4887450694094377,-0.4760695444758195,-0.45163049245092424,-0.40805134328314946,-0.3427052136677357,-0.2489108192187013,-0.15969480774718633,-0.0889675485381683,-0.059636602267080084,-0.08353635074690673,-0.1623888184166057,-0.25521055473270887,-0.3009650760998955,-0.2815743846341177,-0.24857362036125363,-0.2292095408112172,-0.24062791306620043,-0.2717449914055039,-0.28917077512527223,-0.26511975709957003,-0.18186846838942433,-0.03710251795549597,0.134364062324252,0.2714896802956626,0.35509659108664654,0.4008753529572963,0.4264076004601762,0.4384044539869431,0.43462806706687396,0.41439461489742546,0.39621361459257703,0.38647604984398304,0.39633160011179946,0.4253147725854708,0.4630522902240543,0.5108248082084802,0.5669111768911524,0.6141824853907446,0.6469498185647984,0.6714568808697071,0.6965575723061864,0.7385240818478883,0.7837417056294484,0.800069674433951,0.7866022981504526,0.7625859202229333,0.7444978046475555,0.7392213601304035,0.7364106948340304,0.7006766608985084,0.599014012369081,0.47163860201326396,0.3892730708065498,0.36282329813167435,0.36958053144266517,0.36779132965992284,0.3426682474526365,0.30425275857168577,0.26500678884084833,0.228773461773803,0.1802478544905934,0.09722763101605907,-0.0323657697477329,-0.17246577195936583,-0.2876963372748797,-0.37810663270427547,-0.45467802801367757,-0.5171474295641424,-0.573964579064852,-0.6142212115204715,-0.6364515754039985,-0.6588860939871238,-0.6885860943655746,-0.7142347716664965,-0.7277963357418527,-0.7377573555488175,-0.7483111090991584,-0.7564518775504279,-0.7717281345707936,-0.7965072792562775,-0.8216728690074694,-0.8197553994645898,-0.6906142822027744,-0.319719315355641,0.037131455336343246,0.1968383059666112,0.22183126541041204,0.14258479155141918,-0.018349677377944334,-0.2327532737131773,-0.41940678743889004,-0.5267734476985925,-0.5622552374399759,-0.5576620092292782,-0.5390606674298821,-0.5176223518593874,-0.48435920874499566,-0.440317798504002,-0.4011604682569304,-0.3898281372167476,-0.3883515295675106,-0.3691937408861449,-0.3174925348462503,-0.2248336327875698,-0.08137989344827604,0.10561706450362136,0.3129078823318534,0.4791980998491678,0.5912778761379961,0.6635166309887486,0.7086195942427148,0.7326184244268894,0.7353342852940904,0.7221294131685971,0.7160283260743852,0.7292745713855917,0.7449889759894094,0.7651041790350055,0.787767901996689,0.809242680895008,0.8227651025784718,0.8271566711016423,0.8250172657841857,0.8194106149516713,0.8138870681062915,0.8050633869127525,0.7824088466117032,0.749821254132664,0.7104006577879335,0.6460544786636181,0.5383755316445272,0.38816420919479766,0.24278160231353282,0.15218320250961365,0.13074667987442357,0.15195079768315856,0.16425941564225255,0.1287319015369882,0.03676644034352017,-0.08178193571144862,-0.17695904728408934,-0.23906220170049725,-0.2766985470141169,-0.29667159682309974,-0.3128474371098339,-0.32181229008314227,-0.32370931830989635,-0.3161097466006753,-0.3054099542049055,-0.2788695990898484,-0.2526433212528133,-0.21755824562395912,-0.1905556846662232,-0.22108269950729945,-0.3014082865131079,-0.3997323267697066,-0.5008418091698216,-0.599141684348183,-0.6806379608071706,-0.7265107366610178,-0.7280163609773855,-0.6817387951295352,-0.5894224308339446,-0.46175087886845245,-0.3513487368574886,-0.28419870976506256,-0.24832122980266094,-0.23026821624859053,-0.24242210684213444,-0.31916831869936996,-0.45047006544020396,-0.5476746132317598,-0.5778217735178138,-0.5598801298122293,-0.523710873847949,-0.47257726309353604,-0.4084636708832345,-0.3167815287120275,-0.21823542954100192,-0.11779993392067513,-0.021463589686360245,0.06308589811070585,0.12357004104713869,0.14671381452360746,0.14933487357471725,0.18173785179889873,0.28993538642530386,0.4426630665199644,0.5606957167616866,0.6211129594230348,0.6536688410669298,0.675413047043637,0.6949897104414555,0.7104615289460123,0.7249449206891454,0.7395468389503853,0.7399227136964488,0.7267219485339426,0.7263225851220058,0.7426006683893178,0.7607233106408232,0.7608065761967763,0.725578888630093,0.6494403805624126,0.5395365546071977,0.41403547421531545,0.2903218854825237,0.18150510966044067,0.0868076167673602,0.021496302239417193,0.007775579591069588,0.08257094242496034,0.2579267027695155,0.4831200427389285,0.652026138497725,0.7406710705104004,0.7710876215636834,0.7673344277438361,0.7356252981833552,0.6756402831974636,0.5611702953844535,0.36008562350478146,0.1343675642973412,-0.02360627447039576,-0.11492719909954718,-0.1852569398649991,-0.2790129861165613,-0.39987554710458456,-0.5291189324009473,-0.6276137316960724,-0.6921892559894469,-0.7188466479791179,-0.7130918600092256,-0.6884975456092454,-0.6797342808009592,-0.6963268500182371,-0.7182385691321004,-0.7411058374948858,-0.7595188610795819,-0.7546931767514691,-0.7212068587596822,-0.6525638050302836,-0.5528497604326261,-0.4356588421177257,-0.3309264960297985,-0.2723111267332833,-0.24687719742085631,-0.23292105235199417,-0.22405645040407554,-0.2273436412269252,-0.24292393072237403,-0.2706808460465298,-0.3066725286592066,-0.3405970460702514,-0.36098932017803925,-0.36448500683615176,-0.35220790593344187,-0.3229559621874422,-0.2892482014789071,-0.25101075865335803,-0.18678369734456413,-0.07161328808600693,0.07989569946766323,0.22676026239299257,0.334485140644728,0.40321984775600533,0.4402667447591679,0.46345947776699575,0.48204769469408926,0.5046537901402723,0.5390672805319183,0.5890893389232932,0.6463032797782484,0.699297189463326,0.7393068743145442,0.7574335316977153,0.7434577399002987,0.717606128812824,0.7030438711682102,0.6977924535039743,0.6919690540410698,0.6776693494260488,0.6640559517339846,0.6700321723804009,0.6968175638361698,0.7279346273743673,0.749561721694184,0.7486453610223666,0.7200218877143868,0.6436886241258271,0.5169955911237626,0.3839057198614631,0.2990201611586416,0.2560059246869152,0.22557153583504572,0.1796235094347831,0.10588627950823025,0.010063154995379523,-0.08022301252681865,-0.13388057517292712,-0.15710900645150588,-0.1653291556914463,-0.16966100452194288,-0.17854136088895772,-0.19965142823263052,-0.22668944919432021,-0.24861581312850864,-0.28382069040750646,-0.3185439140364599,-0.3436974633344872,-0.3830343231197783,-0.4428847601304477,-0.5081564837279198,-0.5678433135184137,-0.6051746695700598,-0.6076690039843625,-0.6065805627832641,-0.6205400314184105,-0.6411988476559553,-0.6509065028726989,-0.6373063876218643,-0.5707341560130089,-0.4268629526065089,-0.22319913481673231,-0.04378999018228335,0.06280862158185237,0.08970161418264797,0.036764857142233445,-0.08310720714941046,-0.23620790141224893,-0.3681834986656226,-0.44631274382284536,-0.4678231193526078,-0.4455835036922348,-0.4033064123462899,-0.33981118535651794,-0.24317316009583353,-0.1325726003387714,-0.03980441970444878,0.03550801251933041,0.10847016179407357,0.2000225234453827,0.3015755534233516,0.40526611228076803,0.5068621935002928,0.5882696886410865,0.6349033207865508,0.6570030889861891,0.6602496566461726,0.6527694972480237,0.6218667541055232,0.599271803344827,0.5979688801949372,0.6265220102199848,0.6670076580501474,0.6991361356682515,0.7106088286785178,0.690079644747597,0.6414346226391224,0.5749758498568497,0.521704042359109,0.5146368482525281,0.5591070388173622,0.6239535593983484,0.6795100222359094,0.7065281191986177,0.6944192275192896,0.6366969001937325,0.5300867628689223,0.3744799763601784,0.2162178808452873,0.14061976086826777,0.16535456508040028,0.24174983362690988,0.28337840330150166,0.22808829366388336,0.06960080145337993,-0.11894139531537756,-0.25482568785541043,-0.32159232330306015,-0.3302379552314444,-0.3270055110304412,-0.34172757531819054,-0.3886967745587167,-0.463578059337563,-0.5445203421357806,-0.6091960449136155,-0.6415755690207485,-0.6266426220602086,-0.549819560516269,-0.4570761757712032,-0.42462491663326396,-0.47616970733187935,-0.5961851184139456,-0.7028405353643467,-0.742203060501519,-0.74351464428606,-0.7182281146046234,-0.6743441366451517,-0.609276634167266,-0.514800427775932,-0.4106143769537141,-0.323802258965321,-0.27395504136695636,-0.26297004512820277,-0.2773295713198674,-0.29578164208261515,-0.29314480145804994,-0.28253165403826364,-0.27459906356941743,-0.2797276700971759,-0.30544633385913234,-0.3489984339852586,-0.399591606017811,-0.43963208531973236,-0.43897546665860493,-0.3670602093993053,-0.25547407819212214,-0.14776363895151265,-0.08369649678771864,-0.055909369175618014,-0.03319772245102921,0.011291619345541664,0.07859361993763878,0.154380234270567,0.21808285385305623,0.25498871900513925,0.26425260050371513,0.2667833971021587,0.2811077898826203,0.31476596546047325,0.3725652657333805,0.4630090697286151,0.5634462970520088,0.6397534231071176,0.6750841522475891,0.6795960707789493,0.6731354226779775,0.6666012469832108,0.6669591693846132,0.6726980262162063,0.689911629058288,0.7127182428005713,0.7234030536518132,0.7247422322888135,0.7144368843891198,0.6992889678835126,0.6848140615507983,0.6685305180338335,0.6382654533133706,0.5778856098106289,0.48054941397776774,0.37528032000005146,0.2923815165638796,0.23036775373317922,0.1987617642615446,0.19511011087528346,0.20779660622791618,0.20638028220090956,0.14771044892339466,0.0325266880245511,-0.10942284549041194,-0.2612586147760146,-0.3912547148595864,-0.4803173025125192,-0.5295569607612819,-0.5386435950860726,-0.5230556124122238,-0.49806258169650136,-0.47929242969407193,-0.4887563664690254,-0.5072659253905482,-0.49271052105399243,-0.45602006649403465,-0.4247471640383375,-0.41829173752574766,-0.43458977163759005,-0.464078260751896,-0.48653098831285896,-0.4921470470915194,-0.47516558919196117,-0.43701691109690477,-0.37448772478314235,-0.2857218554264642,-0.18405397101610507,-0.08519029815074698,-0.007491178117916315,0.03276434386035463,0.03182547364085338,-0.014614875482351042,-0.10253139084243776,-0.21000682796583867,-0.30521930330597224,-0.3666734745238087,-0.3713442085638056,-0.2980895736109409,-0.1739588864369066,-0.06208676140836736,0.005797856395824805,0.021348929970871604,-0.012842730771122458,-0.04807548223932908,-0.02503110165488962,0.07048285436884698,0.19869187407483566,0.32004350848978463,0.4079803463498939,0.4538567111644536,0.4555480558480931,0.416619400768717,0.3338939260124942,0.2447710812926082,0.2306212543293026,0.3743336448671094,0.5808663505663874,0.7036053045684417,0.7579164685541186,0.7830070339833235,0.7951819992416466,0.7960576242640328,0.7817921090759816,0.7544744448450886,0.7264294765214323,0.7219095530657929,0.7318706325058879,0.7364435834399418,0.7309765745436825,0.714339382354405,0.676340309935091,0.5947319870368847,0.4703252290063924,0.34864418067242214,0.27123938564106675,0.2553898253037182,0.28601041346981193,0.3279097347147061,0.34277105900942145,0.317785410608442,0.26118964103228914,0.16946674586459598,0.022133080739059553,-0.18039017811114896,-0.37379182420984897,-0.4997353284309389,-0.5647240228727239,-0.5820734540038393,-0.5677821079113142,-0.5242394303101114,-0.46910086364586573,-0.4524504691005908,-0.4990724049027203,-0.5538817595215049,-0.587960435382837,-0.6248812098826273,-0.6813939945824944,-0.7505367683609875,-0.8213070000421783,-0.8695970497813778,-0.8871963050343994,-0.8647472443447671,-0.7785097565570637,-0.6387540906973606,-0.4853931289976805,-0.3603829241889378,-0.28514236305540575,-0.2591992482993569,-0.2599166661877908,-0.27182392373414715,-0.29960879921502714,-0.3360095035779024,-0.36563979111600814,-0.3797720578260969,-0.37664316513799156,-0.35854010559600297,-0.317569682738743,-0.2453432301750632,-0.1509579273748345,-0.06459169591296873,0.005909322760628187,0.06290629357532516,0.10628367803367786,0.14388846521017432,0.18651305023824685,0.2431601707839987,0.30214220380873996,0.35256096662793057,0.4007601454172718,0.46077478180924936,0.5396649593496173,0.6210703183386366,0.68447635459185,0.7212701942555829,0.7318177387416932,0.724752535080407,0.7134009140230775,0.7171753969898299,0.7469437689588083,0.8008063309225527,0.8645176317183193,0.9106091898267658,0.9224272714008924,0.9032526357785662,0.8734144463762125,0.8505047807057734,0.8265851218146649,0.792004232543551,0.7619991269318461,0.7413554790125841,0.7296227563096248,0.7260217901162956,0.7275932243738007,0.7276640524224284,0.7155945724317301,0.6788951761228169,0.6010680963577562,0.49789060973415306,0.37153063379449075,0.21945431200434537,0.04972693422567114,-0.1111577429835641,-0.25390316123723444,-0.35515934478643724,-0.41923929074911703,-0.44667278631297,-0.44533330887975175,-0.42227534414787166,-0.3842070839841686,-0.3570790049175832,-0.3703735460637097,-0.4154494332434915,-0.4788123795936354,-0.5602508830892731,-0.6531023996181653,-0.7473774416802264,-0.8260564884693478,-0.8859320724437191,-0.9304921410265182,-0.9563884733510963,-0.9608198074806709,-0.9421600181544266,-0.8934498396628755,-0.807204648720515,-0.6866585315804914,-0.5660484594918471,-0.4814867389980718,-0.4390197019585668,-0.40841418038408595,-0.3660119559772986,-0.31365885479755823,-0.2635094222403718,-0.23603738202930652,-0.2596089298981925,-0.32726950910164426,-0.39875506894556123,-0.4320489842606606,-0.4124941926993366,-0.3412654919731738,-0.2243949429659604,-0.07353261035070521,0.07414627353704908,0.17163039681949646,0.21300494135871537,0.22146699305478676,0.2319918865254941,0.26356604017369895,0.3116834462064106,0.370393306240821,0.44311691499449146,0.5210851739925936,0.5795468506568634,0.6038310912235983,0.600814907503424,0.5946649141083393,0.601838794978927,0.6316606742557646,0.6735905225090876,0.7005018777714067,0.7073752458575235,0.7024968908573487,0.6908221931720717,0.691184520273786,0.7219643109195952,0.7642066806699406,0.8011445695438679,0.8232235048339677,0.825266970024695,0.8039760356066228,0.762710759467501,0.7102496832051198,0.6291779435519023,0.5168451864484545,0.40670966191538555,0.32343113353128683,0.27324146940884625,0.2483276586315163,0.21972010653185617,0.1729959939243185,0.11290976853375488,0.03249511434372914,-0.05587550266200971,-0.12227753480452519,-0.17016274204853435,-0.2143811194299432,-0.2604372104876323,-0.309844994752816,-0.3568025486724067,-0.38978061403657077,-0.4023573140837122,-0.39142286092195044,-0.3840940469986634,-0.3977822676001537,-0.42383828164918924,-0.4377528996871663,-0.46386072815739937,-0.5210230413281047,-0.5782596739432265,-0.61577065197846,-0.6445247616325036,-0.6760818967366979,-0.7234895918584662,-0.7490024144822142,-0.6682651156437963,-0.5193876604588736,-0.3857877229721217,-0.2941151072201236,-0.2388707059680645,-0.21478526012980792,-0.21923444649468446,-0.25052010569678546,-0.30829013078541595,-0.38515665562193024,-0.474717751773527,-0.5603305861782325,-0.616258415140135,-0.6143483778657063,-0.5471374877271403,-0.42344189914503494,-0.26446012977897126,-0.10942968281237474,0.011650938721066354,0.08470835242104997,0.13393803824479453,0.18316596516738268,0.23550392045793025,0.2947013382870898,0.36045424356458666,0.4277932664301238,0.48031543667615,0.5081233181151061,0.5101882673096658,0.5119165515126597,0.5250158772753392,0.5549640866791112,0.5940661164194277,0.6314103640289811,0.6616372074185465,0.6853528713250835,0.7070188435536642,0.7324695369488049,0.7607933189224999,0.7751768862205098,0.7712261782270429,0.7709823396716476,0.7848885485463587,0.8052830384613985,0.826941925174978,0.8420474008316,0.8405663805464504,0.8120969916587653,0.7457322659850542,0.6608151970900218,0.5902432623286229,0.5454355914914197,0.49889252062695233,0.42933077076524034,0.33140058984150184,0.2428426490452128,0.1995140549990795,0.2090773053730081,0.2339193715599473,0.23668769047893312,0.19081177564292245,0.0923665421918479,-0.026168088394010844,-0.14449822363185677,-0.260559755090166,-0.3474472546860691,-0.410009786293459,-0.4447752307269227,-0.44930853465817894,-0.4165957500886769,-0.35450167824235496,-0.3104024400328625,-0.2966701544279113,-0.31669332528408706,-0.3620026946453355,-0.42471996809822465,-0.5101913405673322,-0.5858268784339213,-0.6047872088435974,-0.5729830629576342,-0.5145398371823386,-0.4365474393380924,-0.36825068848016934,-0.32371513843589533,-0.2998472992747256,-0.28792754853826147,-0.29225765150453953,-0.32102920208310765,-0.3776859599963133,-0.4497824507379167,-0.5225456584815509,-0.5783177920354723,-0.610095096338718,-0.6214940877842735,-0.599806615601151,-0.542159824072197,-0.46186713194921386,-0.376139621523781,-0.2784697554703809,-0.13646410375597587,0.057884465077004045,0.24067796665785937,0.35650917088940726,0.4122310989420234,0.4301779600011248,0.4083995438825714,0.35401813546839783,0.2801947619026556,0.1947582998362925,0.09148581963805176,0.030750400183078917,0.09174687944220081,0.2654537583768398,0.4536328028593365,0.5810707656391618,0.6489352479488955,0.6758548652230044,0.674485866014034,0.6568342079828369,0.6565348198893476,0.6936799940893695,0.7474522554382912,0.7762396248474024,0.7903028281387353,0.8063035323028803,0.8218770271731554,0.8263370928687552,0.8023761533646042,0.7075625923545718,0.45621470555005667,0.14451655815720815,-0.029135010455366175,-0.07645748583007894,-0.04449399805340886,0.048091609426236054,0.17633305323066897,0.283481796128357,0.3333675028153331,0.32058762709367644,0.24211787223908182,0.10485254190577738,-0.05328565820484072,-0.18005626601463068,-0.24967072172178167,-0.2815593109507358,-0.3179000989058965,-0.3781285312231847,-0.44333459952476106,-0.4908490829113243,-0.5234390073244753,-0.5432860716527728,-0.5477303438849487,-0.5267426795278091,-0.4896183517171313,-0.45948840513295336,-0.45157775348523876,-0.449514221230527,-0.43084904368673105,-0.4042168786697415,-0.35435396836489197,-0.27581754013774074,-0.1829494247666065,-0.12186715627260196,-0.11751325442342912,-0.16268069625061862,-0.23416795090615913,-0.3040786317581598,-0.35821950450916806,-0.3986230598163835,-0.42383591255280034,-0.4253587608503173,-0.3955678058076531,-0.3406260534129375,-0.2850581560358733,-0.2537444662090896,-0.26129361379661015,-0.28683176295227153,-0.3104226290811065,-0.3194385268402744,-0.28544250140637456,-0.1793898280973766,-0.008201753509098934,0.17520650013395778,0.34282908672921447,0.4986874703805444,0.6324387835106272,0.7328888878222077,0.7994724246327239,0.8462423722959681,0.8806614522522834,0.8942989258632693
