-0.6785835644375273,-0.5620725725622068,-0.40827246516894455,-0.28487437458672427,-0.2163441545532104,-0.18654842241556782,-0.18750344832128454,-0.21965285023832234,-0.2858063047374211,-0.390698397431246,-0.528151488158922,-0.6442527395245157,-0.6279277089613831,-0.5007626268799685,-0.3570938367538548,-0.23874684793689002,-0.1596966578075533,-0.11294069261130273,-0.08709258833678149,-0.07685514429200166,-0.058520610285956585,-0.0236269005678179,0.03235667908682922,0.10822744969744985,0.18076548628277014,0.2400405817330055,0.29838517849776136,0.3743739543837005,0.45954291375477196,0.528222661577397,0.5514763670485573,0.5233461140721721,0.4615109176475965,0.3886723930308816,0.36952745113486235,0.45044029311945244,0.5918144331459375,0.7215460851977843,0.8157429317349632,0.8681654906838903,0.8798000026034086,0.8540726879730419,0.8044493538063942,0.7638501582256442,0.7491199650081981,0.756273313932499,0.7680578224288949,0.768167321339922,0.7493189027283801,0.7134564977930035,0.6718738942971324,0.6373937138525197,0.6018373907420993,0.5427321988515369,0.45618365450107534,0.3610078503340591,0.27219175223182057,0.19407015659024449,0.11571563851788207,0.04717716015048253,-0.020532098858758813,-0.07748047602387885,-0.1240915817210584,-0.17778083871880185,-0.24553038519964435,-0.3290215635908074,-0.4116539406450338,-0.49206863879204915,-0.5696744311801633,-0.6411625979531498,-0.6998972335424496,-0.740622395596408,-0.753531001084044,-0.7400241806934397,-0.7360605898988004,-0.7657195048988024,-0.8192950246764612,-0.8461729813852017,-0.8052999508760726,-0.7213966430736856,-0.6275592232529997,-0.5319435209302086,-0.45151485141859815,-0.401985348715415,-0.3902805269113471,-0.4142291884034091,-0.4564089847012101,-0.49641218057700176,-0.5212189864401124,-0.5167005370202662,-0.48533563654456147,-0.4413209860220677,-0.4047262652133514,-0.38436800952929656,-0.38828243661310013,-0.3997301216664754,-0.40133399194186264,-0.381021848700349,-0.33216675172666993,-0.2517379490962296,-0.14894928051970702,-0.03503974809048128,0.07626023865838237,0.1723612946822802,0.26487548742618044,0.34326324236865874,0.39775072812778367,0.43957977037788193,0.48869883065263015,0.5403662991167031,0.5867728245080255,0.6355445350130319,0.7014293100527629,0.7591614954868533,0.7587418441261741,0.7256783119462438,0.7064233768680501,0.7162433281360718,0.7502106223382506,0.7814016051535319,0.7860180136094167,0.770689024423676,0.7499528666640108,0.7339845857480624,0.7268333255428573,0.7201183612951838,0.7004276022420839,0.6521617543880114,0.5730481281858154,0.47911566508733433,0.41830800999538875,0.39701698193967483,0.3927299114622631,0.38239245814452794,0.35974603128583676,0.32224033617204506,0.2647617817030862,0.1936541829439754,0.12236169759465079,0.0490280421901551,-0.02244602454917181,-0.08024701836433484,-0.12190245177376201,-0.15394874011595636,-0.17272137348317887,-0.16576485795378348,-0.143782139261219,-0.11866517336828908,-0.10611205666913104,-0.1178430041428513,-0.15556684634842868,-0.2142418404328929,-0.2881439853825867,-0.3870324599767365,-0.525731873589816,-0.6711595061237371,-0.6625986691368716,-0.5628969208595627,-0.5088084359975564,-0.5179508327792524,-0.5602113642504734,-0.5868934355016818,-0.5565532677290732,-0.47505875008164966,-0.38151894653366913,-0.29576462874842996,-0.23216230059002385,-0.1913190258339716,-0.16321347868638833,-0.14372539265430112,-0.13487077472303735,-0.1451230209814774,-0.1820224950769298,-0.23559035297226405,-0.2786094567307658,-0.2935482853908505,-0.27912200870217835,-0.26560200097351716,-0.25656119074366485,-0.23265865476454908,-0.16782652802098036,-0.062302611045353985,0.06804013330083118,0.1768526733679487,0.24989603348071537,0.3058057407398083,0.3671665191151865,0.42182605542119117,0.44923162289800483,0.44721236699364747,0.4529398102465338,0.4928041098386211,0.5710181674358543,0.663335136295696,0.7408366496599328,0.7913397632457819,0.8136863105541389,0.8095728498488852,0.79331443670637,0.7700214217971874,0.7426052246830739,0.7270947249816607,0.7325330070500954,0.7598975758419722,0.7903922365586835,0.7794511445650366,0.7077926771146618,0.5905948721818348,0.4542948774657168,0.3263910949539396,0.2321961345009052,0.17310249962374846,0.14538521057905063,0.13743703466691434,0.13167821816334582,0.125915649800532,0.12858463069789905,0.13617275922637415,0.14439444870773638,0.1324997551531683,0.08347180168791747,-0.011614857553312683,-0.12366874920013742,-0.21150279710813535,-0.2648743540286233,-0.29239479044871663,-0.3036114968419823,-0.30909600514538876,-0.31609486401978854,-0.3464365513693081,-0.4122454474419577,-0.5106161217598646,-0.6451864102269547,-0.7790758899007372,-0.8579747217027498,-0.8925778661572457,-0.9107918818266889,-0.9193150047046725,-0.9043107782192259,-0.8514937761795813,-0.7664977297691552,-0.6716968392736008,-0.595137987289745,-0.5480779962611589,-0.5176991691476701,-0.48635712769888956,-0.4515878219042564,-0.4276478656325884,-0.4278284173231205,-0.447770738067968,-0.4593733073899466,-0.4515385353704398,-0.4229445151960061,-0.37074815291549224,-0.2940389441220966,-0.203904578439755,-0.12300293663727574,-0.07156131454174006,-0.03803801323503078,-0.009203324016274947,0.03777707381093149,0.11383625755273744,0.21903622869932599,0.3222165166933216,0.3955536550597839,0.43956014249114284,0.4648305029840416,0.4885400477168245,0.5255197653131043,0.586988118174868,0.6547370034379378,0.6977260658967067,0.7150432690533478,0.713915193322609,0.6960678172846935,0.6822647230971841,0.6923241406924906,0.7287751670372574,0.772398287358396,0.8059225011030553,0.8301126678458463,0.8467738562740431,0.854732385052411,0.8635038148035528,0.8715916340987092,0.8663252729470478,0.8413870811683364,0.7949336593868607,0.7156509285416012,0.5951788337303091,0.46317675284192056,0.3570572468087949,0.28032637653142056,0.21733452550468324,0.15156905006958074,0.08301119713267162,0.010936851397716925,-0.06181359007830615,-0.12206059169917635,-0.15651579355928455,-0.1457180267217134,-0.08270819460834182,0.020455257175242585,0.14274401584527321,0.256150965652273,0.31290859646746705,0.2688028780053502,0.13866819427815472,-0.02519935533489159,-0.17101872930858206,-0.2795266999933891,-0.36022615563357824,-0.43685768132766417,-0.5267083247689668,-0.6228560747660201,-0.6902984998873201,-0.7182293867486701,-0.725298213202859,-0.7227918742235674,-0.7168268889778341,-0.6957162868633189,-0.6313286657167617,-0.5174310845013578,-0.41613398751528974,-0.377950929372703,-0.379688317582613,-0.40309473241832494,-0.45490758585404995,-0.5416854317569965,-0.634227399386634,-0.6995263761562529,-0.7305252478086384,-0.7260779123596108,-0.6864082193427384,-0.622049904630432,-0.5467336720961069,-0.47334463778152747,-0.39997566688814196,-0.32723881763925683,-0.26056236425974744,-0.20196244365280905,-0.14577609300337094,-0.09235696959852135,-0.050043400607712764,-0.009834721411467596,0.04585456185972551,0.12194801751695612,0.21104264926299357,0.2981235176791278,0.36233752436646466,0.39350892668468773,0.39476150930900433,0.4024741661421857,0.4543466588130372,0.5782801890357324,0.7159102434957846,0.7545313847105773,0.7048810691102547,0.6322794327811257,0.5727977030361393,0.5495002090200634,0.5687648024499893,0.6204525898822719,0.684655104297907,0.738724000713767,0.7733535780494329,0.7902861770502417,0.7817704148718623,0.7348273086096702,0.6438734589844535,0.5337243590522114,0.4452306804756445,0.394159473829552,0.3610028872380804,0.31392027247153564,0.24571980655206763,0.16972602549380109,0.10632188278302954,0.07712870388018463,0.09468600715432457,0.12538636027436842,0.14002835934366628,0.126035528215622,0.08269046138118469,0.019004690530277438,-0.07269018835972531,-0.19821842456252656,-0.31517086879444844,-0.3940501996665538,-0.45307596398579886,-0.5035210654398361,-0.5494807269202823,-0.609236178749947,-0.6753146857205555,-0.7364042156996036,-0.7716469164812072,-0.7865183162932214,-0.7800981227081407,-0.7422321176445627,-0.6425497468797156,-0.47101016900861636,-0.31330282559079997,-0.2417853206436619,-0.2382423455746454,-0.2683216343619129,-0.30334480191569413,-0.33429232183326363,-0.3681592292482811,-0.425260002128071,-0.50412324131115,-0.5722676568728837,-0.6101593166651366,-0.6172207088757142,-0.5903215096679442,-0.5227697897855133,-0.4143246737645103,-0.28729359812245353,-0.17055645174799652,-0.08929715843924899,-0.03036608372958458,0.036092825273836775,0.1251229137564053,0.22197223129254018,0.31106445261696497,0.3794754411308427,0.4178686507104867,0.42942914311751806,0.4323971853141443,0.43926411676972293,0.46121098542101757,0.5139657487883273,0.6027920453998656,0.6828370512504542,0.7150200689919567,0.708545319598116,0.6955867281579013,0.7046920005304632,0.7432088510459621,0.7898279932999778,0.8096391917034205,0.8051419323894767,0.8038947351301903,0.8148263695955645,0.8191027330088098,0.7948265078281107,0.7525976483747046,0.7158392036633623,0.6968572014339282,0.6875909564622833,0.6581673658668681,0.576944312262434,0.4636456716869109,0.3772287094153467,0.32815536256497013,0.300633938659192,0.2680986433048717,0.2204591778972935,0.1595650275482186,0.09153740330577433,0.025549557078745063,-0.04289691234599482,-0.12179215226761499,-0.20793720808957045,-0.298010760442004,-0.3849852181228045,-0.47627948912244433,-0.5678807224712347,-0.6394585921641613,-0.6723436495230711,-0.653527145002238,-0.5620225122458676,-0.36846055734360333,-0.14782103158995596,-0.08095348567281771,-0.2189982002856483,-0.4329618083326705,-0.5648186622841503,-0.6251919499525078,-0.6315248816843938,-0.5990228151665652,-0.5321763714532798,-0.442207433256374,-0.3553294829540352,-0.2941294978386688,-0.2596016941890565,-0.22824720844359775,-0.19789542886427025,-0.18216291351143546,-0.18460405208691624,-0.19671221709984324,-0.21342121953979556,-0.238039388560746,-0.2719915707369337,-0.3129615733125864,-0.346847749048824,-0.3554460204906602,-0.33949718132758117,-0.34038284877184755,-0.38293825043019575,-0.4452502254244048,-0.47936359687961316,-0.43534470176710577,-0.3183330803532394,-0.15924916941106754,0.035964131398627204,0.26007254550917835,0.48167951579706964,0.6444980529497012,0.7486435115677276,0.8128622993884557,0.8512238033686594,0.8672587286729837,0.8588993328020684,0.8320237325188401,0.8061379047377827,0.8051193857386801,0.8271221633070286,0.857941066582797,0.8891969499231425,0.911896970522013,0.9192439975220635,0.918831476711831,0.9193698937940427,0.9199461012519285,0.9139353080615835,0.8929371112095692,0.8487257294368099,0.7752209213742993,0.6842174224656166,0.5854858619211513,0.49673712054994373,0.41511298786595874,0.3294149084687678,0.23754628600222658,0.1524597599880061,0.07580330103426712,0.005814952798219026,-0.04419040815779348,-0.05885797539841367,-0.03188015373421511,0.014138737477960397,0.04981074536655008,0.048571035923902994,-0.0008477594006006799,-0.11039773210167156,-0.27431847324583974,-0.4508684552047599,-0.6120735199631324,-0.7475494953437135,-0.8163666894696078,-0.7673148065934723,-0.6654838210652436,-0.6059470056660298,-0.6069166255023218,-0.6536760179334691,-0.6998513656002646,-0.7154521263635573,-0.7026946011632103,-0.6705570509452129,-0.6194083613205694,-0.5408260531358665,-0.43743250693534835,-0.3586458883168781,-0.327228360793746,-0.3295190248737546,-0.33863072039415587,-0.3460622600466404,-0.34656699780704814,-0.34263639278089375,-0.32451646365919157,-0.2916088980715306,-0.2458078675744027,-0.20724327263701003,-0.19055498008231572,-0.20085096175454517,-0.21195133499352312,-0.16621505320148208,-0.09645170072373146,-0.05652605510748148,-0.03909117966845984,-0.03339727153450943,-0.03430997958454051,-0.03588557251953122,-0.035578181871621484,-0.02813466545177477,0.019150657108598593,0.08881576988214664,0.173418117929706,0.2883823671878961,0.42928741783905544,0.57012333916365,0.677856340100829,0.7440175022487839,0.7817905996323213,0.8081352676704593,0.8262914210420905,0.8323718118751829,0.824980213611833,0.8064792716928734,0.7765798014685216,0.7530514780780555,0.7518596006383591,0.7695987825369869,0.7898991427248435,0.7976933966397249,0.7935846409677002,0.7716202203444271,0.7188441409660444,0.6146441997827655,0.45965139349999706,0.3133452763280034,0.2407642830980404,0.2471294476721343,0.3144443381766006,0.4006223526540588,0.4694350450590516,0.49798147268469817,0.48066470153045926,0.4142424129237398,0.3092225170490605,0.17851869287273256,0.04358367898938537,-0.06409372867534299,-0.13330690107836785,-0.16926132104754615,-0.1916843219037186,-0.2308256142000317,-0.3007871416654351,-0.38293687642810065,-0.45114931009733317,-0.4987383011610197,-0.5455455386570247,-0.6113447968628208,-0.6878094257300005,-0.7415117379743524,-0.769537246075565,-0.7966351199532742,-0.8228622238891816,-0.8410226601043964,-0.8301309470356969,-0.7721554967872724,-0.668985652441297,-0.5585909077999924,-0.48014432012772074,-0.4423717108600562,-0.4355503825485045,-0.44575627261912687,-0.47233960958286497,-0.5140719553308556,-0.5384115601236085,-0.5340522380203749,-0.5200263369655369,-0.5195496886121959,-0.5250334303385243,-0.510715430493928,-0.4670123357256366,-0.4217557244842992,-0.390300699250718,-0.3571675216655678,-0.29211738535959647,-0.1742550254227783,-0.03543668595820996,0.09236548584491029,0.21386334487802228,0.3315996866485918,0.44403740987338125,0.537114287822149,0.6039947555244047,0.6408732753408872,0.6608079068989698,0.6724653013770513,0.6731593083090895,0.6637480807877123,0.6585208327995078,0.6692439878908274,0.698400489745383,0.7415527667659864,0.7859753051997104,0.8123043528094309,0.8071488208839064,0.776003614490862,0.7363856127209376,0.7064651870545317,0.6924059501839751,0.6963747765473587,0.7216358109177844,0.7475329935662695,0.7307825293129486,0.6345927049307571,0.516989454312901,0.43403113355046125,0.3908031652251619,0.38692174249815425,0.42594722320995887,0.49337875698990624,0.5463170345469662,0.5480008872000218,0.5037273997833508,0.42469842580284217,0.318023226153849,0.1876091280166573,0.0643195783267469,-0.04057592758518337,-0.13933560054473493,-0.23235729292566004,-0.3219959761901891,-0.40436527133779726,-0.4852521965824362,-0.5802142290148579,-0.6858949417482376,-0.7716928322852803,-0.8230453281655039,-0.8456160308667051,-0.8547928055105499,-0.8564327742600156,-0.8396426116888183,-0.7921239614031378,-0.720793705361977,-0.6322815814144142,-0.5446845772924287,-0.4592935876182149,-0.3773481281692136,-0.321264514491428,-0.29834357612190726,-0.2934638471819544,-0.30366600784910136,-0.3267268961603957,-0.36367074667471955,-0.42261104983230313,-0.4891544289775545,-0.5366156219045398,-0.553906609659101,-0.5461927217764432,-0.5199153917292132,-0.4780536217982623,-0.4233465724766251,-0.3758675505939952,-0.3636570123888466,-0.3894821983116598,-0.43326336087695055,-0.4668402349673169,-0.44955151250528363,-0.3452182188020084,-0.14801312098026997,0.08147586339365333,0.2713000856325693,0.3828259618117686,0.4275682664741689,0.44043709038302004,0.45531992453325343,0.48331349805292584,0.4763838215124895,0.4263808618103011,0.3951910655438016,0.4044201586095441,0.44498341639662226,0.5094783467865445,0.5939197345839383,0.6871838048902237,0.7455126282439466,0.746145793191911,0.7192772477202211,0.6907706011043078,0.6731748522798615,0.6832647641058625,0.7199293815586365,0.7735880450664071,0.8217407166332449,0.8434978090079673,0.826031021163107,0.7836261338648329,0.7294114766283687,0.6608197401874298,0.5784571282859948,0.4957296250332841,0.4309371776163392,0.38327751071399535,0.32362423304546645,0.22958985417318664,0.13642952975434552,0.08852460183680723,0.07760961380145924,0.08227665225888971,0.0764968633073791,0.05020671223200028,0.004139108502492114,-0.05103356537204648,-0.12103750244342223,-0.21781833294721564,-0.3291731305961562,-0.42179893533115026,-0.4852338592764747,-0.5291064943068369,-0.5723696216533988,-0.6390984531840668,-0.7369110308720372,-0.8278604518189274,-0.791304928689115,-0.6497748428629607,-0.511258004342627,-0.40514462870205953,-0.33321178562466314,-0.29499884704946616,-0.2875492391218095,-0.2951157846450833,-0.3011231056563506,-0.29694147152051065,-0.29933996192266954,-0.3195877043036764,-0.36742001991650786,-0.43956224565536667,-0.5155334996297384,-0.565307613564771,-0.5684915754688367,-0.5264677225319089,-0.4494451146885046,-0.3499604477576903,-0.2453626561427697,-0.15117993815529598,-0.06587861453566263,0.015177499274469073,0.09040493294094623,0.1586617889034835,0.22071707729088968,0.2762222243812311,0.3175815855164317,0.3459525928759989,0.3744128858695185,0.4102150370568895,0.4607421141456958,0.5263707439497216,0.5967667671484528,0.6591597805583933,0.7085905176960328,0.7473365617099341,0.7759855563661829,0.7957718059673098,0.8060284414208259,0.7943923582359109,0.7375016708158181,0.6784172541857711,0.6687757782490609,0.7002293229381865,0.7440593897100206,0.7837164864773305,0.803771988426204,0.7867279964267356,0.7196523058779618,0.6051946395700345,0.45912662308757923,0.31059351525393375,0.1833732855569925,0.09055184954733286,0.037231830603880904,0.013239741522271298,-0.01268217107115909,-0.0646867663239538,-0.1526935617384634,-0.2564283232851228,-0.3418201094859529,-0.39236885751698447,-0.41401454685862915,-0.4123481137721363,-0.3862780162268318,-0.3117489437054297,-0.16930986744653856,-0.006426978307971891,0.09203839687892455,0.06272044314751317,-0.0536264241405492,-0.19222403315952155,-0.31314849774031145,-0.40556792436279576,-0.47616965190477833,-0.540660256916754,-0.6030317422184845,-0.648162643964004,-0.6509849992132488,-0.5534777701753365,-0.2622543727450828,0.0941594309859088,0.2542758202514785,0.23394371876822073,0.10319451775908223,-0.056622079074891994,-0.18405515882068316,-0.26342436815025894,-0.3090624637843762,-0.3345726502265812,-0.3518500438925209,-0.35829272735751,-0.352857785610305,-0.33479278144160846,-0.30590404843027197,-0.2766283143719938,-0.2565668923159147,-0.21614190342196837,-0.14099140176419434,-0.040973583711744165,0.05316849525992297,0.11548577013286168,0.17225166491254926,0.24853044214804482,0.34860685475017406,0.44461180970530306,0.5098247763290389,0.5424952114641056,0.5497749144251775,0.5516918291916032,0.5553313445404862,0.5796200104410559,0.6265271704348466,0.675043268862479,0.7184911808836275,0.7359954600129399,0.7352954249307595,0.7234262086219252,0.7018033751917016,0.6552752841059352,0.6030111477042174,0.5839256796379971,0.6064662096545594,0.6478914065815116,0.6889525458060756,0.7210414544656581,0.7392606217177005,0.7338849210719055,0.6989285482598251,0.6472788573410473,0.6062627322137358,0.5838872104977222,0.5753468084956523,0.5647049241711799,0.5385776671233313,0.4907685843439982,0.4190956838053215,0.34100964883379364,0.2952906849391264,0.29115432968512484,0.28325432467473377,0.23459874581541562,0.15045263464256448,0.045738827385519154,-0.05056791456285802,-0.13819573974251464,-0.21365829024601574,-0.2651753774334155,-0.2869933388319544,-0.2952317298981172,-0.31356136044422295,-0.3715878569277814,-0.49612389220274306,-0.6467048261932503,-0.7335686098367454,-0.7550443885924939,-0.7524144719460382,-0.742903592279969,-0.729980760387064,-0.6998643093266427,-0.642996153897066,-0.554425519726727,-0.4660115455087417,-0.4222983976099458,-0.4227674585958385,-0.4331892946031567,-0.43005236032218064,-0.4362746509692161,-0.48072743517478134,-0.573587480870854,-0.6794068666415443,-0.7351291363373188,-0.702919411950233,-0.562169853198747,-0.3394731649447883,-0.1413191449248942,-0.03905874545937604,-0.023347544036957366,-0.0688156964027317,-0.15976811886393943,-0.24316372877298262,-0.2710510828904991,-0.2235605862001546,-0.12661713327747068,-0.013027641033452875,0.09301460074520909,0.1822686975616803,0.25162779935823004,0.3059466548116855,0.35479908531813636,0.39757837794152673,0.4374993837197958,0.46511938933052616,0.4862797780236282,0.5157250311840074,0.5690570991952397,0.6397499692293321,0.7094560721074289,0.762061940932511,0.7754947699925976,0.7564993410956127,0.7377592094536395,0.7451540820909949,0.7648836448213568,0.7738025897562454,0.775545081237463,0.7709460718310039,0.7387547911720239,0.6521370795021133,0.49846471750322774,0.31309649883824225,0.1619930850666914,0.08393713597443844,0.08236819714472604,0.1507380941613762,0.2671299260940785,0.387682879815507,0.47029382890250193,0.5056537755717122,0.4811053176410904,0.37412028388674246,0.19957067890076075,0.02021201682077889,-0.1329874755297478,-0.2670477030028582,-0.3706499549433173,-0.4446108148469775,-0.4930316022328173,-0.5286976996744991,-0.5575840749290033,-0.5751308935678359,-0.5945256608686545,-0.6209649946679895,-0.6590942897220968,-0.6922257088903283,-0.7324124238371962,-0.7882735244136514,-0.8386079260184499,-0.8612295911753178,-0.8447768984734877,-0.784468014897805,-0.6840436107145897,-0.5575401886040612,-0.42911673812661566,-0.32703513391873396,-0.2725533538567595,-0.24706447787958616,-0.24511770170094396,-0.2686491520481464,-0.326048101233829,-0.400727005647237,-0.4593277649567159,-0.48954994329620627,-0.49470892979295295,-0.4479855433078064,-0.3368714725090132,-0.2001752094365991,-0.0868118254187428,-0.018816745212718557,0.014934319726251736,0.04092042416652696,0.08416711026837738,0.14173425815489019,0.2088577141673263,0.28192261657580564,0.3531496905069958,0.4136236855793111,0.45821685322676337,0.4921156300985099,0.5220357622538622,0.5647270408726354,0.634938664523241,0.7098171183633407,0.7555714972133835,0.7680008203328663,0.7706782213205039,0.7860774307532318,0.8029400321401106,0.8210458191257459,0.8286024394268873,0.8160892465154079,0.7910461932360636,0.7724451676776767,0.776835421559598,0.7986803888017658,0.8270660356293413,0.8522534228707185,0.8648140656561002,0.8537389803117251,0.8055768262095218,0.7164277703222572,0.592723124168252,0.45960644116129357,0.355419620409597,0.2882755787700708,0.25224733743192884,0.23493088826427888,0.2228584327710158,0.2132494164007416,0.20693625313222877,0.20291258641545915,0.1955293870413234,0.17253715307080392,0.12498363388880389,0.05449412604254603,-0.03514382999469481,-0.15281202335900693,-0.27129275460068913,-0.3713175007958031,-0.43824129935981837,-0.46390756370755315,-0.450670144696388,-0.437943487727224,-0.46054401713667903,-0.522934258018101,-0.5745412446225049,-0.6189450982276395,-0.6646805163277303,-0.7047636221533697,-0.7235943287121136,-0.7232140425290066,-0.7029663235144905,-0.6592540825928747,-0.6001543445323223,-0.5425396246128591,-0.4905551467855492,-0.44950516412067854,-0.44588145890371844,-0.4948166234614783,-0.5867691193876862,-0.6833567819488864,-0.7458940294582265,-0.7617310181353009,-0.739441702284912,-0.6797150286668472,-0.5720806156113822,-0.43256690092551064,-0.31727545247100014,-0.2653305836682247,-0.28074535595506916,-0.32133236962174705,-0.3334011826951384,-0.27175381515153,-0.13382816348084162,0.05110215673949937,0.23902957241437542,0.388185669426652,0.472478290072812,0.4995648889942504,0.49393894872018734,0.47259141368398794,0.43809184691969943,0.39111988365437805,0.35278779060913945,0.3226668561661517,0.2842842170149359,0.2507459259054884,0.23154181996352327,0.2248390856481002,0.2291753848815395,0.2515207255793853,0.3038352093751938,0.39518464127830955,0.5180671112047821,0.6397155632784709,0.7269181092708022,0.7654702970994847,0.7596223353532466,0.7040023767324148,0.5910153078534369,0.44327368180951277,0.32638183008445354,0.2648526062992335,0.23456934107247882,0.2108082139088122,0.1702491203781167,0.105097668984969,0.032118402483946415,-0.023382396999081182,-0.06292580123584401,-0.10822609662143634,-0.17080675882639865,-0.24847268633636765,-0.33621801463314543,-0.42303607572693636,-0.4926593146423853,-0.534876765227435,-0.5538326813599608,-0.565200706306199,-0.5698242661615276,-0.5866094784287332,-0.6350378374587561,-0.7031466693387693,-0.7627814752464456,-0.7936673741746414,-0.8047541543589086,-0.8032853511903063,-0.7965582337961639,-0.7833790406799818,-0.7585294222322256,-0.714063292892314,-0.6446429326977132,-0.5369758854132796,-0.37129679275888555,-0.14518514141787195,0.07042374302973557,0.20315276779737612,0.24460815342343645,0.19920142990642792,0.05569002293143092,-0.15144026466657773,-0.3203439748630778,-0.3951609459061154,-0.3962778935662442,-0.3652487397025467,-0.33261452603591696,-0.3127816874546066,-0.29862181979241775,-0.2682381000355993,-0.20893083662899722,-0.13330734110079995,-0.06459926502884514,0.011859476073633066,0.10941817562923128,0.22016132131550833,0.35019735474717256,0.501263680348111,0.5769579555541962,0.5203956664276789,0.43169378636809935,0.37574443192372,0.3756197791762828,0.43358604213840385,0.5329654273426215,0.6228079644982728,0.7018280457930997,0.7905476241938393,0.8495841224066285,0.8685119568978031,0.8654854776174931,0.8524143207574683,0.8306370625416001,0.8079538583138602,0.7902765172857638,0.7828541747483186,0.7826453452098662,0.788180590521512,0.7965051537324827,0.7886295958967866,0.7336613995959173,0.6100667106568323,0.4682311157272432,0.37504473678033584,0.3230318507063931,0.2891051733423457,0.26846621362394146,0.27075826732210667,0.2982045982935959,0.344193165631956,0.3939727814421384,0.42484444497042184,0.41605380174390166,0.3621303239845958,0.2788969805643067,0.1833452249830167,0.06620536037961279,-0.08642298771087822,-0.2554989007284826,-0.4178932829586555,-0.5498955387835607,-0.6291759360935547,-0.6477260621617988,-0.6250190549128751,-0.6045619963057433,-0.6230983469161062,-0.6948437419519815,-0.8100703815147826,-0.8738978196709993,-0.6749655975114035,-0.40870019116924744,-0.2527290930616552,-0.17207114518928268,-0.1365384776071603,-0.13478296607135493,-0.167554134049554,-0.2485839488769522,-0.38978049949630167,-0.5162532920619057,-0.5452660107172933,-0.5612040315480593,-0.5662720652740679,-0.5307019014180979,-0.47560931307620635,-0.4367387982411019,-0.4042342934597474,-0.36401535038113825,-0.31761863954575326,-0.2821028055054462,-0.2559148460588758,-0.24359128622812073,-0.23998880440196876,-0.22573371060149233,-0.198064823535797,-0.15779599637475397,-0.10068280987063975,-0.021806558718294476,0.07072667264130185,0.16878940161930803,0.2651037149990133,0.34940045721226254,0.4189693971496405,0.4768650332343377,0.5253779795727861,0.5746940726288081,0.633873875280888,0.7028157585242448,0.7636966235049959,0.8086422553152262,0.8374705885526607,0.8401638202114101,0.8113496630395793,0.7509464389555215,0.674307857529452,0.6113721970825252,0.5731289445360941,0.5625992638727424,0.5687831162613486,0.5758032842281176,0.5418112656531371,0.4208728462780634,0.2654664708047085,0.15158939280054362,0.09150716091508639,0.07060184893120713,0.06849541359853997,0.05955422878429618,0.04303786287840292,0.023046443426085604,-0.00596430403223985,-0.04943157244086361,-0.1214525054131994,-0.230893414788351,-0.36171401813674603,-0.4575347956488372,-0.5081826292158902,-0.537283935055002,-0.5661573255670643,-0.5966129912788954,-0.6189531708764905,-0.6303512115984867,-0.6367588634430543,-0.6389843868178431,-0.6165766969942118,-0.5339925949620421,-0.38910984768894086,-0.21266200206637215,0.011208783486795427,0.26194245015073414,0.42455731953555986,0.540512505694293,0.6402082170778229,0.7060585830109123,0.734555020988777,0.7272039064927598,0.6859936226600848,0.6053932918337177,0.4753218693367874,0.2751578425667351,0.018428997886058014,-0.2279406632229521,-0.39080736895228296,-0.4591151635941627,-0.4280422627282871,-0.28069153716152123,-0.06398366488599544,0.12077616792045666,0.21345236104890752,0.20276851797470022,0.07663670403061316,-0.1389755958318666,-0.3479366268902023,-0.46314367933095446,-0.46847790259481076,-0.3699252837472577,-0.1951605249104676,-0.014290556622394198,0.12288548661192975,0.19408709189402812,0.1931524601248461,0.1369746641671037,0.05166006375260391,-0.03504596736374804,-0.11625320866469702,-0.20146930373428612,-0.31813497942500973,-0.5387312717857066,-0.37899486907019225,-0.11153967437639331,-0.02027346361750543,0.021002538018597767,0.02831692670430742,-0.0025506046159989243,-0.07808191756651202,-0.19529133299660684,-0.33023878483278357,-0.4270466288170943,-0.4062946940597558,-0.1281787637755168,0.4116604222484172,0.7605749523814538,0.887997473956152,0.9353289383583676,0.9542529805654781,0.960989418799074,0.9587154228419057,0.9444082182378266,0.910296870112157,0.8445832089878631,0.7267947554045184,0.5478739890084442,0.3161772017901819,0.06908630509796655,-0.13958231987306138,-0.2882272418505363,-0.39029291299659286,-0.45529065655630646,-0.48568879279124444,-0.5126586368611344,-0.6016742565142351,-0.7364872572487462,-0.8202936369351489,-0.8577909150133781,-0.8786501026146869,-0.8989651848079381,-0.9237614173716394,-0.9403375037772106,-0.9362203701595395,-0.9172602817893268,-0.894110013449073,-0.8763973558270899,-0.8644277668414015,-0.8404315953298522,-0.7772769970775711,-0.6859084207473732,-0.6238202115305927,-0.6090663905308852,-0.6101701920740575,-0.6156288954054683,-0.6274506823820305,-0.6461892074703789,-0.6730940279073229,-0.7018992280422522,-0.725516690559455,-0.7382975722278076,-0.724816706288114,-0.6767089644717306,-0.6119089109771718,-0.5521630795514582,-0.5013927709271149,-0.4524626903922756,-0.39065286259296406,-0.2951214058564707,-0.14668657867904,0.04719831257118801,0.21922208372730398,0.3302696017027486,0.3696514200173197,0.375655056966007,0.4083551964888851,0.504745986509415,0.6270995552178587,0.7128658934134721,0.7427242501144702,0.7315046600490107,0.6980912794099652,0.67588068187279,0.6798566674546707,0.6936105873293967,0.7037967719326299,0.7159184503066602,0.7482009447658086,0.8038949533359809,0.8585202219718147,0.879505025285671,0.8791540971624474,0.8691456488710306,0.8485070327548309,0.8231025452483831,0.7924016817001799,0.7490287751395761,0.6912749508884541,0.6338742079302212,0.5838181352975275,0.5320975434455016,0.46998624788119914,0.3817898388926622,0.2811262122456508,0.18801954409806906,0.1334175738377532,0.11876581431276992,0.13735034241661095,0.17304345329942078,0.19467576195594358,0.17741401720287708,0.1070281562158318,0.011845011447665414,-0.060060151190931554,-0.11641846388392257,-0.18654712651836478,-0.27727141388597537,-0.37662697092899916,-0.4549757427785138,-0.5191800734634958,-0.5791720446461278,-0.6328102960275918,-0.6765225898422923,-0.7211238999345281,-0.7715123471628601,-0.8184286509260909,-0.8347338555028015,-0.7967580356458113,-0.7006254366604636,-0.5626769570583219,-0.44042056868737156,-0.34646683885390767,-0.27981105975728354,-0.23711188513571171,-0.21974443247981257,-0.23831407239016433,-0.29371656156306447,-0.3595583451593403,-0.40855472964736167,-0.43346250327531777,-0.433801763086193,-0.4077412003347271,-0.3605207417456874,-0.2957263027863673,-0.23210300888766638,-0.18163101469405113,-0.1416461168019792,-0.10529608649390959,-0.04946592917932685,0.04560032181754188,0.16822828166723192,0.29450262606519173,0.40662833776838125,0.49390085053871186,0.5481382547713911,0.5709095751245945,0.5755429769516224,0.5662567309119391,0.5424203860566481,0.5161271296913321,0.5060650273249347,0.5230690421075266,0.5702948599295498,0.6343374309665187,0.6959712309991682,0.7413878148548668,0.7627706029810745,0.7566677639342514,0.7190310487824731,0.6471510623547718,0.5800479924008454,0.541144175662798,0.5256143163957329,0.5263066515057488,0.5444060218746831,0.5661471346396588,0.5392034354780322,0.4407857117498509,0.34417724340703765,0.2855491469134849,0.2632079783226217,0.271836761618344,0.2904208542217488,0.30385121676656035,0.3085712677455573,0.3093566098586224,0.29543289993041394,0.24316957700799974,0.16247617089676483,0.08079583663652982,0.005477755315484315,-0.0674785812602315,-0.13621274983065854,-0.19982106596081264,-0.2665934542359169,-0.3515773647745387,-0.4541034779261688,-0.5413672767811591,-0.6058114505138325,-0.6590535647601148,-0.6974201926911437,-0.710797735393511,-0.7079603093655819,-0.6936531523575171,-0.6772491263164583,-0.6699573332684724,-0.6452049418897117,-0.5547528010058448,-0.447324367613608,-0.378217779914401,-0.3329410695232035,-0.2913126006789589,-0.2688580068452525,-0.26897769572156827,-0.28249877713348054,-0.29694220797628307,-0.3087564362985812,-0.3203648248576491,-0.3352524940563808,-0.3600945367407907,-0.39099387775051797,-0.4180632582937484,-0.4288488670300476,-0.4154309440068017,-0.3823187791943215,-0.3361922280563485,-0.2648090893743508,-0.1627629475370462,-0.0541431039770977,0.038523259254635255,0.11269186192337945,0.17575912643711747,0.24050171845594062,0.3178604508708904,0.4050004885307711,0.4851402143075623,0.5510757486674258,0.6163900939241019,0.6967533725014664,0.775267762983453,0.8294792413329566,0.8579799109375044,0.8654699126347238,0.8630396937612635,0.8627493472152942,0.856067022295237,0.8304047246917802,0.7939530859353363,0.7760983295670788,0.7801470408875866,0.7864635384798617,0.789216470762206,0.7843071538125145,0.7699647023520505,0.7368927708201151,0.6828285786886528,0.61449703388559,0.5546666318161692,0.5051390004638213,0.4595870534645581,0.40859151677951344,0.3454113069484472,0.27129034569454585,0.19765607344806374,0.13463763831379905,0.07914101688701661,0.030443692024022608,-0.005752151417981536,-0.03651903603200664,-0.08226898557839993,-0.15749870256878354,-0.25912342452157017,-0.3743979068597592,-0.45368407185538284,-0.4805929022122855,-0.4713701888209928,-0.44217655833788455,-0.4092891333228812,-0.3947983961460144,-0.4051170356214008,-0.42511334036719833,-0.4602444853232502,-0.5195352273764436,-0.5987797589255074,-0.6625858465871296,-0.7040375944641807,-0.7236940286705297,-0.7246160788654501,-0.7046751457224556,-0.6577723630802373,-0.5932355502857447,-0.528111457110325,-0.478345900593237,-0.4485470822783252,-0.43883162037365436,-0.45646148776952655,-0.5027069777742222,-0.5670694514036632,-0.6324064353868417,-0.6757531811678257,-0.6835844328657619,-0.6527879710795236,-0.5930517837827255,-0.5207760024338414,-0.45376797830256693,-0.4057898761690139,-0.37331151700532245,-0.3351919387286131,-0.25288185530920787,-0.12259477998298547,0.020196950342577367,0.14882007663389424,0.2638148016979853,0.37093206351211294,0.46165429655541323,0.5296700166801763,0.5766616158841675,0.6111209401717236,0.6307254319374682,0.6283849935174002,0.6186477910512205,0.6369819592690937,0.6948645758036331,0.7592274580714831,0.8022505537874132,0.8257732604765092,0.8327045828729636,0.8223145156680519,0.8078969893186432,0.8108056688041814,0.8315907165927446,0.8573360992856828,0.8708960016440368,0.8661811652013646,0.8447139051044694,0.8117835041343294,0.758752295592968,0.6669248803747708,0.5375254442581201,0.3996992530847417,0.2954436557670661,0.23738741803688973,0.20736137322148868,0.18727045799406136,0.16055441292985914,0.11336413300307074,0.05921558346454274,0.012122610691093305,-0.029746580928407203,-0.08398786700033196,-0.15728569336312928,-0.23155499117993866,-0.2857024224970295,-0.3241214778716857,-0.34806447814191815,-0.35793094843745926,-0.3660852972038757,-0.37559482766877017,-0.3815992970507929,-0.3751846802835065,-0.396962109544118,-0.46453725448858724,-0.5666486957975897,-0.6586908513664462,-0.7040409447525465,-0.699930721193842,-0.6287320359691201,-0.47127824168677085,-0.27886814725787973,-0.16012671138720933,-0.124508785551653,-0.13546324996896317,-0.16713828225373117,-0.20705767532471,-0.25572458955715754,-0.3211159249045594,-0.40553582243523095,-0.48611805221770776,-0.5473510076660381,-0.5788594690800939,-0.5774166292610583,-0.5404499641474936,-0.48552886671115564,-0.42238538844447227,-0.355254512581189,-0.285766048184709,-0.22247261653442285,-0.17099474197306533,-0.1349045266203579,-0.10963332546563313,-0.07301209975434247,-0.017175456728256207,0.05532664525626266,0.13583762812249653,0.20980578650906345,0.27925659744085546,0.34926007625683353,0.4311167239268456,0.5199331702048228,0.5954788311464904,0.6254938692110663,0.604279072950292,0.5906366841008863,0.6478598349375836,0.7570232080846467,0.8407382822072101,0.8797962961556383,0.8876624531715791,0.8676795796713718,0.8253400234983439,0.7723585648712203,0.7195241112546726,0.671433978519328,0.6321789856197048,0.6092105304348155,0.6143581529689179,0.6310283066418217,0.601963951563319,0.5213471167703874,0.44467533844789703,0.40593109685025236,0.4178851595952045,0.45827808120495317,0.4863364537741123,0.4809142473668943,0.4315062892748326,0.33147915506883896,0.19048494983257905,0.04663630401855018,-0.05510313666572957,-0.1225241152715719,-0.17678578335773215,-0.23171425636117746,-0.28815936711581075,-0.3358667131302041,-0.3453270194769411,-0.3055704862670405,-0.26649942829538925,-0.25621254355552486,-0.27411239117247116,-0.3152710536893962,-0.3759514792706022,-0.4597368038525945,-0.5551241489574129,-0.6294176306204374,-0.6682738796829509,-0.6821901096187926,-0.677476630639384,-0.6514718394159238,-0.6043179964159454,-0.5432299373712356,-0.4749032946837218,-0.4029269506963599,-0.34531912852743024,-0.32674629515094566,-0.3571661494611626,-0.41997923753075006,-0.48111728997490066,-0.5199484685560644,-0.5333102032566075,-0.5219364478255651,-0.48462513434835497,-0.42274825407920363,-0.3514889314652417,-0.28544132408448686,-0.22824218804029975,-0.1781708891533285,-0.1337415274989524,-0.08540788133077891,-0.025747205014002683,0.03768532627482222,0.1050616284470466,0.16870971407172605,0.23369204329225582,0.30594698982534047,0.3935949129875231,0.49845226505525864,0.5998123900973396,0.6483219636981638,0.6101879612425369,0.5386815747866939,0.504572009317876,0.5207021136768367,0.5690445288258339,0.6292353263627557,0.6851227137268913,0.724255228608527,0.744174013035901,0.7268788598621096,0.664952618897719,0.6222122343316855,0.6420021047265038,0.705076795346201,0.7749007202445,0.82688304429203,0.8538892658531058,0.8432458246774742,0.7789188820750033,0.6573536136851446,0.5042579943611192,0.34694175551594847,0.19869650050604182,0.059317763606480146,-0.0642200222923859,-0.16636216998330924,-0.22564189910210236,-0.22801455295113462,-0.17103912128119847,-0.08865162076260072,-0.027426740105935054,-0.0071567050994573896,-0.02868615929651564,-0.07801505522146097,-0.1347167684707516,-0.18243468442980004,-0.21158793277336568,-0.2323817559726386,-0.2674774659232171,-0.3271174410802086,-0.4180338299590572,-0.528974752546238,-0.6148505442686784,-0.6482607610052755,-0.642624399683163,-0.6108275268769794,-0.5437508332395337,-0.4322043406088937,-0.3118162308372232,-0.2475938647990153,-0.2571018379566634,-0.30455384241200667,-0.3378131562216656,-0.34357951472389886,-0.3204304934015603,-0.28451028939823814,-0.26719346233388286,-0.28371793182190463,-0.3232235916877891,-0.36777200843046437,-0.3924228064417477,-0.39184497029679694,-0.355525359710275,-0.2952694857139335,-0.23697159313405744,-0.2121499258966883,-0.2215721138400852,-0.22934407410510346,-0.1978859174754119,-0.11163201148796922,0.0022492406086913447,0.11945352122771578,0.23292899137386056,0.34336413710616187,0.42632052346573174,0.47264463432284787,0.48456645800202675,0.4795087607732195,0.46402795147626097,0.4461474370968011,0.44248431437808255,0.46952022475875327,0.5165475260545583,0.5590976846485999,0.5775931172312676,0.5885268751121637,0.6058210048672689,0.6299801596287454,0.6630293177715512,0.7088910321743201,0.7478349989237594,0.7712897927442967,0.7810027291295266,0.7792421304766128,0.7667869609837678,0.7426421817582173,0.7042122670982773,0.6597306130389486,0.6093353513383349,0.5458217181703106,0.4787424743341427,0.42645050345098384,0.39126503702200965,0.36781150200416923,0.3475882483428259,0.32778068951055545,0.30539814098763474,0.2731798049612552,0.21832216369919435,0.13939606782215755,0.04973901503540207,-0.031106766147473836,-0.08960433540021079,-0.11949249553140767,-0.14500293966210526,-0.1981223185703416,-0.29518723796532853,-0.38076798011520424,-0.4297892631702885,-0.47641028338148667,-0.5418360869807808,-0.569065991580996,-0.541156212108484,-0.5183670242395089,-0.5125297490383188,-0.5120930646543392,-0.5115589952474251,-0.5053369380088311,-0.4928610813450593,-0.48006012752082666,-0.46547905607899875,-0.43168235059263593,-0.38095565467248504,-0.32906675918500394,-0.28324516093474583,-0.2514687108732666,-0.25243013098972483,-0.2972489118358119,-0.36641671930192754,-0.42378681250340877,-0.4482893651415103,-0.43177580691836237,-0.3842057057366031,-0.3225011630045988,-0.26817547312383094,-0.22819346710857774,-0.19973533970514462,-0.17363405377156246,-0.12795616973362542,-0.0443931522387549,0.05673631966851695,0.14510540631890026,0.21728327033409087,0.27395840665517956,0.3174953747356838,0.3539108742038799,0.39000680170888735,0.4388777760459492,0.5041814654863789,0.5822683531429054,0.6432175335592765,0.6351891974793045,0.5926033271667915,0.5918463535599309,0.6423374212850439,0.6988588018624562,0.7348737203818132,0.7504312679274305,0.7473335112620669,0.7252671300635691,0.6931518509486622,0.6621036383385598,0.6400985848316656,0.6301561753817093,0.6378757811137021,0.6571292662290248,0.6719632269969588,0.6599100249594637,0.6034900060061051,0.5061131071480303,0.4089302290448919,0.35409909918975535,0.33582082874559555,0.32131081005599127,0.2700297104370921,0.16636383304003521,0.03219330406041973,-0.09270122284088345,-0.19489262407000385,-0.2754681257002494,-0.3357060018564037,-0.36691722449127995,-0.3679753147000164,-0.35321350339619384,-0.3373106431955531,-0.3432661313550369,-0.36947955767268653,-0.41251700489122867,-0.4796173711602947,-0.6019512507883611,-0.7606964970612771,-0.7004354748959947,-0.5771286972247989,-0.5610771221014221,-0.6266343094484426,-0.7240861903766864,-0.7819969489802053,-0.7698312622276354,-0.7213153120501212,-0.669931255132963,-0.6125217117290225,-0.5418215791855967,-0.4352734460401881,-0.31886471727233073,-0.22784449373602395,-0.17139548205030367,-0.15614186800437496,-0.1856181482312769,-0.25195681821303845,-0.334380242000179,-0.40030832657526555,-0.4285368610035143,-0.42179483179589294,-0.39194048548236426,-0.3489200864497476,-0.30301208465724494,-0.2661386585727832,-0.23006930614059695,-0.16922358151182795,-0.06871288466229046,0.06584789672232913,0.2025787015900149,0.3103804444715366,0.3754220588735369,0.4117558865648274,0.4347538101578779,0.45163944865198286,0.4632066314973682,0.46802922691293336,0.4819550829428685,0.5112506112512173,0.563692467933253,0.6537900750427077,0.7518471222539338,0.8084696321773358,0.800775178094316,0.7485882350426724,0.6945124943763779,0.6779921458694133,0.7115985764828847,0.773242513625239,0.8263060105875328,0.8489241909343028,0.8446869506208612,0.8189693355979837,0.778610797445855,0.7263864615198232,0.6652440514184874,0.5921520038444448,0.5190003764863138,0.45592454432262536,0.3965125676364272,0.3384292405117348,0.2806565199910864,0.21722259294559956,0.14520160890603612,0.08519336514205152,0.04792953041600569,0.018971490291784583,-0.020711884492364312,-0.0829122955199126,-0.17998595631038464,-0.2959948000572286,-0.3952233520618158,-0.4379848690867065,-0.43234217648152934,-0.4126152482312471,-0.41292660237868734,-0.44547952821675285,-0.4921976979564885,-0.5378611151469684,-0.588440614916788,-0.6494563034104851,-0.6962053829002675,-0.7014867124727884,-0.6640174030047685,-0.6025902051779,-0.5273040857634594,-0.43624702402747606,-0.3350461454033016,-0.25732028892787595,-0.22190863625678972,-0.2393423359868319,-0.28831218148453774,-0.35135766572334115,-0.4182411943769256,-0.48039942743891473,-0.5230989141040585,-0.5332833451592498,-0.5098101411080802,-0.46507668353772497,-0.4289948865687777,-0.41660094649740004,-0.4184092054300986,-0.4287724983417353,-0.43813076491257064,-0.4345426431860441,-0.3951476269261834,-0.29000612708017043,-0.11264068645484723,0.10022708681263676,0.2714528784697383,0.3725115077380036,0.4243351667884719,0.44504710541394216,0.46369641250979,0.5026524356932628,0.560745612961052,0.6368590481570979,0.7132945231554478,0.7779720120890465,0.823006578799177,0.8393694289835654,0.8304257740457668,0.8071117339506493,0.7916155953049951,0.7948589267692943,0.8121371218278614,0.8250717637046525,0.822161775321387,0.8037215924933651,0.7818906506830604,0.7707605420417409,0.7692065265031488,0.7642719901216858,0.7455443390564681,0.7112771629743838,0.6436768010972154,0.5170147348108117,0.3463831788093501,0.2067876141681365,0.1552584804134575,0.16720030557119664,0.20518787352542417,0.24102845609572487,0.26229227990372644,0.2641046566653177,0.22515226358735618,0.13438182445695615,0.010497535161486224,-0.11187401572230776,-0.223946553974836,-0.32766773897462353,-0.423814828258248,-0.5029205246594689,-0.5634165596706621,-0.606323464781232,-0.6432764352188638,-0.652804977687838,-0.6137261346235741,-0.5494708537759864,-0.5097309710826955,-0.5203233113805029,-0.5865526858274263,-0.6589906179252646,-0.6925156734044465,-0.6745286340452653,-0.5814660558418925,-0.43309026703272746,-0.3115890606690041,-0.25592621496547957,-0.2416388802578916,-0.23974263228291462,-0.24353120593616565,-0.2688268870772049,-0.3319436582490544,-0.4179148962837141,-0.4859407544299237,-0.5213382265236663,-0.5358612517583402,-0.5354349556617956,-0.5190507274884576,-0.4777365578089637,-0.4092543956861814,-0.3203275048403325,-0.2349256509838623,-0.18073862500958673,-0.15611157249674937,-0.1506781810520969,-0.14746396094650982,-0.13289686370430384,-0.09113701945034755,-0.019851032672992364,0.07484919907118787,0.1590015117032083,0.22899050538517354,0.2993737267757565,0.3909014342246948,0.5339227543661264,0.6792728623968443,0.7642588325434947,0.7972045715495282,0.8044270152272702,0.8040523804633186,0.8064004019388372,0.8107952102663317,0.8192431545764131,0.8274621235935715,0.8221960809956955,0.8062720851556805,0.7877602989664376,0.7671245693763524,0.7452267493027704,0.7331620406167191,0.7363874322682153,0.747518704439924,0.7502734423374884,0.7216050640951259,0.6508888145759794,0.5574732792724095,0.4686693384161215,0.40546358956408585,0.3700353329599528,0.35328109248615075,0.32769998640202486,0.2680912413421946,0.19270182751651901,0.13233276839842065,0.0905843251842176,0.03607509541528059,-0.036406580478463936,-0.10927665428950561,-0.19338466572356733,-0.28916281513137054,-0.3766600049995074,-0.45244966868595604,-0.5113484890110631,-0.5399479591632458,-0.5333570446386462,-0.4805774477678764,-0.3952183100779958,-0.3326785316288361,-0.3282637792459645,-0.37685776815363575,-0.469632187613011,-0.5883962805470682,-0.6955801009094436,-0.7070200999761977,-0.5817707599670927,-0.4109520307863319,-0.2909989286148066,-0.25747351116830086,-0.29929772657796216,-0.375745102837223,-0.4502343507190591,-0.5174603207861027,-0.579191102630281,-0.633115386173334,-0.6675380556760939,-0.6724196679685167,-0.6569108424118406,-0.6320655812927358,-0.6052962770593946,-0.5729518804579341,-0.5286883373312209,-0.47323287954685583,-0.40989870933710504,-0.33897348877504047,-0.2635009822360752,-0.18224671986346425,-0.10169617385395015,-0.02075125062506147,0.07067782465250558,0.17647416896181292,0.2934433710146708,0.4134893601502504,0.5167386328585325,0.5859669066688108,0.6225261718309084,0.6399581778667779,0.644709510858821,0.6383833880972692,0.6402936173018173,0.664246894554867,0.7044813023668813,0.7444664975580485,0.7757491799709197,0.7977984257499641,0.813042861070586,0.8224488024747947,0.824907208460455,0.8267306212570367,0.8291031459817099,0.8307085090128522,0.8230596728549903,0.7926783577481333,0.7143872125685257,0.575900969243606,0.4266853982886685,0.3298040702542586,0.29761736331341826,0.2993255694040864,0.3045388530655353,0.2904673151190681,0.2566939032974151,0.21011336460248706,0.1537879280900929,0.08808141638708442,0.02148979840082965,-0.037280011159968256,-0.09378676281760308,-0.15168281408240814,-0.21968090216860164,-0.2819165584964302,-0.33382617577871254,-0.37462107947959805,-0.39039058016626393,-0.3512590518005783,-0.2252893348189512,-0.04739768187025755,0.08246255397132812,0.09866803732718878,-0.03656096356041353,-0.3022990223906988,-0.49380296774230564,-0.585359485623588,-0.6325013541184591,-0.6419904630255683,-0.587547716758982,-0.4672750954012117,-0.36609780006576365,-0.3217921509013721,-0.3188423981748729,-0.33726628619893584,-0.3625773221409307,-0.4073104336402474,-0.46559413351344703,-0.5141987340180479,-0.5403238955661979,-0.5512560671297975,-0.5498954729710043,-0.5348557361156567,-0.49704730036776645,-0.4221282525059464,-0.30779348225594727,-0.18501367612554653,-0.0844386101633236,-0.020851836102835968,0.019948109144091623,0.045403963912396664,0.07087393117826309,0.10250016394786046,0.13941917155759104,0.17509794128887662,0.22140031455301878,0.28329102399624634,0.33280080963126957,0.35995827756862453,0.3697684014700169,0.36969051436728445,0.3659116450771153,0.367808265914508,0.3892728965400367,0.43844235893810907,0.5070451202274323,0.5878284693110895,0.6643472090954048,0.7016014558054191,0.6648773677423976,0.5883632611692439,0.5190146648114908,0.45038993889091106,0.38255531674354304,0.3418107887006906,0.33720321000004777,0.3590148019657427,0.39174499397700413,0.41268579832774543,0.3973751871349271,0.34122947811537574,0.2600025628793976,0.16904305850043808,0.08863622025390362,0.03975495793717851,0.03486460992416579,0.08532101602012936,0.21197305210440812,0.3994124662367911,0.55831246900636,0.615797808177232,0.5745573148338865,0.4428222062622589,0.22451594639646563,-0.018725288647597173,-0.20437039799604945,-0.32361415655460335,-0.3924793334098632,-0.3977011100539193,-0.29023961932338765,-0.05077397396866785,0.08797716467659607,0.06282432713895313,-0.08545701043656898,-0.3220721006756707,-0.5535913402373897,-0.6963166060276299,-0.7383527736476811,-0.7076279790349598,-0.6413753730643081,-0.5622569235917276,-0.4826294740033771,-0.4036490532714451,-0.31118619086372873,-0.21962760192204475,-0.1617296952115769,-0.15486436721167818,-0.2057941044421208,-0.31622896763920005,-0.4530217052155352,-0.5615783452470046,-0.6156164601901787,-0.6174967309585097,-0.574109196540187,-0.5142114734577535,-0.47793113239525936,-0.4711690829384032,-0.46596164502928866,-0.4353414762426091,-0.3596309516685345,-0.24293925113174925,-0.09472091310183417,0.04377699071928542,0.16026813077925622,0.2508674906695928,0.3198935746083292,0.3866439148752446,0.46411948681400467,0.5632574209606063,0.6645128391078129,0.7476157738937514,0.7881816639115977,0.7850472883807411,0.7580572160480639,0.7393283254311456,0.7446550257072003,0.7618640586522607,0.7799656389470918,0.7892026345276086,0.7851837118590324,0.7728993940913337,0.7568207853953096,0.7461707838357846,0.7433441361636948,0.7379531227013972,0.7159565474129983,0.6638814736237242,0.5658271271957162,0.43375166668476994,0.32098337503982505,0.2618232897982934,0.23070613216847366,0.19805223210151485,0.1596748834334849,0.12223719567188635,0.09434417345731252,0.07798386124865506,0.08264879364659812,0.12304645154793152,0.18322730330242454,0.2066405696359857,0.17801903198647903,0.1363953453919171,0.09604337675992214,0.05984440688796489,0.027693134069028572,-0.003881287856186493,-0.03884808490388871,-0.08865476738438599,-0.157184748727531,-0.21605375881972455,-0.2559015055028629,-0.303843073893617,-0.39699578961663035,-0.507561791860552,-0.6046541653577864,-0.687821924928222,-0.7630089346216248,-0.8194309391801672,-0.840915662852073,-0.818797830832228,-0.7415452384979525,-0.593081924819614,-0.4032799618776801,-0.25152350859805506,-0.19166637989832294,-0.22845534398066683,-0.3321098920737936,-0.4629038288831214,-0.5690756247712843,-0.6260101014965401,-0.6374066976497628,-0.6102295003196974,-0.5524645963549736,-0.4727060274335192,-0.3708695415765186,-0.2568731047276269,-0.16262980604688448,-0.10177023140143615,-0.05780167014036872,-0.013165592812643439,0.040849612605560165,0.10732442472021503,0.18211174280017592,0.25904494372581954,0.31009865856652713,0.3303663647939749,0.3367399264732014,0.3495838150681143,0.37754982841935747,0.4198667596620461,0.4934218647368406,0.6096425059129001,0.705208250602406,0.7440143022223252,0.7555677241958133,0.7644445926474731,0.7761550181731515,0.7888755108136265,0.7989559152851143,0.801707129873657,0.7971256343346932,0.7868743016527265,0.7704844003376751,0.7468975276227237,0.7193399130180581,0.6909978148983698,0.6480188237053995,0.5936537625402988,0.5465437586585656,0.5287610369082447,0.5377588681474432,0.5455999784894333,0.5147789722252649,0.431693498196744,0.3167589351214686,0.2232405778355324,0.18664733015831358,0.21281079587159488,0.2536294859900568,0.24922819737510443,0.18616157183372808,0.069708145400497,-0.08545285452072889,-0.2505994143715066,-0.39910343109197477,-0.5254897466159754,-0.626380800553117,-0.693876897117777,-0.7121184207969091,-0.6672439850259888,-0.5703147902256642,-0.49019386089972716,-0.4907814718747837,-0.5586641459178807,-0.6371178577252468,-0.6854931915474826,-0.6887738978899292,-0.6560902770064037,-0.5963124584876917,-0.5135424280735281,-0.4223296299009184,-0.334049751363669,-0.251389149279011,-0.18634097574928715,-0.146672423406588,-0.1491680216430611,-0.20093269391161303,-0.30923827161514816,-0.4587248393332734,-0.6091546304076221,-0.7132713402323175,-0.7440138574207836,-0.7104379443104174,-0.6269384978005711,-0.49100088022992827,-0.2979381933679008,-0.08918227752832311,0.07066158129269656,0.16846677236986682,0.2184535314927293,0.24591541248346724,0.2673821622925719,0.29866017862135774,0.3497011061136748,0.4151811766599976,0.48379326195813793,0.5446104129438399,0.5900847026373583,0.6308357619450112,0.6778102704664837,0.7216369566431274,0.7439192686634589,0.7452016900647925,0.7418371245681253,0.746236755521668,0.7637182310558185,0.7863673748404498,0.8037093695563774,0.8061271009460949,0.8060029925148605,0.8100038142759515,0.8214291982845686,0.8236997806592827,0.7964242077122464,0.7312410819841629,0.6361664296239051,0.5167890653460675,0.3941534538384249,0.3028410285564715,0.26328202110089405,0.25509575935402456,0.26513818279482476,0.2747473760373096,0.27459687181954856,0.2565078033574706,0.2208892374835595,0.17816694182552795,0.13065824971260598,0.07550821253961677,0.010831607311552352,-0.0481090406835858,-0.10049065340199577,-0.15885598658740382,-0.24450640600659115,-0.3640494788103184,-0.48432418039470165,-0.5663215355829802,-0.6131808184318779,-0.6393915311304579,-0.6564862833923947,-0.6680073535771225,-0.6737454043784675,-0.6843486264162619,-0.6938772772877754,-0.7117589861788871,-0.7344509039615422,-0.7556496906863447,-0.7522642176380422,-0.6897851607663121,-0.5532420837808746,-0.4184083412071468,-0.33861097906161186,-0.3135451515366138,-0.32177830860299356,-0.3421590545401562,-0.3587108293961513,-0.374678876694811,-0.3952041920302735,-0.4080933568667682,-0.3965192728871827,-0.35855420068219057,-0.29919260417262095,-0.23023618942619817,-0.16137510206182068,-0.09149869742688575,-0.03325102717738125,0.002169981000140451,0.02670583618111889,0.06711124649722093,0.13102759090818344,0.21052908852836372,0.2945836567122941,0.3626757087895385,0.41018466209856985,0.43618004571966623,0.4526432335286131,0.4671793984193789,0.4870168996622525,0.5172491175314369,0.5569460517659954,0.5986122298468631,0.6278523211268728,0.6432020442260361,0.6527370615850699,0.666889285834338,0.6861076774276331,0.7176218002005167,0.7562750213682923,0.7707192209058599,0.7438586867977623,0.7131061927306975,0.6995930255079623,0.7010952438983863,0.7073924435999247,0.699356500418959,0.646109987852509,0.5321680178385004,0.36663997381133623,0.18088032125818845,0.03672487087034462,-0.03118903712622131,-0.03913108420389091,-0.018082889385458326,0.027142606634471916,0.11636206830835943,0.24441282335804979,0.3516181703790121,0.3849512756115079,0.3388598086609943,0.21320922278407137,0.027349389078412483,-0.15253048911161396,-0.255198325997542,-0.2724430100155477,-0.23239430760845312,-0.17782486948760848,-0.15126488367822175,-0.1809994119042115,-0.3075160970933271,-0.5485336281168426,-0.5991154690837952,-0.535460691220146,-0.5284389364261364,-0.5735132664530602,-0.6548272416899715,-0.7444579938390293,-0.7889504003563759,-0.7569347004195689,-0.6996562697261481,-0.6555185145929279,-0.6345196382169321,-0.6142814837950482,-0.5748105847296924,-0.5109481035994441,-0.43468114718970313,-0.3693337729240051,-0.33467074272386305,-0.33068601272844866,-0.3442649176221951,-0.36039141092781546,-0.37077316219328643,-0.3765621321420036,-0.39160291702271055,-0.426906417903322,-0.46380392267643694,-0.4696464512986197,-0.4380626811361759,-0.3745587948344029,-0.2852944179230474,-0.1763446464114435,-0.05486913135333672,0.05600622274712972,0.15432026138680818,0.23782711320792446,0.31368714906088224,0.37058796688866447,0.4073764263630851,0.44060435057241,0.48534089716620077,0.5445168607162648,0.6089200566469456,0.6671888675709023,0.71304110985596,0.7510439877703887,0.7924104943227578,0.8379099520826543,0.8719344630899082,0.8770650404636883,0.8566305520728034,0.8312296730399704,0.812882378632214,0.8029099128560689,0.7936279715480964,0.7822169831409831,0.7641395706477405,0.7325993486575726,0.680680446847194,0.6140542303728646,0.5510959281341525,0.4955629075997823,0.45109278851250423,0.42153659560854523,0.39912935450666515,0.3811146082961949,0.3596713728923087,0.31302558730897906,0.2399308260466053,0.16049923873618005,0.09711858535243288,0.05282947146323507,0.018743990685445668,-0.006467122969414217,-0.03013634579396818,-0.05962832128869615,-0.10400670344474307,-0.17434239776207255,-0.2680649605468161,-0.3673794053599382,-0.45424567403842003,-0.5451999755986983,-0.6613358680998084,-0.7527869630902418,-0.7169521351408614,-0.6267370938448482,-0.5576927303900233,-0.5070498075473133,-0.4577506757096936,-0.4001830302259441,-0.33522769540926606,-0.2696881611350757,-0.22954305284731039,-0.21602677322885988,-0.22117692469795427,-0.23073792435854135,-0.25551609616324394,-0.3218932048480673,-0.4363368731194187,-0.564283547271751,-0.6548811842920144,-0.697177904337062,-0.6987476176269115,-0.6713602027260435,-0.6207152701607243,-0.557915442999156,-0.48538353692697167,-0.4154216796681577,-0.356435233081784,-0.30088890142526725,-0.228504023734255,-0.13898708576392124,-0.05561857212398042,0.009772133897440518,0.07632769937085095,0.16256334992182794,0.2867804121657567,0.43139069014895953,0.5721856874571494,0.668145070104982,0.7071799178925174,0.7151749541589572,0.7170960088674985,0.7299454870691005,0.7584709172548276,0.7973966923605428,0.8322893055935575,0.8456597465726995,0.8329773418525493,0.810053130163005,0.8016545916618723,0.8106780955868763,0.8240968489635893,0.8265747303042378,0.8171664405805644,0.7925062063133609,0.7479942988774315,0.6638494674822031,0.5302527913376262,0.3845296054921414,0.2852141014621768,0.2623002980623209,0.3128893301720749,0.412904908102103,0.5071340188997401,0.5543066321989045,0.5515718385671422,0.5169328053804995,0.4546097725390194,0.3629765176465963,0.24959952443529734,0.13860057926855268,0.05043345751455485,-0.019804084499136117,-0.09223763145219463,-0.18471338362604015,-0.2757448258444244,-0.34739111103796105,-0.38396445372960936,-0.3888254277433784,-0.38603637117034134,-0.4046973712902547,-0.4546541513578627,-0.5292750554865021,-0.627777172274153,-0.7434192047396386,-0.8466886048313345,-0.9050991706610283,-0.9142845380929127,-0.8774120165716496,-0.7578969805371132,-0.509020397468227,-0.2264660168522451,-0.03514611303916587,0.054517816150082124,0.07075713642910408,0.031010505719277433,-0.05486598743335908,-0.18444107551885305,-0.3233128411474817,-0.42900610464170236,-0.4781507006101938,-0.47870382883564916,-0.45136475698955913,-0.4093645056798016,-0.3595750802937812,-0.30769765398575183,-0.25889124569292404,-0.20262555328375476,-0.13732368331466568,-0.060762867350587065,0.011792913946798907,0.06533108956290355,0.10776141906533886,0.16302922862773003,0.23273354876218377,0.30765446875536506,0.38136431260370574,0.44438387635546805,0.49468319152534984,0.5380696313879895,0.5762351665311085,0.615534083740951,0.6661015709999798,0.7175445622842677,0.7483206987470231,0.7521697519081728,0.7371268275430777,0.7260490222783461,0.7318144110137821,0.7617539679689402,0.7944162971644527,0.8111327791860727,0.811843411160467,0.796379364773561,0.7631727921143435,0.7133178534360578,0.6223813374793052,0.4846019041714839,0.327386440165148,0.1809485543833727,0.07088240669971202,0.009751040921290817,0.010992883807630924,0.07984346888612713,0.16778093835962082,0.20780681220699065,0.1839231620160261,0.1063944213582491,-0.0007750935453599234,-0.11953057494178254,-0.24106039325267267,-0.3509897842319614,-0.4396706430034684,-0.5141177007612684,-0.5830302780202065,-0.6234909696328854,-0.5820467240942108,-0.3278292970698919,0.1897147912032273,0.4433998546264104,0.44067907676268114,0.3469373477791414,0.21702249043296917,0.0700016593163226,-0.08851956233331645,-0.2567035041853902,-0.4225648974611726,-0.59131310153817,-0.7566803940570257,-0.6898271973742326,-0.4009382994938424,-0.23054315303624906,-0.14883366309012322,-0.10369523300497784,-0.0766408264999495,-0.06449423691926921,-0.07724706573518154,-0.13993849860291968,-0.2849077239081384,-0.4581619788506645,-0.509026053931524,-0.4673567702018117,-0.3881235434353746,-0.2980355519611033,-0.22681861965269462,-0.17600452240545372,-0.13913322225782732,-0.10816490143222589,-0.07238139198944253,-0.026033176581549865,0.031322699486062214,0.09342985256958608,0.1569181601090056,0.2232561304383489,0.29975502679846344,0.38638714864943857,0.4771100874452346,0.5611886544274057,0.6311278686491348,0.6851120180736585,0.7237820151786463,0.7516396773934909,0.7775307383340928,0.8006791996738063,0.8121376024214857,0.8224654550438077,0.8397913713114378,0.8567457319288558,0.863005719876023,0.8544950607242516,0.8399369699474523,0.8212860745246373,0.8036239758617421,0.798069532251303,0.8002628119094871,0.7998772984336722,0.7832963365878842,0.7279185530412875,0.6341106875310272,0.5264252590593821,0.42611362657797364,0.35307566914687505,0.3064674712658332,0.27605016154282896,0.2588789825177297,0.2474507675075072,0.22929346907120277,0.19637578861619975,0.1660056775338131,0.15512270539480166,0.16553263934576848,0.1864255044952088,0.19188208800185644,0.14064778657309696,0.013812234122762822,-0.17397696266509452,-0.37248805868619056,-0.5257238446535631,-0.6200902468750537,-0.6683799119913633,-0.6834246547746705,-0.6958376036054148,-0.7245656140427725,-0.7789442433862959,-0.8414768166865866,-0.8833692802137941,-0.8961631077348734,-0.8938720981605345,-0.8823742501144176,-0.8467898032991289,-0.7545917273596107,-0.6131257816994397,-0.4742957541363838,-0.37983345448886746,-0.3250545013420057,-0.30449556309918735,-0.3271237165290331,-0.38654222545942524,-0.43936858023667924,-0.4596023559363947,-0.45258355910515413,-0.4278807731497529,-0.3821987122076327,-0.31620819466953876,-0.24628219160200596,-0.18675894777400487,-0.14925625921571067,-0.13683940910978584,-0.13480984362909446,-0.11809052264247222,-0.0920835159878309,-0.06238235569852275,-0.028608969391099234,0.016543563331150625,0.0815236583019328,0.16014629131367006,0.23936207778377452,0.30463704891258536,0.35234086374574125,0.3904567680811402,0.4289222620613259,0.4809940442221689,0.5502739682481348,0.6314633553909519,0.6859282044684598,0.7032241069986381,0.6996896303011314,0.6853240825349949,0.6720987597222464,0.6860922703472215,0.7286331461536565,0.7799477647497455,0.8171175122977442,0.8385281008906843,0.8453298830253361,0.8325112647070001,0.7911046697369605,0.7068616606807826,0.5851069465446938,0.4661818157645734,0.38715333630299154,0.3536867946600438,0.3357408865064636,0.2991592588126323,0.23724390809935325,0.15816066982673282,0.08047201602408711,0.014342822525163211,-0.03656126613417752,-0.07995212596786375,-0.11905389433579315,-0.1450327526600156,-0.15988907548709339,-0.17917194967722266,-0.22647810087155135,-0.3080576834784804,-0.4215183842535277,-0.5246108117215226,-0.5620127752625644,-0.531841020052844,-0.4792681272645936,-0.44461192478255,-0.4582002619369585,-0.5264953700505229,-0.6202933883573838,-0.696158671524622,-0.7447336312557427,-0.7702613768178377,-0.7626256067757404,-0.7010592314857796,-0.6100715593587048,-0.5369477478899627,-0.48077339146187753,-0.42601779333546597,-0.36038293189113574,-0.2992116603486648,-0.2661642348402405,-0.2848767028119382,-0.3489250680456097,-0.43106969186279703,-0.5042046880643415,-0.5437031448693269,-0.5196756327300366,-0.395614849449843,-0.16364189168727405,0.09784197918862028,0.29533685846048907,0.4069625760661067,0.4440546233850289,0.42011833269359894,0.35136197190707047,0.2916363378350288,0.2830427639511251,0.32933025147096023,0.40801615381039613,0.485770848015768,0.5451430316874721,0.5937405807478878,0.636206150112585,0.6618678817604253,0.6420318207499868,0.5657489783354525,0.5116693326810304,0.527234779596763,0.5723666130359876,0.6113888861536738,0.6398786673773078,0.6659983008990584,0.7017958031181925,0.7491542456908946,0.7778860671023436,0.7794927734412908,0.7824192308142734,0.7932875490452981,0.7907540318940972,0.7502852198313646,0.6588460242884554,0.5362649917641701,0.41232792635360355,0.31481804339407393,0.258161797824822,0.2563152641446557,0.2971702859971105,0.3459084283013854,0.3716399091579666,0.3619406470724794,0.3135791347860851,0.2258423683062757,0.10335203990296686,-0.029725018954662768,-0.15108057465019806,-0.26117410388477685,-0.35873479958121396,-0.43612335467256774,-0.48995462902188397,-0.5147145499347153,-0.5071361789965537,-0.49192755529087756,-0.49132695273172483,-0.50672421026961,-0.5387814375263634,-0.5833949903466191,-0.652278274249297,-0.7421424910309384,-0.8086395208706111,-0.8374349916000982,-0.8405708909304372,-0.8084253743380797,-0.7390609185839428,-0.6295586365339176,-0.49009037496090074,-0.3622691491840425,-0.26796473887151595,-0.19418740217577812,-0.1419642405620341,-0.12639511003229345,-0.16465369074228103,-0.24093937581923994,-0.3209475563456357,-0.37680453925051766,-0.4109493072938225,-0.42102195451402186,-0.3997051540694238,-0.34677878280565466,-0.28187062387228917,-0.21749023437785794,-0.15834556313809578,-0.12009151799273582,-0.10488720049216285,-0.09141270602915733,-0.051163370430636755,0.025352741713166718,0.1194871510697778,0.20680465960689245,0.2678453761389641,0.3003288286171477,0.3131986907088362,0.32523793544485646,0.35609253968690935,0.41259369142632707,0.4788824432364226,0.5441688154807998,0.6176600467680042,0.6925646598397198,0.7548582805319133,0.7934519200849746,0.8066765027901285,0.8070810988569848,0.8026411421934233,0.7927223522796898,0.7722577882361805,0.7481096483981559,0.7316422656601814,0.7289302744695181,0.7364161848707338,0.7450859138919727,0.7353684035241306,0.6726686567807127,0.5133595920753259,0.3028679431059617,0.14384803796411355,0.06740873558421197,0.06636109357332419,0.1329550584263547,0.24607167968225396,0.35405169730400987,0.4052898394063848,0.3682045025622893,0.2392734146446375,0.05214032023518279,-0.1147466087366472,-0.2083860905666552,-0.2392996465562146,-0.24155494363725458,-0.25016559280346246,-0.29006817156085046,-0.34812133606658985,-0.410110245587557,-0.4591475783438806,-0.5113172612113942,-0.5724173877842128,-0.6263247806874208,-0.6772848532077989,-0.7180375150060421,-0.7430055686556887,-0.7540097021800568,-0.7601785166461491,-0.7600864032628373,-0.7464587830775303,-0.7058065059590968,-0.6345081632847885,-0.553410293627594,-0.48195253201085125,-0.4288694763828098,-0.38919710772540456,-0.3563613641918056,-0.3357639185460847,-0.34828388226934365,-0.39959126534760286,-0.47972955949295953,-0.5677401994198499,-0.6295042597527911,-0.6483274754815757,-0.6281013826147073,-0.576690814346753,-0.500568956129184,-0.3989924040758669,-0.27212715453785874,-0.1306091902387754,0.0018934988311160301,0.12386300400932235,0.2270085033983559,0.31388880736033353,0.3850541877700698,0.4393510560682947,0.47801754801069446,0.5038834005826275,0.5351566015202034,0.5838143895561626,0.6495512221032201,0.702959483064068,0.729051248720085,0.7505069549106935,0.7616163050846698,0.7038182800957169,0.6012698071610008,0.5146911645661257,0.4602851752692694,0.4372058433829124,0.44573440887975607,0.4861134967120744,0.5547585046838865,0.6427409393924292,0.7175887341542956,0.7510147291544745,0.7545129863549105,0.7546357583593559,0.7587408606623335,0.7492454517597846,0.6977188110139863,0.6101603656219835,0.5233471760444189,0.45809690857536206,0.4118396788550365,0.37138489408499786,0.3200882101816653,0.24868929321014685,0.1665654588483184,0.06981470486048,-0.04046418912239878,-0.15738689202241668,-0.24582879725969473,-0.2885129492653494,-0.2964088531863695,-0.3019820699597265,-0.31843490670549357,-0.3532384594721592,-0.4118802109620905,-0.4855521268477269,-0.522221598860013,-0.46252874984194836,-0.3837227612659395,-0.3773996248994237,-0.4393035172552738,-0.5048244802955387,-0.5241568690089264,-0.5173436706484469,-0.5189612431475114,-0.5307047911969016,-0.5338220409109182,-0.5129945455571272,-0.47568647545316634,-0.4275929337022039,-0.378603983831852,-0.3521603757578142,-0.36670243732152163,-0.4214958063954119,-0.5075353029002352,-0.5874164417542386,-0.6257638021814488,-0.624070907889283,-0.5981692122786205,-0.5579850633669267,-0.4989523819328964,-0.4215992147426972,-0.34116495053354656,-0.26221681091718696,-0.1834487727542249,-0.09257027047224604,0.019785273046689898,0.16123704918643172,0.31266341014445864,0.4389093601630379,0.5224200546862595,0.5706893280364802,0.5921289412225689,0.5813919864376484,0.5355145380186588,0.4864715407042265,0.4678926162104515,0.4771105228025807,0.5020250196490632,0.5325929353509034,0.555628979202727,0.5729401411608217,0.5828067466980301,0.593015350551167,0.6107517719518931,0.6390976020573464,0.6765195824791029,0.7199576405635044,0.7575496672085996,0.7855973387015353,0.8032187069008909,0.799838413304825,0.7511321922897812,0.6343588939990994,0.45733101191464626,0.2878623789950539,0.18068061420353226,0.1505493664506575,0.19457512586386363,0.28385303827223557,0.35090166425514363,0.35756070577020693,0.3060817617679336,0.22040938842975952,0.12540967032154832,0.030421393852997924,-0.04892466901169852,-0.09822014312070253,-0.12582595679021036,-0.14368034378821168,-0.17017118523854324,-0.2275841046102286,-0.32619827585431427,-0.472316199362361,-0.6254302830975994,-0.7562345917309593,-0.7921041170507492,-0.717318695050336,-0.6322913636188173,-0.6036125622113271,-0.6214714197277549,-0.6747272013788409,-0.7401756692328318,-0.7847925301183277,-0.7949312274991006,-0.7802520533081163,-0.7337584382517407,-0.6454326927896593,-0.5556558367892245,-0.4877118624366718,-0.4534494295799342,-0.451456853856674,-0.48192981561734005,-0.5429893713580001,-0.6181759314501719,-0.6740544278147282,-0.6904224505405654,-0.6669541502185877,-0.6088967696784692,-0.5230094197202825,-0.41976408177530483,-0.306745391953935,-0.2044840869734159,-0.13460889317620012,-0.08302017509918025,-0.015771880568379217,0.08720758887510197,0.2087803141266623,0.30940271900839666,0.37193472140848427,0.3951631416179658,0.39559703550258957,0.382254630026281,0.3651917882751297,0.36133869336721797,0.37953619531264854,0.4083616306608578,0.4320331828695174,0.45436527738575655,0.47454845978156646,0.4861013799751112,0.5159167162198698,0.5841745484395657,0.6498557690234565,0.6677824077731889,0.6284502838287951,0.5725155198093552,0.5350920027009841,0.5318920884793212,0.5691633917922994,0.6445034075534478,0.714302983179395,0.7150927590757071,0.6587179063409587,0.5786091737737099,0.48931303106645224,0.41245807234972615,0.363302941567202,0.34415112778270723,0.3543704273053287,0.37879169017015263,0.3965303583582881,0.39114046081262016,0.36218313595677637,0.3126352722824162,0.24011531305587194,0.1496839318293445,0.0718246701133639,0.014142303354395714,-0.024966656442632913,-0.06390656754449982,-0.1337943012018891,-0.240459675428105,-0.3568174386938756,-0.44588527454286186,-0.5106082974327528,-0.5556361561396231,-0.5790694601534807,-0.5782130005778406,-0.5681595888668717,-0.5734627133234911,-0.6121406480167483,-0.6708562223079801,-0.7257837582402662,-0.7659179078419319,-0.7732813940902664,-0.7258620916008923,-0.6122857302748638,-0.46957063375793195,-0.3558358174880341,-0.28901605244231454,-0.2537031801171897,-0.24647322095859456,-0.27265028868109636,-0.3085519684627614,-0.3123104404698149,-0.2587045624803961,-0.16724306429159513,-0.09131432845218648,-0.07454631695438643,-0.12103230262391679,-0.17902355975589976,-0.20807160724649432,-0.18401180198872183,-0.11465712940841863,-0.024119718650485,0.06103150493314911,0.13166916513306035,0.19640374327381038,0.2643154113507429,0.34071111569168566,0.42193996751426427,0.4973524980803048,0.55854363232245,0.6072664264945322,0.639023116023511,0.6568340128433163,0.6669292564708909,0.680657001675781,0.7079132964840001,0.7397055854685358,0.7611737144211926,0.7797274437765468,0.7971846957470369,0.817065906015796,0.8333392187399722,0.8384155443244397,0.8368226489831273,0.8301306655657577,0.8181671098931661,0.790624292937873,0.7576644126703361,0.7395440581243755,0.7377644908794246,0.7164554224123766,0.6333692722232016,0.5037015552692937,0.38063281825562484,0.29331103071758163,0.23926793550492506,0.20134008395624256,0.1596791498023996,0.10485348474093467,0.034000790896091114,-0.04386619381025736,-0.1219964861053302,-0.19647028366207261,-0.2641570764965277,-0.3183918587226915,-0.3538879404084572,-0.38269560419182297,-0.4212636960838532,-0.4744548698205626,-0.5385023477610784,-0.5970427544246825,-0.6386874157886812,-0.6692035516066327,-0.6994713675847507,-0.734477877561787,-0.7675231900505889,-0.7782205691071684,-0.7756163291435675,-0.7659658584330252,-0.7506877652235693,-0.7332514706460531,-0.7167341740823692,-0.7064157544551601,-0.6991454611297435,-0.6792551442386666,-0.630195038260107,-0.5448373311990082,-0.4497451342302303,-0.3822131548374091,-0.34638539901395227,-0.3249340347303294,-0.2886274782724625,-0.2176649493063681,-0.12781647135074312,-0.06596466744814455,-0.07499543039026192,-0.13403468352155698,-0.19755729972562436,-0.24700507458216184,-0.2742106804848128,-0.2637925610125276,-0.19852980175047155,-0.08153784630116138,0.03942185008908551,0.14643654086917307,0.24177923530953876,0.32159819398498274,0.38387791578473757,0.42823914659172707,0.4715334772041627,0.5181374027988719,0.5602614952096534,0.5809127694503766,0.5566513392004072,0.4671775394868684,0.36692828043509523,0.3088227051643739,0.2933010302153089,0.3056044651492444,0.3372547490360067,0.3881465957800002,0.4598151238389561,0.5550558860258991,0.6534641988982732,0.7187914985795765,0.7505202867146191,0.7707380060982605,0.794691236360497,0.8223676002860238,0.8383595949590221,0.8169312301456355,0.7518519939444156,0.6682817942767316,0.5875541447206643,0.5246167561731252,0.4676387181087262,0.4090468252616739,0.3332174583163475,0.25301653149079173,0.1909552186007601,0.14306159614086492,0.09629064099935589,0.04336911456566205,-0.02308659458428877,-0.10425910416664964,-0.20358379225543116,-0.3186106164122628,-0.44272001519041987,-0.5495877551944611,-0.6347685576940992,-0.7200577863681431,-0.7935917929825343,-0.846287716817716,-0.8771905299874394,-0.8822636515724613,-0.8595059728881532,-0.8062669101711937,-0.7463622211823832,-0.7141975183641511,-0.7147408137678642,-0.7228690614122895,-0.7063150238212696,-0.619125721683932,-0.45043176814603647,-0.30128332807891645,-0.2173577284550774,-0.1840531503777924,-0.1993064855741591,-0.2653290314522731,-0.3812380217904078,-0.5099831396175495,-0.6006046378469257,-0.6316961956986652,-0.6087660423374333,-0.5440278342275775,-0.45037733689251014,-0.35643866604290864,-0.2853167503447924,-0.2326378970601985,-0.18789898941931493,-0.13524313439116417,-0.05624578679282567,0.04232694133954009,0.13211569621324248,0.20336714536050765,0.264529608299517,0.32733469141971716,0.39462025627520536,0.46202938101296936,0.5104253700333666,0.5261047816837902,0.5171301541746847,0.5145605068367215,0.5456082691140223,0.6150247764690351,0.7042101278655069,0.77207080530632,0.7988553775918595,0.8021143010774225,0.7964381445677277,0.7822297257791693,0.7570160155718902,0.7365518446484579,0.7269612819024086,0.7255800203549343,0.7229200513470465,0.7068802482945847,0.6764626735950571,0.6408265947580428,0.5997814254730158,0.5454128349249663,0.4897521525231132,0.4613599591258629,0.47218906650621273,0.5024698609479519,0.5163564672408226,0.4877151536902513,0.4211773434802316,0.34112698880080966,0.26949115257436523,0.20321850200175007,0.1301751945316795,0.06604523977991705,0.021695507450880114,-0.008304997390973125,-0.029845636117522407,-0.0530170303384547,-0.08442153739776756,-0.13413509914595306,-0.22059990703814628,-0.37153582220537595,-0.5436599417842559,-0.6024976495901749,-0.6260808231608065,-0.6776606045042405,-0.7528391647756668,-0.8179982233131707,-0.8558749837322693,-0.864895452764558,-0.8419002672865427,-0.7794494831226358,-0.6854929107328024,-0.580070707839658,-0.4917410893016628,-0.42706752923966973,-0.38075497568026795,-0.33571419351275483,-0.27078707397822904,-0.18486499308974708,-0.10875664167697911,-0.0840739124890254,-0.12125367571283026,-0.20028762714088688,-0.2898893861077499,-0.3710150847276889,-0.4189956470104362,-0.4149193798698617,-0.3468485477216992,-0.22229880824317114,-0.07801533403572347,0.04858548705603074,0.14431137903776373,0.21803945000872388,0.27855905699945194,0.3301714508660459,0.37025855378758993,0.40020940639190816,0.4189375714084587,0.4419752792491563,0.4725291643986332,0.5150343553876345,0.5654455853239668,0.6181269913979494,0.665571199201036,0.7076060157072823,0.7404770593886102,0.7700642649936004,0.7972661082380401,0.8175819889623096,0.8347602653163089,0.845090616812032,0.8488841832925224,0.851087692164917,0.8566301193035882,0.8638101410168687,0.8658226726263617,0.8543007318273933,0.8238759215834754,0.773014938876576,0.7011788389984251,0.6190422954846553,0.5423828725161562,0.49303582976798965,0.47396642147003126,0.46601287838122785,0.4542923080711324,0.4305136202896736,0.3941408564423632,0.34678982451795104,0.2830222561344576,0.20315086467099888,0.10690325659357391,-0.002157554725981609,-0.11391768774043039,-0.23309158928884496,-0.3531591836406377,-0.470595558766642,-0.5707000804313882,-0.6421462875761557,-0.688451683748547,-0.7097326525230655,-0.7084734519451025,-0.6924061463612418,-0.6737260820228681,-0.6706992202939027,-0.6826104350037172,-0.7101827592247253,-0.7478044639713297,-0.7828382102649162,-0.7759945219611079,-0.7194090015472777,-0.6454832863309041,-0.5814583646570022,-0.5395707017929675,-0.5288166022672588,-0.5404371621117194,-0.5341170859280865,-0.4673540476756072,-0.3649594229328602,-0.27903246055588904,-0.2363049472261305,-0.23524446261284743,-0.27265544804516395,-0.3479012145625099,-0.45237033947707117,-0.5269709862754743,-0.47761843215739924,-0.37268105932940315,-0.2891965264980957,-0.24023634894033147,-0.22507063258963422,-0.20241981947921955,-0.137665599752798,-0.03151720185186935,0.0879716116947695,0.1839211847520475,0.25424311442073905,0.3050226424433429,0.3430440240000406,0.38004069207884333,0.41768886983475867,0.4392980164343595,0.43994254189474497,0.42842492310524777,0.43423289230979445,0.4733197367494976,0.546779633455177,0.6489709163031523,0.7543422170241842,0.8272425303959641,0.8573266884173001,0.8624841702677578,0.8541891560050295,0.8396247520311582,0.8167717855588477,0.7860654994624984,0.7486320139338742,0.7147581645094226,0.6997159206726221,0.6978479723391531,0.6917571667430449,0.6661646376489528,0.6195062699469228,0.5678925685127747,0.5288164944580441,0.5028440835550172,0.46994997595407795,0.4309824873417516,0.3880665839389855,0.3462815048805244,0.2925600858580282,0.22122279579668463,0.1438859421605039,0.07048507114109778,0.010355633360693535,-0.04820266588804771,-0.10542550962961816,-0.17391591342496596,-0.2645917225249122,-0.37217439228637494,-0.47782533978945124,-0.5702288072567394,-0.6434828536221019,-0.7013358745813738,-0.750149521833782,-0.7912853109145744,-0.821748247513907,-0.8357341634080676,-0.8314690215201349,-0.8096926927633473,-0.7667249908866551,-0.6999539398680835,-0.5926329715614124
