0.6204128340370968,0.6144539043289742,0.6187486592568836,0.6431341969846678,0.6635160491900631,0.6833847597402156,0.7159481329227806,0.7460303914889864,0.754875636466839,0.7475025963110421,0.7465451030218636,0.7560661243320115,0.775086918054698,0.7989047683950168,0.8132123737577608,0.7982625882872114,0.7519133161562501,0.6782759993780837,0.5718121550607541,0.4464888709267418,0.3424098879346049,0.26271297204596494,0.20052875441475845,0.13598377854443133,0.0602762449027282,-0.0220730648360523,-0.10141094961400181,-0.17526955354734725,-0.2523192234850724,-0.327739350034961,-0.38468262688755467,-0.42842705125091896,-0.4697904860574317,-0.5249675709648848,-0.6043117803330144,-0.690960475032664,-0.7407790169786431,-0.7279918663764149,-0.6732606287090365,-0.6074850899919431,-0.551993206840552,-0.5141869116559236,-0.5148129957535807,-0.5732671095240753,-0.6703394982953883,-0.7356806432427228,-0.7503165202090717,-0.7208703713100122,-0.5930448259419563,-0.4043913337232829,-0.2407685810726037,-0.12462933918173705,-0.05466653429486669,-0.035351006475773654,-0.06809258539010808,-0.1549848767083891,-0.2973937685347701,-0.4553130581186873,-0.5320843149252255,-0.5015021224674073,-0.42995815373270896,-0.3372164688771609,-0.24826968214455558,-0.1909256104632934,-0.16950234022762345,-0.1686833362430819,-0.17709646156460448,-0.1783255335385965,-0.1777702883918818,-0.17008269960907835,-0.1325109826600343,-0.0716033937475198,0.007961132073652054,0.11252769052884545,0.24451784372886737,0.381353934220759,0.470774372592432,0.5332006695288751,0.5929715843864003,0.664061638019001,0.7374819037346458,0.7845784966152106,0.7963089746949201,0.7812717647684425,0.7578609490955286,0.7344070201616261,0.7135558707554375,0.6922493609754855,0.6739700867444967,0.6677850128508724,0.6901511604910849,0.7373035408088593,0.785157993175733,0.8099221336130493,0.8141056555033139,0.7949221518706545,0.7452876975044246,0.6671592805375585,0.5571876505929858,0.424860442227224,0.28453829221937516,0.15885218377957433,0.08705011125630856,0.043951839235124586,0.006451409823648029,-0.020258015778618462,-0.024803775996009178,-0.015267788452552687,-0.016847536613173168,-0.04285859786713032,-0.09494367309291044,-0.17059411266830268,-0.26400623343533264,-0.3531049319074352,-0.42402356976760414,-0.48343863872212045,-0.5273445187899933,-0.564606053886166,-0.6160353792915385,-0.6699480406960668,-0.6880104380266538,-0.6704504962700505,-0.6525706812689162,-0.6521270090017299,-0.6686902529856681,-0.7004038655407062,-0.7435763067263235,-0.7817629889079837,-0.7946620457440703,-0.7680020083716906,-0.6889053303414802,-0.5726408965454446,-0.437118069467038,-0.25682082560024033,-0.05550726805643611,0.11181351481124885,0.20920207698672924,0.22297622187407007,0.14110788034596133,-0.04283213936820082,-0.2733690350995622,-0.41181463893486675,-0.4075363441128971,-0.2983452140679246,-0.1562306537746453,-0.03216777072533101,0.057697945174000634,0.12665598154398788,0.20000211838272186,0.28091629220737946,0.33911180930748974,0.35347169980965715,0.3280419387764273,0.31661289976760904,0.36912225849548924,0.4971275397747061,0.6458946421793272,0.7657277573607323,0.8384663206761346,0.8723186668298095,0.8727137523227665,0.8487155557282,0.8275053407268403,0.8333399105506087,0.8561217632891518,0.8805192309825985,0.9006970338714232,0.9170937178049625,0.9221793625912914,0.9063454683741613,0.8868274073832811,0.8744605012958787,0.8664347368469872,0.8569683325193813,0.8443093803672146,0.8279015160221322,0.8011911432374643,0.7425844119345809,0.633098177802792,0.46668911726076057,0.2836195721129392,0.12484807885773239,-0.015555326240140247,-0.13241141291520112,-0.19047263263690684,-0.16771410637211473,-0.08558688580999389,-0.011139965842299742,0.011403451261953787,-0.030403144195738245,-0.10393396591718729,-0.17453036392302637,-0.20543891157794622,-0.1915518803098256,-0.15226346420937667,-0.11954568521576076,-0.14068009087197583,-0.2297286702149218,-0.3604909388290597,-0.4932715231143603,-0.5879142675251743,-0.6390306933960253,-0.684824745174491,-0.7542628468586862,-0.7751868342921638,-0.73150581481114,-0.704636451174795,-0.7005777221536446,-0.7010564931041859,-0.6914736003457772,-0.6644104783768007,-0.6061619024098251,-0.5181372684588752,-0.41907192200777743,-0.33120464996667426,-0.24641721027709554,-0.17641748300747553,-0.14145874009111392,-0.16258148986999332,-0.2380160440713963,-0.3168015382320013,-0.3615239769050385,-0.35665063298458544,-0.3353985661625452,-0.2964656673787795,-0.22226612174079413,-0.12137797240261687,-0.014884833843352256,0.0806041969435172,0.18414948212017296,0.2877432655194495,0.36458462338666314,0.4015129340807448,0.4166102329341211,0.42544326930134607,0.44072689486159816,0.46241342620126585,0.48434572924711966,0.48604271397119314,0.4586799281725873,0.4052184438827243,0.3620607473885571,0.37598734567497355,0.4501375371628911,0.5287482060501971,0.5783015399932651,0.6007234200928924,0.6081767886846766,0.6168662506830245,0.6282772865391213,0.6270563762727834,0.6043916985872364,0.5642120910744102,0.5108281857552309,0.4696088463140872,0.4845208724083974,0.5705446914574389,0.6721945351817881,0.7393826041739571,0.7603735676722297,0.7392652251528153,0.6743277796826808,0.5879467155909303,0.5146977460750338,0.4421959093661796,0.31601273958665343,0.09805640508127475,-0.1017502520873897,-0.1850100981137898,-0.17706891181175718,-0.1303038087939782,-0.08101488234686548,-0.053923777395376765,-0.04158099485011083,-0.04453640362571619,-0.0685487200291187,-0.13089122319751553,-0.23134659832977297,-0.3491019106932623,-0.46050407636917123,-0.49718676265489165,-0.380730753119422,-0.2338437622492139,-0.2135744517402332,-0.34216736742966664,-0.5613255304394817,-0.7212728365664788,-0.779680298912061,-0.7760457953451949,-0.7188618365138868,-0.5936884995497479,-0.4228523821136094,-0.2717573548042058,-0.18104487124820104,-0.1598988672288075,-0.19670123139024764,-0.286688431345264,-0.4029695408821212,-0.5006314790536417,-0.5551180106388974,-0.5759362956720239,-0.5817254606926682,-0.5739365439171532,-0.5421466191486143,-0.47401875270983246,-0.3583498692773087,-0.21809953980879193,-0.07255138377842131,0.05718361015237833,0.14951082457196488,0.189639062242867,0.19621319567812656,0.19825670789918462,0.2277800065206964,0.2973833847475426,0.3919396912237479,0.4670715862155543,0.47678656090506544,0.43169853528335433,0.3831948962940678,0.3556832150985381,0.36055958101106717,0.3984155917124952,0.4631663509377267,0.5459038108482105,0.6322282755408005,0.6914060251054953,0.6531041019563143,0.5590723983808588,0.5320463329273769,0.6066134042832174,0.730061970786229,0.8072308999075278,0.7887617985455592,0.7292656908543579,0.6977923395088986,0.7143037700734257,0.7111716860464202,0.6393008095067473,0.5642368029298706,0.5209916937363438,0.503168148970664,0.4836961454909142,0.4405306929453642,0.36956469410291043,0.2823112423904072,0.19273505447295486,0.0958348973434485,-0.01698906668293086,-0.1315159471168858,-0.23844813929960038,-0.3344225072949147,-0.4420059071186882,-0.57257241723523,-0.7103648198169116,-0.7949482793983818,-0.8182235728224084,-0.7990566916583689,-0.7713853234146841,-0.7707830611233255,-0.7985030997548753,-0.8390064226126227,-0.8606642542742907,-0.8101614403726376,-0.7014854294179639,-0.5992179514694265,-0.5170713451166818,-0.45667415663157057,-0.4049388055160607,-0.33943857910350583,-0.27227642507056027,-0.22942757055726323,-0.22211689984488547,-0.2297263231987509,-0.23284808430268195,-0.23104567845167284,-0.23240859980865478,-0.2612357004688866,-0.33176088632426687,-0.429093129339404,-0.4931789749171084,-0.4903247648891317,-0.45005677269020056,-0.40974324344727897,-0.38523944186866904,-0.3721521239506274,-0.3544427190230954,-0.3415716565681543,-0.36029739122244736,-0.3790468999151414,-0.3354451963462708,-0.2007243172405885,-0.008329951010516418,0.19272766023303745,0.3395632695132567,0.42777110977483473,0.48057310706647577,0.5241336494485906,0.5964846054283673,0.6816475190399572,0.7490771524828166,0.7936172949612524,0.8107627436501447,0.7854711852519477,0.7415595350379751,0.7179543000303209,0.7195712989306129,0.7423678522520829,0.7781940501655003,0.8208196693461496,0.8576002238186374,0.8810014499830217,0.8993027237067763,0.9152660798700364,0.9264440697769875,0.9317991846883877,0.9248255717993356,0.876495589600804,0.7302267187945684,0.4938844744814115,0.3039891820194497,0.2239001660713919,0.20989915995872135,0.19504438160690854,0.14777076387933255,0.08306182389545755,0.04371585253776906,0.038402839022853845,0.0466268977719084,0.04451110406458675,0.01731596937148945,-0.05772305972460132,-0.1728414596693799,-0.287996504888437,-0.3644268862214936,-0.4189930666414525,-0.4630512109676101,-0.5071027853501184,-0.5741361941427836,-0.6675866890442052,-0.7493345912136364,-0.7728887965450851,-0.759667721353834,-0.7567875492402177,-0.7674738835273276,-0.7754782446454163,-0.7673863919198916,-0.7586061933103048,-0.7598407133943371,-0.7540032320903003,-0.7145330574669563,-0.632459316591255,-0.5196360086953644,-0.41316284823980837,-0.3307535497584419,-0.2813418959544554,-0.2839413922107121,-0.3365055290499215,-0.4201553899079079,-0.49747684733403336,-0.544787959351237,-0.5775811839197195,-0.5860716022161162,-0.564853188702845,-0.5145666142087473,-0.4330334432388466,-0.30639849939036984,-0.13399303849517083,0.0536096794598274,0.23071784024696318,0.3494828653297043,0.39963027326118605,0.3988915530157337,0.36025731075207434,0.3034207239532291,0.2183278551444387,0.08735426046813162,-0.08338490010903053,-0.25716401315751797,-0.38744723019604854,-0.44351166345050796,-0.458405978947769,-0.5017244967213088,-0.6072348996626187,-0.7237094237240742,-0.7947503827003332,-0.8237006628208231,-0.8189047369765761,-0.7595022215460261,-0.5766056985288471,-0.08456292438405458,0.5613873388676165,0.8485412866687371,0.9415402188719824,0.9743110115390762,0.9870743754082996,0.9917015609485743,0.9929903548778872,0.9916774563380208,0.9868190023525741,0.9770848756784081,0.9629496870763107,0.9467123719499809,0.9282382341408952,0.8937013411963605,0.8057824760764094,0.6049092636329702,0.32811717641546406,0.08889412828615212,-0.08147831090633484,-0.21147582032730486,-0.32093721840413136,-0.41513966810674247,-0.4894689348408117,-0.5567872912648071,-0.6265478728013878,-0.6951985992938903,-0.7551078060817009,-0.8022495491050885,-0.8421637181852882,-0.8839701551151868,-0.9201528185409291,-0.9398759666344804,-0.9424809393871743,-0.9359691860820402,-0.9268361629215152,-0.9125315138532284,-0.8851088642195695,-0.833917352257296,-0.7579590809492316,-0.6729105381092363,-0.5989226202894935,-0.5491076319087773,-0.5192315551227805,-0.49635457599083943,-0.4770204483869384,-0.47768036085529275,-0.5061415804904614,-0.5549169884608152,-0.6081970031278046,-0.6404612607078294,-0.6440459218838223,-0.6294295091919085,-0.6023256251013803,-0.5606471285457981,-0.5014673015139167,-0.4239493978739971,-0.3233143011413938,-0.20115901865132305,-0.07643952259419155,0.02968636995601834,0.1097069147476989,0.17529270657682844,0.23817995007204681,0.30167953686527593,0.36699073972089213,0.44090357495412025,0.5166793906365568,0.5861455686959404,0.6446860747856016,0.6870166426844112,0.7089632802979369,0.7208457636487835,0.7396604783037936,0.7679305595755315,0.8023763236131197,0.8344684212825988,0.8509455418098154,0.8417751678715449,0.7920481573845358,0.710341506340279,0.6391101373611265,0.60922513378693,0.6145875016377914,0.632116944797702,0.6467973407184983,0.6581631787485216,0.6625137106965351,0.641135602453891,0.572872974685882,0.5108476396705,0.4888151512479255,0.49693418501141073,0.49959277640868377,0.475292810052467,0.42803817229511476,0.37185608278120913,0.3158018371478608,0.2560788906498578,0.18370629207139766,0.09048393702893674,-0.00811897278681601,-0.08355568302166365,-0.12934876704357065,-0.14996328000256903,-0.14704580433082964,-0.13556199449660594,-0.12079394794671815,-0.1341095798817236,-0.18639548348169338,-0.2704968769006191,-0.3328774694956908,-0.34557642075947076,-0.338931529603333,-0.35845296967949997,-0.3996545909135019,-0.4650225599354138,-0.527428723825936,-0.5531269730505762,-0.5446959306901358,-0.5120501180347738,-0.4718423763282475,-0.4381533590576499,-0.4154153332259993,-0.38562687577434235,-0.3277908759587155,-0.2548286111825941,-0.18899416636788524,-0.14679835893231732,-0.11954996243616381,-0.0994507472643191,-0.08113375144613953,-0.059116277016031754,-0.044120244034609325,-0.04080308791785807,-0.054779260994592405,-0.08809772064171269,-0.12842101616233137,-0.15168158294684583,-0.15001862144254804,-0.12373925020800142,-0.09748765918460248,-0.07376417080346649,-0.03696854383613269,0.018891726340376967,0.08286970945570525,0.1539840979553919,0.2530789262703257,0.40540623392370134,0.5619910576699407,0.6527948781189233,0.6809287639713574,0.6789313150750591,0.6717119657134144,0.6799221191795819,0.7190017694714179,0.7833958271712307,0.8283791832647501,0.809765483611233,0.7642571228092795,0.7466026417338463,0.759792653955241,0.7753914585223014,0.7718516960605777,0.7532424255508715,0.7175052757492937,0.667615752237447,0.5947051756214226,0.4865362331028355,0.364679687133492,0.2755594040057948,0.22398569734943818,0.19783191803225844,0.19302477441280105,0.19651844561262857,0.17096046165055734,0.09621379409770464,0.003822840252113192,-0.11863017314708592,-0.24624177230020414,-0.2784272285192809,-0.27178615766891606,-0.2846830022028122,-0.3265663816223126,-0.3909105114089251,-0.4580628487008467,-0.5016201598155441,-0.5110944303222835,-0.49830042842092753,-0.475552046821626,-0.4675872484413209,-0.47136152517857494,-0.4864311337994013,-0.5047727304326884,-0.5250973022311787,-0.5655385836165038,-0.6190455183749065,-0.6682507870882674,-0.7009541316111505,-0.7013766504428016,-0.6604339401641103,-0.5853505236004817,-0.5115940133688975,-0.45072925704752104,-0.4105531251596129,-0.3704543054684046,-0.33548765710889866,-0.3353168356372538,-0.36715658558029796,-0.4018449195651602,-0.405950256165299,-0.37639975438945383,-0.32649367408999935,-0.2702714815562374,-0.20607205653655453,-0.14223140464129963,-0.05830942922946936,0.05966042949353048,0.1985645538320599,0.3103136966852602,0.38370036004648134,0.43024831278865466,0.4647331024174223,0.505364371509233,0.5518671117093911,0.5865662638012313,0.6078755091829007,0.6220877441118432,0.6306168831494656,0.6402429951957054,0.6571143085401072,0.6978055478280503,0.7463366447826715,0.7818122764543206,0.8003219293695039,0.8119880450115468,0.8167591793033548,0.8017478038883933,0.7674629941878172,0.73062829984846,0.7156682237665514,0.7270436915059528,0.7475930389696382,0.7685368488052625,0.7688812691145288,0.7529562869876053,0.7369284955982845,0.7278011357670452,0.7160106559070037,0.6793126712789874,0.6083154610198348,0.5109506753197105,0.40122930860971523,0.3091675966665498,0.2588622365963109,0.2407400305245952,0.23718966890130622,0.24267670409936526,0.2619361943863079,0.2960256376561011,0.316075410163922,0.2959246763659017,0.2087031884796682,0.05062612297841063,-0.1479346820817086,-0.3259989648387683,-0.4523445994431933,-0.5633918467094139,-0.6771894354716038,-0.777716699647962,-0.8371583504424985,-0.8429623849004172,-0.7895907721326387,-0.6503021710531829,-0.45258977095791103,-0.3338769290715906,-0.3656066952606172,-0.48664277962795105,-0.5886044769546975,-0.6280791928294,-0.597361492845125,-0.48831503046705943,-0.30485150257900046,-0.09305887444073112,0.07840829027949926,0.17064831252551765,0.17219409921119408,0.059946930466666076,-0.16444061912654298,-0.3963561975603406,-0.5356446101402073,-0.5795093188586713,-0.5504550121970458,-0.44805803884491385,-0.30537244580699524,-0.1856937219713092,-0.10995952070630813,-0.06465597002078943,-0.028944376408600033,0.017676187333134852,0.06581713012003536,0.13639988278456588,0.23902752050274664,0.35421072113727947,0.4574038172964963,0.535407593734935,0.5866933355451782,0.6011121096251324,0.5639471802601623,0.46958016846027334,0.38020489982256245,0.35146876086302686,0.3760644878695018,0.4433558588322241,0.5277241967874163,0.6034670659109336,0.662272949490262,0.7087584041546774,0.7332823939361257,0.7328421167706153,0.7202892511696336,0.6983097265865859,0.667193464168349,0.6350071636355892,0.6107714300655107,0.5906324914766925,0.5651777323631525,0.5266807445857913,0.47267426037273336,0.4101093502780243,0.3571777789320303,0.3245544950255753,0.3015042827879257,0.2771482814328906,0.2441327278807085,0.21236756777989052,0.19461392977698821,0.19099477329122752,0.17236639932284606,0.10949020200859186,-0.0028328785290141632,-0.1457526836744169,-0.2833419323471141,-0.373873364204392,-0.39353674172423914,-0.37036191557831494,-0.3560832482820417,-0.3648599708951292,-0.3878643840969811,-0.43092795137371015,-0.5030718086362986,-0.60383997680352,-0.699128759268209,-0.7673146651746813,-0.7974030990849644,-0.7968081786478598,-0.7657719192216755,-0.7072776148817836,-0.6306776865604097,-0.5422721085036883,-0.4237524030995444,-0.29153881250447555,-0.18889959754279556,-0.1422039038405351,-0.1482382113366816,-0.18763027592708711,-0.2462174035290554,-0.3045037764046913,-0.3480106772129853,-0.37095976953654314,-0.3892142336423394,-0.42488585882685526,-0.4715098714632673,-0.5118123671641767,-0.5198498337031118,-0.46771562682127177,-0.3511133493448684,-0.19203283826906142,-0.04696236559273642,0.05660040408544459,0.12875937207119004,0.1698382343193815,0.1850373131274481,0.1813222665843246,0.1586091471338758,0.13584464168876634,0.14739438748528105,0.20761359143146008,0.3000459322377733,0.38063059106718006,0.4451666057976502,0.4917068174260108,0.522761265244155,0.5422566541440104,0.5434138142682665,0.5452438728981855,0.5717347469774974,0.627815181618086,0.7004457179821741,0.7642221485472455,0.7911490864503348,0.7806110566186485,0.739824883669048,0.6738735321287557,0.5950806935729016,0.5292271204549421,0.4925564798028197,0.48359884575491957,0.47947983437350156,0.45025587319449695,0.3931710594810379,0.33289949858233125,0.28525190958120056,0.24604035018464104,0.2076938649448861,0.17483656722209112,0.15253563587432303,0.1383404425812642,0.11284821995957832,0.04515316789117344,-0.0651953165530617,-0.1873400015329262,-0.2759024361412591,-0.30670267355035896,-0.28800452010682814,-0.23305919831546765,-0.17364318748481836,-0.16619312895135732,-0.23632301025268732,-0.3464623850441115,-0.4409570225749914,-0.4804674937944843,-0.46148462951113145,-0.43853945429272767,-0.45670439677782243,-0.5166742681625603,-0.5967683684772815,-0.6670928303806685,-0.7078891329768217,-0.6849114519168816,-0.5506402931290032,-0.3407791892542165,-0.18575042152923618,-0.10022075401135354,-0.04871141548767139,-0.00925042736767483,0.010605277119845274,0.008541498359684409,-0.029228217457067374,-0.08673978688129635,-0.1283744844414988,-0.1473848739513263,-0.1433235425625786,-0.12626761732456673,-0.09438317560530443,-0.041030844826496424,0.043809454240739176,0.14739689916337992,0.2352012339364532,0.29468439190136647,0.32395797233054824,0.32392367205594197,0.324027406161657,0.35429679498916544,0.404205647699788,0.4578794992363313,0.49148230435940815,0.5080407603926395,0.504626074231531,0.47623974874415087,0.4079084783351407,0.31084229304063826,0.23426051658112315,0.23305294099687057,0.27061215344964823,0.30757096217250257,0.335633731282572,0.3621869721874004,0.40900739343548753,0.4915972705179392,0.5922516632411065,0.6680997500558342,0.7193536894110049,0.7544478534566764,0.7728581317201452,0.7669466734415413,0.730915015262189,0.6399851499287024,0.4705592293281927,0.31203941659754963,0.2771896096426084,0.3628638675019407,0.5041582239206817,0.5722078217480048,0.5353900996414486,0.427775363400102,0.2791019333258403,0.1194183414128653,-0.01609234898700789,-0.11945079695653711,-0.20604022291345872,-0.28067420460574344,-0.3420497549277264,-0.37792452262917364,-0.3761522404097346,-0.3558393260766059,-0.349646333933281,-0.373722844787271,-0.4252153466056206,-0.5098326092695169,-0.6366348521276413,-0.7701147601760068,-0.8196172573830817,-0.8058086373264387,-0.7766446566108353,-0.7405749899021673,-0.700904163827878,-0.638038788804071,-0.5426177290601243,-0.43677172699351346,-0.34647711954727356,-0.286524103291788,-0.26057676064568397,-0.236685560782468,-0.20029213829382608,-0.16981848629713683,-0.15135947187153986,-0.13749826949362703,-0.12748790319063735,-0.11505838694505516,-0.09321410935486119,-0.06717177870946434,-0.05108942515984665,-0.056733180440527047,-0.0951246052545001,-0.16822610257577394,-0.2757896683790158,-0.3887940532519536,-0.4574018203237868,-0.4654813479425403,-0.4220036291676457,-0.31465768686386525,-0.12562703183075227,0.11841107073317284,0.34856235545996195,0.5239408311669784,0.6433187066495566,0.7196729893810071,0.753055427908942,0.7505568169484469,0.7251886048987676,0.700265975946147,0.695064158116265,0.7161857090512113,0.7462316109069237,0.7784443604246202,0.8121027460151874,0.8394298278956739,0.8596476771226207,0.8681087116081436,0.8528528728584983,0.8287795363481449,0.815672349499783,0.8143451547655188,0.8102125615447,0.7799494160491433,0.703072514913863,0.5857276512667263,0.4417174742418021,0.30732501043619115,0.19450517447283136,0.10041532008465821,0.02003357787406654,-0.04329978915695966,-0.0912114053887136,-0.12580141379974785,-0.15633807850301668,-0.18192233905476352,-0.21379623551774116,-0.26488077493601425,-0.3252720705698844,-0.35975662407933445,-0.35362698786762575,-0.33951996345755253,-0.34241354486961856,-0.3682399177606633,-0.4163528115163887,-0.4809523596532687,-0.557051320108866,-0.6350950726368555,-0.7019555785033549,-0.7430536421371334,-0.7468079069214124,-0.7180354737402461,-0.6740348750795295,-0.6190631795873061,-0.5396877076238287,-0.4242585525644158,-0.28352496272132943,-0.1506992998677296,-0.04754810064875949,0.014613584407741607,0.03342874849804076,0.02469046221311352,0.009005850662120481,-0.000962382298710963,-0.015695270258760635,-0.0436383105415196,-0.08737891642436159,-0.15587685526236034,-0.249032738826447,-0.32787900938163667,-0.3824612342333916,-0.41857817930023167,-0.43885840980382845,-0.4409640135705706,-0.4390645175440542,-0.44323364308025126,-0.4437211037347868,-0.38842788461606864,-0.24919243017219309,-0.07949334232862093,0.03925404998529119,0.10914552377279185,0.15652812151632733,0.20278003326657626,0.258359621070034,0.3215443065324784,0.3896555690737195,0.4711303454018014,0.5683433026864602,0.654978772894728,0.6988579184783901,0.7107041407536719,0.7148163369199731,0.7350630459059202,0.7745147642726652,0.8240935471976225,0.8575096463455208,0.8662891196358506,0.8575244611601666,0.841373334472242,0.8312655323621464,0.8332813181850991,0.8419677999709194,0.8398321869243961,0.7983211212872018,0.6814764936556261,0.5088218063515026,0.3617163792731977,0.2816896003691151,0.2791368346205276,0.3416896183599238,0.4009005273030042,0.39074380885167914,0.3131370844735989,0.19047813668149574,0.054987877455132936,-0.05831101671890015,-0.13421514358308642,-0.17899132350344416,-0.19440562380923396,-0.18894228085589157,-0.1677790145254473,-0.15203235046324573,-0.16852520043229396,-0.21718849792244993,-0.28795091916817694,-0.35665775139020234,-0.3917911615578923,-0.3592681749929422,-0.2884073337524355,-0.2961108450762097,-0.42359252430591804,-0.5928754053454812,-0.70439379979821,-0.7558309587812374,-0.7518444027911251,-0.6936340474404673,-0.5897499969239034,-0.4788554320397738,-0.3874012439290765,-0.31587373495732834,-0.25304114235131575,-0.20664432152945675,-0.17663229297414132,-0.16796562162556722,-0.18214434184080422,-0.22656318076617585,-0.2907003497915115,-0.3441133225115361,-0.3537177727766137,-0.31079469994905023,-0.2186027576303121,-0.10747402372146052,-0.016290297518956085,0.04121041026426502,0.07478724564360711,0.09194987673147251,0.10449999935781512,0.12065153848184115,0.14588409626748847,0.17641906108528962,0.22506098400415997,0.2790516733107328,0.3397615141228178,0.40058655024173545,0.44919159688121846,0.47462843031131025,0.4797712343250335,0.4811762782534178,0.5140474014702074,0.5892850138203769,0.6848827210988974,0.7531656061155648,0.7837722363951817,0.8013366631773795,0.8221471366713922,0.841365813933693,0.836627817464067,0.7962486363394629,0.7498220986044062,0.7277700575346824,0.7299726762440993,0.7388138646168023,0.7297456882088279,0.6665213232735266,0.5461010092051143,0.4214663422813021,0.3281506665403362,0.26969850035729365,0.241149123584632,0.24332877661023583,0.2601154661338874,0.26893736279436115,0.2576403002719454,0.2306388849578341,0.16683591285219102,0.05842866238745794,-0.07285330534974288,-0.1969770874358868,-0.29977644268174786,-0.38156370111056653,-0.453102260454181,-0.5179833341198762,-0.5942703535599145,-0.6748482912419267,-0.7419606696329658,-0.7870325143455824,-0.8243646935908232,-0.8610930144109362,-0.8615815709865088,-0.7925533962903684,-0.73181148188151,-0.7374611163953548,-0.791531526820818,-0.8472948767530573,-0.8461772996070617,-0.7963000951842629,-0.7395470406998604,-0.6866121086440237,-0.6226807890560816,-0.5420246815871248,-0.43885495181218787,-0.3168331095704161,-0.20765098262213008,-0.151190580568134,-0.16130117945039055,-0.21685583688950721,-0.2429527857828289,-0.21386578605490214,-0.1605007624127292,-0.10758318884969421,-0.05331890948474705,0.014341306724341533,0.08621150144853047,0.14825415655125065,0.1993252171308339,0.24579865168973675,0.3107632526494253,0.41568302557491643,0.5364678452243664,0.6280421307429479,0.679555973975018,0.6963887261839639,0.6862135566765449,0.6585081758811097,0.6111302254641761,0.5431818161277665,0.425819368508361,0.23326470443794295,-0.027830838412492374,-0.21993984928229093,-0.2513107144046942,-0.06136740192305656,0.2999763968561328,0.5681498934660675,0.6974742268343993,0.7528043673190209,0.7722418841207116,0.7670344661459388,0.7392325407654852,0.6934607352282529,0.6281092457463587,0.5424689514811345,0.4638185624991751,0.4258993831474025,0.4427369530083379,0.5190861717131736,0.6051374786630169,0.6601351468959299,0.6822212541590793,0.628366157919239,0.47227299157718483,0.3064303198755741,0.20363049822618823,0.17049261266131138,0.20599880283705743,0.2900205271930835,0.30449295918913216,0.18220194556007377,0.023917901389701963,-0.11568969216176268,-0.21037432259647054,-0.25493796924561557,-0.2718914193394809,-0.2883190797664696,-0.3340509197045018,-0.4108078454258949,-0.5062813264923103,-0.6004794230782586,-0.6680713489548602,-0.6961937966040362,-0.7003741269919506,-0.6917493711697165,-0.6669089026316224,-0.6415035068118454,-0.6379757916075417,-0.6451566387927369,-0.6264406185084713,-0.5545559908342206,-0.4177184975040667,-0.24016102078185544,-0.08040639841856033,0.022604998208345568,0.07176152020274845,0.06410274527357337,-0.022569191384141683,-0.18971128391349232,-0.38126474466365534,-0.5157674169418333,-0.5671165821144316,-0.5491518549324989,-0.4637801382662732,-0.315751708814766,-0.12400942881125898,0.05885814406734778,0.16871912682183088,0.19935939351419069,0.18358002411163057,0.1619191875312265,0.15014467970733159,0.16986147456055298,0.23378018343992607,0.3391899141113926,0.45078011163287535,0.5420403315719753,0.6133026040841753,0.6858403281884894,0.7588408302465574,0.8120189006538141,0.8257453472003421,0.8061347052192848,0.7789424364243412,0.7711841286307418,0.7761453798487277,0.7828802487888373,0.7860159271444185,0.7801130349376563,0.7756401500521953,0.7791149561798217,0.7781318476630671,0.7667436048077597,0.7470833892783452,0.7204546172287788,0.681802135504158,0.6120897069799403,0.4720983230791175,0.2863865152896101,0.1394136576893267,0.056239593460885355,0.026959136914767746,0.012734938969373518,0.014972639274029542,0.04297516966565771,0.09366883611560488,0.14199206522201985,0.1598346785304739,0.12648896955506006,0.03519831899878314,-0.09859639195347253,-0.26796025876793167,-0.4470449172856498,-0.5932664909894937,-0.6976074873440999,-0.7653714882945891,-0.8055097686717396,-0.8258070110850068,-0.8192735274453885,-0.7774574013319,-0.7040895817746795,-0.631852186908029,-0.6118762236935619,-0.6447466194447405,-0.6888287375140888,-0.7329067461311126,-0.7653069872369507,-0.7717897958800655,-0.7218519091702343,-0.49914313302843283,-0.12444931814337624,0.06399322383868648,0.10502228863415816,0.08507371923363688,0.05961957278446048,0.051022245143069,0.03184938232164985,-0.030578145071457258,-0.14285786490333655,-0.25420283849374353,-0.32615788282656694,-0.3679013351839419,-0.3793437378678851,-0.37690542696608353,-0.3878032216845959,-0.39738163880207317,-0.37380144645666485,-0.30982476480135174,-0.21755690157706825,-0.10558942828156029,0.017971262222789244,0.13517713507332058,0.24168668119666553,0.3363720311029576,0.4138199820017042,0.4735884802967606,0.510760980069299,0.5367702926720828,0.5550052498913834,0.5677422684972564,0.5828802035472049,0.6241341895394149,0.6925634835276938,0.7605254600600093,0.8010173947559138,0.8244607482424086,0.8390639144195741,0.8430625464734885,0.8104569371667655,0.7503750106961513,0.7150571420305053,0.7160452867343375,0.7233714179432164,0.7258394641644302,0.725968078036989,0.7241623323205305,0.7152142757620286,0.6987137888328677,0.6564604985141922,0.5657616733915537,0.41718549610394795,0.25035092890906124,0.08798244953591017,-0.06967871612164678,-0.20761126568192684,-0.2913686156197542,-0.3005973657067268,-0.23545622159557578,-0.1297234356268644,-0.021089397461504997,0.0510621740409209,0.09427386444058257,0.1252130715217399,0.13235157759227545,0.10506798460867439,0.03035658576240389,-0.06962894050679762,-0.16168971822205896,-0.23606607934548124,-0.30320190095159194,-0.3575737381830367,-0.39991284526099335,-0.4222505727614427,-0.42237614075360286,-0.3971194447638418,-0.38808123826250607,-0.4117678007892362,-0.4371764467454334,-0.4389726886635318,-0.4170275725007777,-0.3774358537322896,-0.34650207279151135,-0.34485145393067845,-0.35124321852166845,-0.3413428885782572,-0.29402327846580256,-0.210338610075865,-0.11566810386629255,-0.06467994130151515,-0.07850773222289278,-0.13238371285610906,-0.1814839049943529,-0.17882896251017105,-0.11459159973597251,-0.019991990684670894,0.048610526863722525,0.0678501929618199,0.045298045576932185,0.014209542680646526,0.007794346093183224,0.03912161583841682,0.1058680957085498,0.18230440577135223,0.25370824920318286,0.3247281727679606,0.3989873406199457,0.47224304817014784,0.5346013048886369,0.5662740234344874,0.572795313148818,0.559364058206569,0.5314965453455861,0.5014327118599815,0.49038625408076714,0.501793650373842,0.5327907135824272,0.5468318059932428,0.5311608090908387,0.507280850045637,0.5189415664496234,0.5618090999694615,0.6071161811028881,0.6374797873682954,0.6461494431020077,0.6412073392805663,0.6275960612627571,0.6123153245884766,0.603469828865546,0.5937948220626992,0.5543542721359828,0.4755799247476459,0.3715360734607932,0.2867860105433367,0.2509107127604423,0.2592922102405842,0.2760378227667572,0.2954684800364936,0.30708205673098116,0.2906080818366755,0.22007416482123046,0.08297265199547513,-0.07427410819774533,-0.19494001636837127,-0.25724974297399156,-0.2670948430776565,-0.2507956733256052,-0.23292756822012944,-0.23092405773095342,-0.2530714211568874,-0.2838020755824806,-0.30675230645915663,-0.310254203176855,-0.3005557627379859,-0.31930661572696944,-0.40441088268188646,-0.5289626940245183,-0.5679797330460242,-0.5628992004000487,-0.5570335981832374,-0.529471167955232,-0.4871095948556834,-0.4467079555530702,-0.4207987437109868,-0.3907496232098764,-0.3476545717764465,-0.2806845227576105,-0.2026909394361413,-0.14336356774348297,-0.1169211820558628,-0.12145533425824359,-0.1537169614055758,-0.19106300371397603,-0.21039828089122736,-0.2055372369793022,-0.17902330807907207,-0.14983454338013252,-0.13608880617046337,-0.14923024894569784,-0.17237563702251618,-0.17514278878340664,-0.14181208736992518,-0.07300508000250096,0.024720841944982,0.13776512818908423,0.25200140443285873,0.3512362777384379,0.4193879241103332,0.43703601047877294,0.407702850998073,0.3515726883742177,0.2898882216973733,0.24464484943531573,0.2215157125262049,0.2404958086172681,0.3138060291263777,0.437754726294406,0.5864217898403573,0.7034450852736321,0.7673120626503932,0.7939219339133338,0.7988659623916864,0.786988352855768,0.7551505527064613,0.7009331766209544,0.6257991119207746,0.5519071361382629,0.4964511664113618,0.46370621264658785,0.42768756518369405,0.3675406949236616,0.28603224341968253,0.20457163553691926,0.123849646530252,0.02597500152868964,-0.09273111687425106,-0.2178966670030995,-0.320000076885401,-0.39204385922254087,-0.43795403291314716,-0.45054898846024233,-0.40996939432683704,-0.32014183402896124,-0.21558472107203336,-0.14900592012240918,-0.1450121435641363,-0.18410938030398494,-0.24446743266430143,-0.3098858864865157,-0.3922579226758904,-0.47997412994872923,-0.5487679598728098,-0.5562467988073572,-0.5135238718717995,-0.48616967501066527,-0.5057383785930548,-0.5573080843650567,-0.6118622268202699,-0.6498823533873119,-0.6622200517090951,-0.6395116220262526,-0.5706526264106396,-0.46468679418767656,-0.32684660555722983,-0.20954995509021665,-0.14991676597639023,-0.12803330513318595,-0.11995977885054988,-0.1312019447764396,-0.16748333412602012,-0.2137756591930855,-0.25126360910518547,-0.2762203820232254,-0.28335807135395885,-0.26656665962224213,-0.2258841827654106,-0.1750456429325984,-0.11394706695512627,-0.043488808205288075,0.04106041169751317,0.143888257668384,0.26377849184061386,0.3740146176259216,0.43233520347664695,0.4581033719775404,0.4893583260748344,0.5449749201726073,0.60297807606266,0.6328431151785279,0.6257889067686839,0.6093911747087323,0.5967183874845021,0.6034707952049503,0.6259871927399446,0.6658224152067042,0.715686342805428,0.7724805665733264,0.8322443027385021,0.8832251899181726,0.9148816723972663,0.9185468276022283,0.8998908907797822,0.8733504429946003,0.8497133785500586,0.8309802457418813,0.8076268612448565,0.7719971155736932,0.7277497666154883,0.6772945468122978,0.6003079541917579,0.48205898839612477,0.3457898948737517,0.2316766054674257,0.1503996982009877,0.09953798709052901,0.06232373304004916,0.01569020878493911,-0.0550869571112394,-0.15132397196312064,-0.25814378788807313,-0.37537792142426285,-0.4889792779891191,-0.5919192520566604,-0.6862443342980974,-0.76662138121156,-0.8103856172499554,-0.7899012731210419,-0.6330888308225872,-0.2326812082274509,0.09979961742745289,0.04125717479320789,-0.3021065266186579,-0.5782856102320767,-0.7381133993880822,-0.8275341765439825,-0.8525304952812914,-0.8557516757826052,-0.8504699581882562,-0.8231197112472033,-0.7229801948644198,-0.4554242505846198,-0.09546923787184386,0.11294059234882044,0.17683643035961708,0.1457752161213566,0.05743732538130435,-0.04897247292685156,-0.1674407152223898,-0.313825219674941,-0.46376897276739504,-0.5728907672277724,-0.6164743164659404,-0.6078012588471248,-0.5671541665748431,-0.48887996710056403,-0.3827034598669457,-0.2680352191685274,-0.1652090484802611,-0.08998139138445718,-0.035455613946795604,0.007297130542476131,0.04807853169472402,0.08502341529305683,0.12408124877346359,0.17731008058672293,0.25149729515023195,0.3423064506834638,0.4333580483401673,0.5103196296100384,0.5792538679936765,0.6380852272079165,0.6710581964582619,0.6720329694792404,0.6565977368948528,0.6431297455757257,0.6370095270408793,0.6390030022064376,0.6452190506750739,0.6361342019113901,0.6253200676992601,0.6324473885166345,0.6766404774828851,0.7442577328605796,0.791405004115672,0.8012719832754513,0.7728369131067427,0.719760287745279,0.6538335904224396,0.5794582652594654,0.49990443128173606,0.4218931211704214,0.3402759930576657,0.2566741224361105,0.18415915613559358,0.11901279489553553,0.04149947203087794,-0.040844834361524744,-0.09165047650552488,-0.0996889951507794,-0.08915088112412874,-0.09212250444053062,-0.12719914727286935,-0.19691813665334917,-0.2784707622453033,-0.34469152075058707,-0.41436046460981085,-0.5120384800178096,-0.6223413686068807,-0.6691096723304852,-0.6482666636319775,-0.6274601417656603,-0.6279017859110804,-0.6317470628097858,-0.6194872891425256,-0.579905449155459,-0.532671040252279,-0.5067811855839948,-0.5147752088242473,-0.56119204872022,-0.6369419253602094,-0.6667085892764308,-0.611736182638116,-0.5513398599338164,-0.5313109497681728,-0.5276030776144924,-0.5062697217365514,-0.4511935350004601,-0.37281539266493413,-0.28539301196030364,-0.19721220203659828,-0.112903344611544,-0.036988246424368335,0.026265254165174005,0.0798643135600968,0.12737354527386607,0.17856365801875848,0.23600781494490178,0.3029195953107502,0.36374984619522094,0.4161074568085971,0.4617687916329463,0.5008726779017214,0.533777516051272,0.5491528968304615,0.542447596339491,0.5224487610848618,0.4965784565186758,0.4630794355311459,0.4415939236256785,0.4263390983985003,0.41778374172277866,0.41896621442440163,0.4854269540373243,0.6632250931653166,0.8403871943463688,0.860603752079428,0.8038979641501024,0.7676495350208176,0.7754798762937223,0.8134790642214874,0.851828203105308,0.8710957086328998,0.8769156056162842,0.8793831355384594,0.8729222765567964,0.8502483046625188,0.8083759725888364,0.7451442833383718,0.65578042035697,0.5335800620949106,0.3960621861626947,0.27105312047581004,0.16857144007992514,0.1198190748381612,0.10743225814886685,0.10163132933959482,0.08587768062328238,0.06411343130247343,0.03532676074565538,0.005891695280986344,-0.019136306989323067,-0.04772030653994887,-0.08654571115511896,-0.1557389694729862,-0.2681409897512582,-0.3890431748991775,-0.4994272591692063,-0.5954777387226942,-0.67475767155531,-0.7230252906728534,-0.7311117344181464,-0.6935235550880862,-0.6181657041161182,-0.5292885873316993,-0.48992731214928587,-0.503022868056663,-0.5431562734964664,-0.5880201094849998,-0.6216769807040712,-0.6404212706972212,-0.6174095172126624,-0.5124954661068428,-0.365166869800015,-0.24611295495062105,-0.16928675101214563,-0.11901832328584591,-0.09174290405011837,-0.09767201865261178,-0.1403411499281652,-0.22345709870430835,-0.332981763996374,-0.4266841009508757,-0.4878430855283218,-0.511045276459943,-0.4844179842657734,-0.40180385506877714,-0.26620171965167205,-0.12359555747377042,-0.026607611980309753,0.007842943132478804,0.021938354167412816,0.05273818137218191,0.13121670392716653,0.23228899963522942,0.31370404938733243,0.3500964594645098,0.34793965993476056,0.31629850465025305,0.2767692810206442,0.261303748584125,0.2989970031607443,0.3717834268895617,0.4429661400027339,0.48672995980940875,0.5100002401251646,0.5238654402339127,0.5266522584696508,0.5045359193828526,0.4515357597006816,0.401781906172036,0.3961609892961835,0.47076886653551553,0.595125159107366,0.7124245279257789,0.7727792886410242,0.7826024205409696,0.7754087204611041,0.7753061870890203,0.7730409746402674,0.7361006281550503,0.6424027326625399,0.5203122796363897,0.4245600924798541,0.3614596768297837,0.30759030136529614,0.24935328687599756,0.19014511807678286,0.14359293594963612,0.1488858211887619,0.2088017080919438,0.28191547614457685,0.340475719570786,0.35272031655663577,0.2905444357570436,0.15241122985565786,-0.0166954279991874,-0.16912719588547898,-0.29510909812179603,-0.3837755118452094,-0.44383292830740634,-0.468369034001671,-0.47902942045106484,-0.5023524179666732,-0.5438228903585358,-0.5829423387381268,-0.6166639302809409,-0.6400461499621316,-0.648477362056071,-0.6208894572507637,-0.5403669226874745,-0.4141769757763069,-0.26937793160796114,-0.144103996104826,-0.05876663444615203,-0.0255795017559159,-0.02930641300277156,-0.03977721946703958,-0.03816747508174093,-0.05656966248156229,-0.10883778232377272,-0.16874398940020252,-0.22275588350535358,-0.2646580020770766,-0.31096423772795934,-0.3582481279279374,-0.39228884166773886,-0.3930093367111954,-0.3387988783163519,-0.22325977534630057,-0.07396517580548867,0.07900239331336203,0.22181342106561952,0.34904820809047366,0.45196432031923023,0.5246271946471203,0.563033628776134,0.5680467046162886,0.5554245144650813,0.5576010938149406,0.592368328854661,0.6540291535206861,0.7035925074382077,0.7146723506243154,0.6922244865978612,0.6626206204939417,0.6642134322594525,0.7078217865873845,0.7664430656569429,0.7930272296606746,0.7574733217433769,0.7033140102392043,0.6894353340997171,0.707173165917627,0.7280791321065534,0.7380041090215326,0.7361273746248785,0.7228186698732434,0.6937096495746264,0.6432770940792893,0.584971741416345,0.5201011903920715,0.43331258172436266,0.3307811124612019,0.2666116915999095,0.26612576602537596,0.2928310213713444,0.2914481265240851,0.24378557646084548,0.17411142367207386,0.09883378266875958,-0.005343874701796069,-0.17653170672562013,-0.39408045949754295,-0.5603706962259438,-0.645990421125066,-0.6792477394938906,-0.6934811206668193,-0.7088800758244297,-0.7334480655900995,-0.7591517356079144,-0.7745974166578353,-0.7794959843590986,-0.7868707889758954,-0.8069795143994682,-0.8277805740537741,-0.8369456125398963,-0.8477202555891082,-0.8625380116011048,-0.8735659279958847,-0.8673667918728671,-0.8331060372827067,-0.7607822597551402,-0.6598895241267594,-0.5538477515489627,-0.4690005371365362,-0.4280667158092098,-0.41417975371845367,-0.421151090615118,-0.4714619399287936,-0.5685936074444125,-0.6724635911459294,-0.7331870266671833,-0.7474194892622137,-0.7286579162150767,-0.6876806775041773,-0.6288787120388717,-0.5600242603671083,-0.4681001726920287,-0.32079817971276364,-0.09467244990862603,0.15704411946167604,0.3322286409633667,0.4255204186558951,0.4712101897270254,0.4938439086981077,0.5031629213920726,0.5078038512027173,0.5185311253448978,0.5575488173555211,0.6316169628323732,0.7194385172127199,0.7949264403814277,0.8359415529778441,0.8446547338270187,0.82876416183874,0.8023963590324821,0.791432319857762,0.8025243390737848,0.8214425154103923,0.8401358456308164,0.8558645305205018,0.8602897635725237,0.8530309470137196,0.8442732325454471,0.8417904045195223,0.8343419237503568,0.8094704005045276,0.7498283194113782,0.6426154996796428,0.5110025824074615,0.4251537541591765,0.4197955224850137,0.4690596262424013,0.5364989005941412,0.5907876199917474,0.6093654165100414,0.5895257997252704,0.5489798873325709,0.49959857615739794,0.4564078841353646,0.42856286697700724,0.4044130789519034,0.34955447168412246,0.24656759006701887,0.13011923989808546,0.03310900907709011,-0.03951083478559506,-0.1013043375967589,-0.15786732163378633,-0.20767331202830291,-0.2430721626616614,-0.2823485051833775,-0.3567934918222534,-0.4702332416381557,-0.5723208069747209,-0.6432042108782401,-0.6946364982548411,-0.7403633409717829,-0.7810425736657332,-0.8064153582893134,-0.7957472988659868,-0.7167323617644804,-0.5701051205695683,-0.4144203438437863,-0.2937556459682334,-0.23157533875883876,-0.22059366392499397,-0.25495496951803437,-0.35830311658513164,-0.529124128225477,-0.6896145010787406,-0.7671124424206419,-0.7838299366105139,-0.7738991332952344,-0.7356209086548496,-0.6697823514596147,-0.5808764913856105,-0.4491760583251232,-0.2496145117093086,-0.010039639137165874,0.18215498811448264,0.29679181459637155,0.34638624378164773,0.3463920011771332,0.3057307515289671,0.2440334922987868,0.1896919493923271,0.17793018839422436,0.21853232759677851,0.28998928207149816,0.3705377255273557,0.4580032283861909,0.5631652227949818,0.6562579410326641,0.6979725661936739,0.7121578726963144,0.7362037986357802,0.7699517962322963,0.7950554455178833,0.8043765696186033,0.8108756934199768,0.8265762624703551,0.8439054637137373,0.8556885802705119,0.85937908884796,0.8516277513847192,0.8220916231716144,0.7699819546998248,0.6935092406899659,0.6042566958009709,0.5113972070726579,0.41781509669189915,0.3365140718177226,0.2523423602333167,0.14117422045000835,0.001998845549675261,-0.12540521524731488,-0.21446844488025732,-0.2787916833400934,-0.34948661390736924,-0.4194209369957619,-0.47238227820337936,-0.5043433353307474,-0.5233296604939552,-0.526953398941494,-0.5242662962774662,-0.48227903499590724,-0.39052921301539917,-0.3435242448763164,-0.38878579412524716,-0.48731683313413554,-0.6035984682693069,-0.7036637713196618,-0.770238902394743,-0.7793687077567805,-0.76311837383169,-0.7544050805783244,-0.7582744606044011,-0.7632497544455582,-0.7552363965263238,-0.7172018041983874,-0.6261786545980619,-0.5093241277947167,-0.42711243205446336,-0.38767150565629777,-0.36803535820336775,-0.3478601506697394,-0.3370291198284569,-0.35308880947044047,-0.3973336849035039,-0.43812649056588443,-0.45215632804223976,-0.4228210392438296,-0.3491780151498925,-0.24621046513117983,-0.14014427016697695,-0.05257086455607832,0.017243716810946524,0.05900116789122424,0.07438833873914065,0.0860529970721665,0.13760742019462457,0.24314114713791588,0.33940853794450637,0.3983510187794171,0.42321891312079746,0.4324927937840238,0.44860127532638194,0.4879052330215603,0.5728720906709382,0.6965235176538992,0.8030994272653696,0.8588156100049735,0.864789143516619,0.8501632347257797,0.8456065325142844,0.8532389347873995,0.8675106705880603,0.8820138580034695,0.8863100942930033,0.8730519110546281,0.846616113965765,0.812030945697529,0.7839489699928475,0.766611288369612,0.7505224991195673,0.7076262777589098,0.6005526810112398,0.43993488079492293,0.2784602775663001,0.16967705780565076,0.14810414261431323,0.22706901069420504,0.3925604812170403,0.5130761498400276,0.4946742506536556,0.3998768925459589,0.2772399075394561,0.1427492495649667,0.025569257847722612,-0.046303724642893,-0.0760757911678796,-0.08606876442580842,-0.09272433570518619,-0.09320575522244734,-0.05205917002538615,0.08568186591840658,0.26156892254039166,0.2821397780908453,0.15238292350944446,-0.0043237157674035935,-0.12966990543288606,-0.21531662711174232,-0.2865728414917893,-0.37456496620872765,-0.4881264655628568,-0.6180240826804533,-0.7263874871886172,-0.7558105031239511,-0.7117692846684207,-0.6224920407714022,-0.49477511114028766,-0.3284664759234456,-0.1633657547310326,-0.0427177091681196,0.027948084515986116,0.047445854993532904,0.005340589013523809,-0.09719020068620494,-0.22763613152490617,-0.3425135720830041,-0.4159806021082445,-0.4531448152586319,-0.47459220898919824,-0.4818556284237142,-0.46929860193180767,-0.4399676784184347,-0.4040981011178397,-0.36801792410891865,-0.32252359675157277,-0.24126560523093854,-0.1247760630321015,0.00909096026410403,0.14192649747926153,0.2561141431754573,0.34096482274230605,0.39619262073870015,0.41717787215345153,0.40735782509447227,0.37572403866097964,0.3297839450822216,0.2916440181152166,0.2859408142262299,0.32021883469953427,0.37986339313567746,0.44107084309143646,0.497819644413316,0.5477480321304837,0.6001918625150238,0.6456056722530542,0.6677086471617797,0.6803186238457812,0.6910070790992457,0.6934993901823049,0.6756638427280144,0.636575788347731,0.5729371604582152,0.4988619178925965,0.44218729456803824,0.42778175895475423,0.45259222561036494,0.4985669035390882,0.5416431082028351,0.5640139529396005,0.5422558629360705,0.47146038649259875,0.34892292969244426,0.18720964087719544,0.016514622793331695,-0.11760539270095142,-0.21378446164131693,-0.27622858333573724,-0.31825252695942846,-0.3572565711025137,-0.40857870802961893,-0.47224849291379295,-0.5456594885201462,-0.625090659334384,-0.7009147113055701,-0.7558170929266237,-0.7803672991522016,-0.7782694649989674,-0.7521606470599713,-0.7067277112897404,-0.6625616240867915,-0.6318577677075018,-0.6264223673479529,-0.6499892946165172,-0.6827657164057336,-0.6980656420485686,-0.6726330671395704,-0.5941609073757029,-0.4796009693384541,-0.35579143300132315,-0.247343652207021,-0.18279224911917133,-0.17547641571450343,-0.2075459800058324,-0.2699423538083752,-0.34524516507369507,-0.42639215057469393,-0.48599151053242656,-0.49984884137598035,-0.4565572577407338,-0.35744418349055995,-0.22787713895143358,-0.12505236975870468,-0.07050094015558474,-0.0354581985539419,0.01646575010438884,0.12746873730349145,0.2696259794651052,0.3974829818214747,0.4965308845347264,0.5728798507482258,0.6256404242918038,0.6694180220878184,0.7109381252413807,0.7535417282117448,0.7871161959294029,0.8188584059315642,0.840879391284087,0.841822372085856,0.8309600253363459,0.8181568431283495,0.8144377124510862,0.8153788134830956,0.8235289387872282,0.8415926292884222,0.8537456921426375,0.8532388090646975,0.860076537503446,0.8719416948720813,0.88368327731625,0.9005195921067621,0.9107837953530952,0.8962307982123825,0.8493379984940942,0.7660521859018573,0.643819664031621,0.5081025673296045,0.40608362655799446,0.3552484592690845,0.34337613476964196,0.35531001033451765,0.37233743842517125,0.37266960155092965,0.3313312622190647,0.24992276451790793,0.16227294668655853,0.09473268232628992,0.05097235233700579,0.016642897777697063,-0.02656992744558827,-0.09371245807536976,-0.2056195591837845,-0.38176768013981066,-0.6118162078705397,-0.7817683871893368,-0.8229490576043582,-0.7962157657029968,-0.7477260434588328,-0.6935390570374612,-0.6655856916290501,-0.6849588662749566,-0.7330784267691279,-0.7684550828665176,-0.7758997034431978,-0.7592546875510258,-0.7087323223406812,-0.6154885568668701,-0.5004687731616306,-0.36257106951925555,-0.21350643227602048,-0.06427306112782101,0.06794122816961698,0.1474246849270333,0.1532547052568152,0.08748752478623832,-0.04861039396158707,-0.22867857855164203,-0.3907180863293531,-0.4647290961686716,-0.4446469440931075,-0.36118153939484776,-0.2572417979987972,-0.1534046368372069,-0.062089056141615,0.01440573821554365,0.08040641648089436,0.13943823320295626,0.18631604194187612,0.21676028684357398,0.23491310689220835,0.25263010163529026,0.2745623799365831,0.30878753610142273,0.3462859122020073,0.3830140618617674,0.4169920884783034,0.4602919878555963,0.5146592570833299,0.5783599778271891,0.6294747365376266,0.6629871460334941,0.6970863654816786,0.7362385977651744,0.7768465951217735,0.8175620717728804,0.8437234527366002,0.8457649431605323,0.8278983071293207,0.8039003223858239,0.7792661869946166,0.7568976519137025,0.7345317077272606,0.7049937989110006,0.649756528060122,0.5486779090496394,0.3802521689664084,0.19624690870031325,0.09227682246122912,0.08321425914080083,0.12343266555469364,0.17702235077419023,0.21197618971405502,0.19347062282967978,0.11679916843526723,-0.0036734454815938833,-0.14655017853585914,-0.2998547832746414,-0.4407624358205572,-0.5580737841238066,-0.6516607995374833,-0.7203324148165784,-0.7750313332011071,-0.8193217862814794,-0.8596124194198048,-0.8820421873914899,-0.8734191533137181,-0.8444856313844118,-0.8154993050432601,-0.7963545992857524,-0.7933170865212015,-0.8022519520595288,-0.811714281571015,-0.8151680752146635,-0.8139867680362987,-0.8086030271078474,-0.7940217010660617,-0.764054950850909,-0.7008768472089711,-0.5920971710322185,-0.45552130534691365,-0.3032957733947121,-0.16359971226269307,-0.07695251118695376,-0.04083604131677248,-0.03899990183335619,-0.062205634247601234,-0.09857378681434774,-0.15284391685208792,-0.21823022565527292,-0.2711724993730225,-0.2797248088561193,-0.2148908750788074,-0.07469820693590815,0.09828091815286,0.23150458506562677,0.3074307112194508,0.3520365511827535,0.39177374126921755,0.441417987819509,0.48096973361223994,0.500724535080368,0.5076455639720139,0.5190601106126775,0.539252094240384,0.5824463857334264,0.6437361019945731,0.6779458131689148,0.6416898046929856,0.5680247808086379,0.5121631917045187,0.490091708560058,0.49916003971719863,0.5401260179569403,0.6045941132264453,0.6647575054232993,0.6972585755077036,0.7105474213788113,0.7015274553514247,0.6684145613889073,0.6414041376985556,0.6365152761790789,0.656889157643363,0.6900012787009815,0.7135603579069315,0.6972305888033282,0.6226134390910687,0.495180245636145,0.34543429439987977,0.21085974821309594,0.1184008489828725,0.06798716252151017,0.033353963780129336,0.0009181844778287401,-0.04026817412823135,-0.07886539165356654,-0.0935999169832869,-0.08303570355250581,-0.07783955457275245,-0.11327039889384294,-0.19268623877147964,-0.2924876725099567,-0.3921930668383896,-0.4925575308172132,-0.5769349398987188,-0.6277677059321137,-0.6242679757979867,-0.5909725172202689,-0.5618455175830199,-0.5553834645007615,-0.5628481792234952,-0.5652717610281076,-0.5516796612487803,-0.512491561771639,-0.43736160360275356,-0.32979113733898247,-0.23343820321852413,-0.20001297710073906,-0.2183753351814599,-0.25894119264188514,-0.28939736544466077,-0.29413492547973097,-0.2881973274545077,-0.2794006603252277,-0.28816364880880074,-0.32955799288491033,-0.3633974658659459,-0.36185611617624486,-0.350686641456475,-0.3501612839393308,-0.35339809731212457,-0.3237149041915476,-0.26308454874942094,-0.18788312795829892,-0.09167911548873331,0.0030189195239415526,0.06000727437555634,0.09561402740190793,0.12841349371103677,0.17154311425483915,0.21111526813316991,0.24596191693457684,0.2803531039163572,0.33125283942018824,0.41409867321196203,0.526906046188967,0.6240658371790179,0.695636620967593,0.7427287412538232,0.7676058130394003,0.7801996164062154,0.7720666191293682,0.758204702728414,0.7436991312470637,0.741006124187768,0.740851073985359,0.7329897947689133,0.7205894044967623,0.713112191668407,0.7120131637964596,0.7131215644218057,0.7001251388449563,0.6612842773318053,0.6020614268705615,0.5536042144151829,0.5251403631657401,0.5148153222100564,0.5153312473628364,0.52705169791755,0.5461084169203666,0.5498941251503374,0.5017119639318554,0.3718624856138652,0.20009597618683014,0.06177614403803306,-0.009605710777650949,-0.03763399560075284,-0.058672207171787456,-0.1088962478486437,-0.1733074132986939,-0.23518152133175366,-0.29211745059194677,-0.3527879771121718,-0.41796173643759754,-0.4808171901623145,-0.5544534811888164,-0.6359687740862717,-0.709299565567007,-0.7624374767881374,-0.7620162507261652,-0.6149610219869922,-0.3190816631805833,-0.1459124332676966,-0.1698829660710031,-0.27275188086316565,-0.3507093170714498,-0.37306042376881615,-0.3603238401327303,-0.3442900384199885,-0.3271332204010793,-0.3093040110861545,-0.2994289469111653,-0.28882475936473634,-0.2770408047027926,-0.27375539566092455,-0.2951793023744042,-0.3509011468719327,-0.41874775219713206,-0.47252458766850447,-0.5079072052914009,-0.5303990614402335,-0.529986419299127,-0.5039833591655988,-0.46618468952627373,-0.42613220700576915,-0.38528009409183095,-0.33829614275247205,-0.27350859301344443,-0.17087608994991957,-0.019500124221548648,0.14892047475447936,0.29249172319187317,0.3830591551641791,0.425787584978794,0.44282749975875996,0.45017751641729264,0.46947975333883313,0.521063946182873,0.6058702632659204,0.6972751740584278,0.7603764955822537,0.7895743729785846,0.798937195619888,0.8010288830329816,0.8045486391042749,0.8143317890077038,0.8350746631839504,0.8674495695732405,0.8933102154500787,0.8990615509763513,0.8953311299852953,0.8947276709424965,0.8985386628152532,0.8878768385271562,0.8403357092129655,0.7489801554866663,0.6176625626794521,0.47399484445008316,0.34696512749956865,0.24143168917793176,0.1346314011159936,0.027093523709359163,-0.06881371497142624,-0.1657641886622207,-0.26390743753988166,-0.36098066387164734,-0.44647648744941476,-0.4837326029239605,-0.4565536474175105,-0.3651681395128523,-0.2303322877328957,-0.1000485826653196,-0.039228517212633755,-0.08053319110707265,-0.21020885250593915,-0.384938402064865,-0.551557398078881,-0.6728563038188929,-0.7391450847900156,-0.7438065689715512,-0.634902345191869,-0.5013235169597207,-0.43639722404529396,-0.43399196225058234,-0.46909180473183576,-0.5152477421375885,-0.506697512052324,-0.38823404623518126,-0.21279680181831584,-0.08839582067386517,-0.020195044270426333,0.014604337958909919,0.018524513611919577,-0.00573290325796163,-0.08303300961008,-0.2215601195236295,-0.3963391066997663,-0.5192309628818575,-0.5532502592956917,-0.5079993177345924,-0.39626466369731145,-0.24661984645513074,-0.09865901970548699,0.024690041601116562,0.10670509164334104,0.14215337224942212,0.14635852428765,0.1390065722081327,0.15334056336931096,0.18739644515247586,0.23166394892703174,0.2934826758832062,0.3774962611001454,0.4871556995629719,0.6078570615015331,0.692709356433153,0.7229264492958911,0.7190025415763901,0.7071817134295406,0.6996744149365127,0.7022423991647236,0.7093852430568285,0.7264250704471786,0.7453013954490592,0.7608224984428545,0.7612664085287372,0.7388544394812199,0.71034200631859,0.7069367136717863,0.7225098289019171,0.7419349932500205,0.7598178526130626,0.7621457659848515,0.7379896799512734,0.6840148715343553,0.5637601441813878,0.3519404335642132,0.12778356239918376,-0.016606437338541145,-0.06407624123648455,-0.0370846679539095,0.03157772596930917,0.11811745374125791,0.1907996121272564,0.22300538630299038,0.19470767721001445,0.105559989143732,-0.03451558343796328,-0.19785935251514772,-0.34377771147529207,-0.4494271567176606,-0.5258534537485463,-0.5966228251638193,-0.6661174891360713,-0.7259265022975834,-0.7711031958590119,-0.8008502015166935,-0.8219600894259034,-0.8401965210325899,-0.8559207807970323,-0.8534661032555123,-0.8088445695930381,-0.6821442297657503,-0.4656795593196056,-0.2530977121239559,-0.17280540099255065,-0.20485305704660714,-0.2670194636357358,-0.2939687217037799,-0.26876306294413554,-0.2113810161726427,-0.15523127587692942,-0.10972044213488799,-0.07262899721408952,-0.0679060817174995,-0.13128923193856712,-0.26462430948377247,-0.38636336830257445,-0.48170946459510944,-0.5624853879626395,-0.6140331066564788,-0.5990962380153261,-0.5295118209686813,-0.4345136473920649,-0.3334603331228891,-0.2457176109082242,-0.18591381788753727,-0.15474552085248444,-0.1432403692687767,-0.13788848075950186,-0.14182425753572211,-0.17163713268300662,-0.21596937876055736,-0.22456373124080112,-0.14154427717929094,0.04897965126445458,0.2727936798892422,0.42110117971020755,0.49336678477627494,0.5210776089949962,0.542321069347077,0.5690007961185503,0.6121026775038616,0.6802265650682269,0.7578823234412546,0.8122620084896426,0.8178988264829835,0.8018764419780652,0.7990199006591074,0.8103075378691718,0.8199292932616641,0.8196377662315374,0.8006968196959561,0.7577871301770046,0.681933103258575,0.562548458510862,0.4173904076854772,0.3014699998558976,0.23788810510421232,0.19394738161782904,0.13890890283870463,0.06927476664706078,0.0410095397788078,0.08690832551914397,0.19455657244123764,0.3452077685619211,0.45215195381807716,0.41474186884856684,0.28996237696118027,0.19211267393976894,0.14103629441553722,0.11506299578487661,0.08856112098584522,0.035434223217573994,-0.05766553640572827,-0.17717185818598175,-0.2921380137182056,-0.36924941175493586,-0.4258496246091627,-0.4533616637075613,-0.42939413195120313,-0.4047809018109118,-0.4040568584601182,-0.4386757942574613,-0.5080567986369743,-0.5758995826564764,-0.613142876527923,-0.5921212549679156,-0.5027388609040006,-0.38857952219030845,-0.3180447394853072,-0.26870960521011517,-0.22053186336050354,-0.17916704608145187,-0.15787092098456798,-0.18283631585928384,-0.2875651439195799,-0.4332301097547468,-0.5245899285253468,-0.5464257718783428,-0.5259352317503383,-0.4770627791544609,-0.39978468591889355,-0.2761044321370646,-0.15668844174026705,-0.052693204417832075,0.04586822049127229,0.14585317153265231,0.23889496127192406,0.3260550377871335,0.41064246210742567,0.4861477119145849,0.5383364770119518,0.5814483495816402,0.6256055662777948,0.6612118633785107,0.685483639089029,0.7044617698692348,0.728387375936745,0.7625858152846523,0.7913459296787292,0.8031128626603916,0.7973651669228652,0.78649528787193,0.7877119088553747,0.7924501787421421,0.791519797637001,0.7761712609848833,0.7646487250710903,0.759831091345743,0.7486751499803668,0.7304966248815964,0.7135104646817277,0.7005742204806452,0.677427675066462,0.612609539365734,0.46466255224506753,0.25136821649024194,0.06973563631550447,-0.035907749235521806,-0.07627971897044877,-0.10342899596994602,-0.1394443926335883,-0.1609562774095002,-0.15509408419434162,-0.12061342065598708,-0.06964827901261163,-0.0333590936931358,-0.060349196365235294,-0.1962843353384683,-0.3905826522437934,-0.5409221035742321,-0.6278896232569016,-0.6507880093238368,-0.6090576096400672,-0.5050363436208661,-0.3732364974584477,-0.2757231061044872,-0.2305155332994484,-0.22016686964000404,-0.21905700692224772,-0.2215876807189999,-0.24410791217123953,-0.30555708515372554,-0.4094812464526195,-0.4660487591527736,-0.43394425222243505,-0.3728214341594976,-0.3146545203521334,-0.2680037860717039,-0.23302434961532234,-0.20969103066585945,-0.19322629093012914,-0.17961902588885098,-0.16946827290467528,-0.17197287072543893,-0.20540778880128285,-0.2813771610937025,-0.36474799504472427,-0.3910469822794849,-0.36657339565295255,-0.3426552098275258,-0.34807065055002595,-0.3869295267131594,-0.45049890287165223,-0.5087643744740187,-0.5104451074135442,-0.41687635718131577,-0.22628468101604546,-0.00026482028965329546,0.19083128418806622,0.32265545315311356,0.40730432809717737,0.4578750726574415,0.4854265290804718,0.5048221414423708,0.5164276491838274,0.5155875065737725,0.50844130038401,0.48540872831518683,0.4596151847782731,0.47327063681445897,0.5314786953070332,0.6010292044180665,0.6526717352626772,0.6903300153408249,0.7299010426595693,0.7816754404677226,0.8424140318885515,0.8847056657415695,0.8909025404833343,0.8759207376128042,0.8545083145070566,0.8300040675358605,0.7956458658731078,0.7256283009954397,0.5859335903175139,0.3799700870094336,0.21881838449903393,0.14980424067424786,0.14983799352015464,0.15261470969157845,0.09283365927721555,-0.0122706522226979,-0.07700675550892572,-0.07646055201016044,-0.028067485434873415,0.054347491961877686,0.15197081145538796,0.23452395973763937,0.24459531321636366,0.09092150005756303,-0.23137533085385178,-0.4783440061253492,-0.575065007831518,-0.5748307331852526,-0.5239505262143688,-0.44716228055263413,-0.3570823159891505,-0.2772530794940687,-0.2546557508710803,-0.3141630494438885,-0.42515515590383185,-0.5172123341355719,-0.5555298798107046,-0.5193421296773658,-0.39996450061229183,-0.25480957144900157,-0.1365682415104277,-0.04681124616643707,0.02610535851181378,0.07454373892970717,0.07307342803959783,0.008150060164671931,-0.1134256651572449,-0.26691478728505874,-0.41017295932164033,-0.49841118921006244,-0.5189120574687269,-0.4763015874838578,-0.37095059736532915,-0.1991485464992725,0.01971613997932119,0.20711644153445047,0.28634912980081795,0.2783481215974977,0.23731937956884228,0.18772504913932406,0.1407866184778234,0.10390736791718849,0.10139730609701794,0.16043256214754595,0.2795800731239867,0.4291171663387277,0.5591474769061727,0.644015631254186,0.6969218785839987,0.7288026299986917,0.7375767824467294,0.7308297483563146,0.7275275710654527,0.735888336344683,0.7468825495046109,0.7572110651431982,0.7670450991797289,0.7634666384844967,0.7337128959277404,0.6906965103567023,0.6498656840941652,0.6135948462012404,0.5715054412881514,0.5235090367047421,0.4768242686095621,0.44575856453386764,0.42716505958833045,0.401052758874107,0.31239644337689937,0.16017585022482128,0.031792852084809115,0.0004815306973467346,0.04921577353579683,0.13023175899613548,0.184428851009019,0.1749534742943612,0.10482533653944656,-0.0011528909456401933,-0.1054022642441121,-0.1896563212114898,-0.26892997955908216,-0.34358996456073654,-0.40566152782274395,-0.4569286417604872,-0.507958956253495,-0.5656178428281455,-0.6276812187862219,-0.6772553207515368,-0.7017134497527046,-0.7030958610622287,-0.6873266611236242,-0.6527062003842953,-0.6306183420523057,-0.657234571714187,-0.7127491528447745,-0.7509512685616465,-0.7609794810127986,-0.7514789725795539,-0.7143568257027095,-0.6354037543544081,-0.5013592855044652,-0.32025686323821617,-0.12564982363460087,0.03338870495488308,0.12036027256826672,0.1311811878261222,0.07361285311050125,-0.04106554521858772,-0.17698506639285352,-0.2825936158209774,-0.3223393708950534,-0.3146894140466806,-0.28459823358954517,-0.246340775460788,-0.18390450823487559,-0.09804535592848126,-0.017257533965215694,0.045637998351140775,0.0914744309424159,0.14752229591546265,0.2335176979859044,0.36916910807632425,0.50319369450361,0.5823656186213153,0.6165810064899255,0.6272090814373916,0.622726499143957,0.6036293731596394,0.5647804399297881,0.5177992400121544,0.4968919636028307,0.5288083547736864,0.582367232519847,0.6194582739377203,0.6414239460577764,0.6446791612731886,0.6492950653484645,0.6715834692527647,0.7146451837058758,0.7498864165643564,0.7475383692536125,0.7145677927278228,0.6821259002930007,0.661371348564232,0.656434729494105,0.6739131667361499,0.7106505566660533,0.7401838179545224,0.7333050473568311,0.6648365602273337,0.5360266305112948,0.3693172343966821,0.19855329942637231,0.04665947010004989,-0.08991144747573106,-0.21267046148783625,-0.30460084928227227,-0.34912730969115985,-0.3061802925293336,-0.11719671530168037,0.23668012607039188,0.5357430017778173,0.6248153264032681,0.5279431901467024,0.2490932746499423,-0.0907496333190845,-0.295857171636426,-0.39472890823271023,-0.4406662838861223,-0.46714977925996176,-0.5069935654389728,-0.5744937403719669,-0.6554553417695264,-0.7228719287988296,-0.7705703044463993,-0.8056974447422717,-0.8297038262417876,-0.8348949524704227,-0.7976151704178591,-0.6677219977070021,-0.42909946239689284,-0.2419242220864643,-0.15339792075238262,-0.1253139498493655,-0.12719449821740292,-0.145524340855175,-0.20126955666523805,-0.3246953117802964,-0.46569916435529923,-0.5390549862064811,-0.5562130505151281,-0.5556702555941302,-0.5390204111366734,-0.49390091006330067,-0.4136219171442595,-0.3323707906041113,-0.28595969423015644,-0.2793300182953756,-0.2803765167750061,-0.2489550510189854,-0.17456850524567905,-0.07662333174521287,0.01691901206577486,0.06775907177067134,0.0613553733957273,0.004972672235740865,-0.05293532261284305,-0.034979335166530984,0.07559314530412205,0.2129851595176305,0.32502035972242366,0.42613033045646026,0.5356735595317094,0.6504586041118352,0.7492427796310103,0.8142723248160634,0.8413856602942303,0.8369374841721055,0.8065784408283622,0.7669135184529764,0.7456412971918797,0.7520626980593409,0.7750496159821325,0.8008674403794258,0.8189593522748557,0.8230854941220452,0.8114410823610366,0.7763240221130251,0.7089085829777858,0.6266337480173676,0.5691343218153999,0.5529271782876467,0.5596682582079222,0.55637339361346,0.511434874013583,0.41104417222456685,0.27731071525668743,0.147440351485796,0.04983157433642116,-0.021936010125616995,-0.08580496347234003,-0.15374908643782276,-0.23580433733881961,-0.2976885823155799,-0.3053503616946215,-0.2437721656901513,-0.07484358413186949,0.23987076963597295,0.5462276886199262,0.6741819256420146,0.6044883670357449,0.3560549919807543,-0.02657309979480728,-0.34611154110634534,-0.5066287498844665,-0.587546469671393,-0.6382951228751595,-0.6812400738406502,-0.7109568296798081,-0.718703559858718,-0.7013203947849586,-0.6491191793949013,-0.5765068882723251,-0.5219002124676735,-0.48505962971697264,-0.45123756519589847,-0.42741301331516596,-0.4284967529441967,-0.459575447327259,-0.5141370656638579,-0.5657243663632415,-0.5812874036401645,-0.540243740577338,-0.4337920775499086,-0.2870979328453561,-0.1497956954452149,-0.06983201485351537,-0.053485783215757754,-0.062337956124385814,-0.06456313243730291,-0.05230170150011288,-0.040621262853293066,-0.03713139449907947,-0.027696491485467066,-0.0005955680145066845,0.05087779317395808,0.12641127551404627,0.2135997855916383,0.2882864610911795,0.3508693515355713,0.408645067243471,0.485520265327919,0.5988645021854059,0.7271921265116713,0.8185439592555471,0.8540419057342354,0.8539596254937886,0.8452324075265755,0.8515730414174298,0.8703492554334312,0.8822437702444285,0.8858169083422864,0.8861022049598046,0.8863183997520221,0.8813527971681681,0.8583155150172328,0.7780185710860364,0.6008906301215083,0.3898242446808127,0.24919987297912205,0.18245714120094375,0.15753112854263882,0.1356956395907392,0.08507671372249005,0.015566534125697074,-0.04202045099379658,-0.07068704519640263,-0.06565650979178587,-0.045888419004291914,-0.041263516244479305,-0.0670592805948326,-0.1243257914466708,-0.19872068793592565,-0.2595623733251932,-0.2723824142572237,-0.23993549780715262,-0.1981512648793177,-0.18322819935642096,-0.20618475735827435,-0.27172930953141966,-0.3328072741709871,-0.3682025565111669,-0.40284150601381746,-0.47929549335425,-0.5833937547433923,-0.6670858354054361,-0.705779779821991,-0.7170155862806961,-0.7068886683493542,-0.6729876300115213,-0.5969543804995319,-0.49270136304291445,-0.36878946071486735,-0.25273968578504313,-0.16426927826122634,-0.11148900868019841,-0.10749552450941291,-0.17511416141575017,-0.32364047819095265,-0.5028326629921483,-0.6338134828799257,-0.6925945829603731,-0.6974210263517029,-0.6687426248983025,-0.6110325937726846,-0.5372556692635914,-0.46257771167597045,-0.37312675858140515,-0.2757971614509015,-0.18725624823639855,-0.09144168844888326,0.032301341752917906,0.18457429157880598,0.33048806576181394,0.45305808914495627,0.5487812758053158,0.6205627867061198,0.6653236030376426,0.6859929795359606,0.6942883152270317,0.6966446726980847,0.69566697770497,0.6786938804356147,0.6398263281591307,0.6146599625806036,0.6276230180858503,0.6665615966238579,0.7111715390849792,0.7384454869310069,0.7458578204901231,0.7366898902192844,0.718752775059723,0.6959236461775605,0.6606438103104216,0.5776156546707922,0.42332690555925795,0.2919835360752628,0.25578652512087974,0.2944268840691664,0.3555775766591096,0.4187656926524418,0.473756389130632,0.5003248311321539,0.43576110379025657,0.33453130387593616,0.25627278696540357,0.19621476720666506,0.14439861155452954,0.09809176046459882,0.05070439213454974,0.002697094329435212,-0.05610545985470625,-0.1370726843357474,-0.2339531420010367,-0.3468263500312469,-0.45741477346439585,-0.5477818357024183,-0.6128513000930356,-0.6659879497556637,-0.7036058684716336,-0.7207239487385929,-0.7202124013318966,-0.7256707735126444,-0.7483725817793111,-0.7675277868090776,-0.7663922435430376,-0.7269515775404917,-0.6530902916897822,-0.5698065730032392,-0.4798162967999701,-0.362322314005141,-0.22600048454377483,-0.11463812104085906,-0.04054541919883312,-0.004660922999866936,-0.00875535575921631,-0.0728555801532221,-0.1925166528331608,-0.32622849716979974,-0.4270455017918488,-0.48379507937203786,-0.4912821451918529,-0.45784441300626877,-0.4027996791180828,-0.3418862998213025,-0.29308674460266243,-0.28227135920991053,-0.28949002260819867,-0.27214183826407945,-0.1917377400477871,-0.0478170055323796,0.1247220847477056,0.2770884970557147,0.3857657702811232,0.45368418769823815,0.49376215529417583,0.5077840331853415,0.49957528174716576,0.490117195841709,0.4979657237254765,0.5225548402388192,0.5568513764011517,0.622902396511712,0.713198091742183,0.7923208900573705,0.8401407309196907,0.8661571599672442,0.8715055687082961,0.8571810255377363,0.8390554317332387,0.8323540304720006,0.8322058879610771,0.8297324923387384,0.82607178965288,0.8172655163036362,0.8011632272755811,0.7685424616066152,0.68995358788416,0.5215226648478232,0.3480724398863362,0.2734981577822292,0.27645235276282526,0.30045447847104734,0.31118963737567135,0.2915398332325324,0.23476527952821646,0.1515578214048136,0.06365152020719365,-0.02153576455378103,-0.09517420557920606,-0.14996168108041913,-0.19451487423325464,-0.2165388106086492,-0.2140626620961101,-0.19051972782822116,-0.16506385356218625,-0.15607301166814613,-0.17122402090922753,-0.20448996030588176,-0.22631037293043596,-0.2260995513426326,-0.2543215309936781,-0.329164482786138,-0.4510058822332296,-0.597702538536877,-0.683376047384361,-0.6860473991731344,-0.6597136611215891,-0.6109685519534115,-0.5252911488497787,-0.39066035932248233,-0.24190242113197175,-0.15262047725785965,-0.15076063434714157,-0.22018348104655974,-0.32036040210194566,-0.4321561987395541,-0.5287826064289655,-0.5906030329894708,-0.6187067882579962,-0.6226426428711613,-0.6042202036458761,-0.5512666206666353,-0.48002616777692747,-0.407827214730774,-0.34185252107873226,-0.2825560620054067,-0.24369698183796032,-0.21128347584884244,-0.16578068357143055,-0.1181031407636565,-0.07169241686031742,-0.004924547308640424,0.11919431731626384,0.28521081826839495,0.43032339255132585,0.5196684679701258,0.560330865536624,0.5770697939901498,0.5874346547801386,0.5961445723792581,0.5984070462855543,0.6009061228400913,0.6029737430907031,0.6080732506321914,0.6249055489228524,0.6606320070419841,0.7047355410735715,0.7252728159997129,0.7230833797194484,0.7273436795077214,0.7386342142166942,0.7545192792849839,0.773631287955916,0.8001879969838038,0.8278885412600084,0.8454590932371929,0.8332353437084844,0.7759652883217943,0.6649393518806787,0.5236256182024075,0.39146056856541234,0.318837430921092,0.3219744286668386,0.37111242655850907,0.42172568596590015,0.45529515088016415,0.4663575929565546,0.43113448569443874,0.35008185797825786,0.2246548200457169,0.06848771595987184,-0.09082680433313213,-0.2243835584322378,-0.3125835937936583,-0.3717544661940624,-0.42371771636645106,-0.4841083477158154,-0.5586088806325827,-0.6248390564286107,-0.645486602835898,-0.6396313057933815,-0.6505580902293868,-0.6667829283297146,-0.6757509073917238,-0.6940758165547386,-0.7103726477949815,-0.6959669259807895,-0.6410103293071536,-0.556595272990291,-0.46177826907447045,-0.3862674682095463,-0.342575811863835,-0.309968237305109,-0.27650817243756315,-0.2478257553606941,-0.23918626811480695,-0.25966357636126763,-0.3042212592994591,-0.3554490902292456,-0.38782437739305103,-0.38272828604840414,-0.34596490918888756,-0.3150210155190875,-0.3148251618431049,-0.3327626900600955,-0.34802743246922424,-0.33480455824069333,-0.2657874336266625,-0.11283580907675196,0.11868211180933455,0.34168445588975754,0.47443001796911183,0.5111045590900988,0.4716173460806398,0.3569240784357388,0.18661075906458505,0.03270811567497111,-0.04602973709071775,-0.04015201812683805,0.09613591393694781,0.4034972545301419,0.6727182689985015,0.787670345284674,0.834159398805803,0.8569780717036635,0.8678413868463645,0.8708287118927347,0.8653989691891789,0.8400507348098477,0.7991205331990459,0.7595780681493361,0.7358133341649643,0.7288364140624356,0.736158580478406,0.736704891228941,0.6806121501752056,0.46501997786826604,0.1408355318009999,-0.07791277017949856,-0.16296812881454262,-0.1674574144007242,-0.13375324543792538,-0.0959448745811465,-0.08215882466522652,-0.10197610195415754,-0.14073918897641707,-0.18508064850604447,-0.26563376606502187,-0.37463616575323644,-0.47437812325152484,-0.5338558012479567,-0.559639228314772,-0.5824674481147913,-0.6402670706829974,-0.735089865945773,-0.788241785080739,-0.6964493785169974,-0.5263318370600674,-0.34723832653684705,-0.18604128821891197,-0.08946359872089525,-0.0870460980791494,-0.1588670553076067,-0.2714171723211629,-0.3925538922303754,-0.49019983041146076,-0.55237943468645,-0.5370600918814661,-0.41774168623580643,-0.22831198807832875,-0.07631586950401407,-0.004875502005213062,0.01592578492720223,0.013695640301408473,-0.0002649414272455351,-0.05804888826708458,-0.18620234740522407,-0.34877518174051764,-0.48166626640201,-0.5645144358917256,-0.6041735329508725,-0.6006032650912896,-0.5697597237469737,-0.5429283048326717,-0.5412021672891317,-0.5430316017033867,-0.523618392098477,-0.4707181575744793,-0.37561367529651973,-0.25684194504701235,-0.1347242021291186,-0.0159814051317014,0.11787323287001794,0.2688841072598831,0.39629038815046547,0.476782424429633,0.5326622089670074,0.5801387641670708,0.6206817528145601,0.659900356727295,0.6923133777026669,0.720656293874218,0.745519851327089,0.7720477281396634,0.795422222704701,0.8202308334355468,0.846241275191026,0.8576864688941022,0.8421228723369972,0.8139606101041482,0.8057981403029011,0.8093612550984354,0.8158403441050699,0.8282863704130881,0.8462932866747347,0.8550299830690608,0.8271992208469074,0.7315992739805761,0.5869978561127479,0.4732503086018553,0.43227015975279687,0.43814622212093146,0.4520135515579294,0.44620664905608964,0.42488752334671775,0.3817229233850119,0.30807119890741025,0.19407923725937748,0.054777865394485994,-0.08968575115266894,-0.2219817592259768,-0.32404658956769783,-0.3790850140764081,-0.37948648613762676,-0.32599254560340213,-0.22743582345136143,-0.14811619969578646,-0.14606387291501394,-0.22906000697494408,-0.3365245831735564,-0.44204341939362835,-0.5575664150215952,-0.6428146045728598,-0.667708094835018,-0.6545313017281356,-0.6251489902795813,-0.5623021086104142,-0.460614816655879,-0.37129580644915167,-0.332450035149376,-0.35335098467172094,-0.4046416974337142,-0.4507416914876803,-0.46955199957740956,-0.4717625695194124,-0.48648066128045997,-0.5293482417511617,-0.6015967244219927,-0.6693425771822946,-0.7171980264005641,-0.706749418157272,-0.5637867446560554,-0.36491391505734155,-0.2288222090676661,-0.15744202640543073,-0.13001952295130512,-0.13222722999941494,-0.14739220314324902,-0.16097239507696498,-0.1457077945052847,-0.06778499846619968,0.09514117266796743,0.2918848459462414,0.4428311362576174,0.52104370160197,0.5340554410080897,0.4889191352442167,0.4348411786199624,0.41477298074599783,0.4582067086764098,0.5643880212504374,0.6844321868659066,0.7600288544683687,0.7789264315945367,0.7567200620583823,0.7157325196102879,0.6797527919003179,0.6687213244498812,0.684388190431646,0.7210749841131542,0.7613380536875134,0.7921531101655114,0.8135256622207996,0.8227806544737777,0.8173171549431661,0.7886996318422377,0.706941517893123,0.544718326565446,0.34409513535288805,0.16231363245303282,0.019619343634044138,-0.09341680732214651,-0.1642138968645386,-0.18567606454160424,-0.19597731358687337,-0.2181460751815229,-0.24407086166812766,-0.2619253429050277,-0.26654338352864687,-0.25640924147342287,-0.23900913085586037,-0.21748145549695536,-0.21071219417326234,-0.2338769196147749,-0.29662734912273064,-0.39998011482142765,-0.5415234432035226,-0.6622243122861504,-0.7227726261078015,-0.7227679751876759,-0.6738755082130914,-0.6088793985016462,-0.5491599167110289,-0.49149139543784953,-0.43031746640142243,-0.3802244412773461,-0.3329868524208371,-0.27551200148877286,-0.20531644753433317,-0.13633603603754524,-0.09357254222316976,-0.10293501053453477,-0.1481048894274712,-0.18386327639527245,-0.19511562097310653,-0.20587483183915875,-0.2511838513186748,-0.3448355697701907,-0.4609438274651706,-0.5463885720036953,-0.5676430914402046,-0.5406701749650308,-0.4903400711217189,-0.4397579515565373,-0.40312091846047793,-0.37207178466944857,-0.32787359809426825,-0.24042021063979652,-0.09120825785380647,0.09998214144808609,0.28329862731487726,0.41323403368030726,0.49528328379527975,0.5423956090930947,0.5609747683193348,0.5525388583083426,0.5265827707394971,0.48871677657111645,0.4381572852313143,0.3834604188278642,0.33772126227572763,0.3473248630670063,0.430891486769145,0.5358681195898222,0.6256596969600051,0.6831963227260145,0.7191795029404643,0.7282643315271039,0.7255976209709171,0.7393172714706,0.7561021055000786,0.7640254964490812,0.7702703970217862,0.7786964260775824,0.7815367446963386,0.7728365944255106,0.7575493831455821,0.7406583000351525,0.7154157166327018,0.6848836173387042,0.6487129189162384,0.6035722309963968,0.5337365623670927,0.42123776052065576,0.27334401368004857,0.12159632496472626,-0.005608774900632586,-0.10091458245203895,-0.16851631199784428,-0.21800407177399467,-0.25636455676582187,-0.2942162614053526,-0.32867607845858726,-0.35043660210346156,-0.36713745951038107,-0.3840699042226074,-0.3988802526002868,-0.41004060380201235,-0.4175718675869331,-0.4110608690777876,-0.39795991027831,-0.3944891982344241,-0.4149216838847755,-0.4513849609578019,-0.5215453419772756,-0.6107127367574282,-0.6946660850148731,-0.7521388058063482,-0.7584557852871772,-0.6779796541128322,-0.5177733269215165,-0.34560781687822617,-0.21616839701042243,-0.13560938099620354,-0.10781225081678315,-0.13951054363784507,-0.2190944801730002,-0.31841189092322886,-0.3974816054053158,-0.4480229912064222,-0.47789494332536736,-0.49348089797925865,-0.49076447971090126,-0.4744361507961218,-0.4297400870499134,-0.3521656457722075,-0.2578053221626711,-0.18107718654934343,-0.12223101026810075,-0.06359614364017538,0.006987017064707614,0.06126444088512212,0.09053205383004834,0.08723495203158149,0.06718344004427988,0.0664457528876233,0.09454833288265684,0.12420795656681054,0.11034654719683036
