-0.9859675902941628,-0.990208134325882,-0.9926784370721771,-0.9941973244460705,-0.9951384519272738,-0.9955045298050833,-0.9946763838647832,-0.990421333291563,-0.9761644812381967,-0.92888810794599,-0.7518050275162257,-0.18848596824090405,0.40108677125853526,0.6139802840265957,0.7000780345411413,0.784149116712854,0.8673258397423436,0.9140334955397383,0.9285678153961879,0.9295151807383241,0.9230232929861646,0.9045330971603036,0.8549498605229794,0.6925611837240453,0.1359043748498343,-0.5417471833136684,-0.7688576250587769,-0.8365333247789077,-0.8618850634043052,-0.8761595973858392,-0.8913248990911828,-0.9096344477401928,-0.9169700693395739,-0.8390306657711024,-0.45858241377184794,0.1875408961556666,0.6191976026364525,0.8200995566739531,0.9001601845843791,0.9237867998067181,0.925724939399408,0.922833578192441,0.9162115642493784,0.8994248330423353,0.8521657762094015,0.6935468525565623,0.1070710942613405,-0.6535959329728167,-0.8777508800323961,-0.9334451592292591,-0.9469903094287212,-0.9449368615844536,-0.9331428755477432,-0.9138154163734793,-0.888511851565798,-0.8670273870910897,-0.8688617672644123,-0.894258019875573,-0.9186428783174114,-0.9313627049275681,-0.9316314725454937,-0.9104222248065038,-0.8249027413222991,-0.5053703727412515,0.08324388070820408,0.39874912674178237,0.48260148835618333,0.46376019530098794,0.37049579854050996,0.18559951214676537,-0.09821758815104606,-0.3920765155577784,-0.5989648406182977,-0.7180863516521827,-0.7851500835098103,-0.8266534167910418,-0.8529046865183587,-0.8513302028813365,-0.8014395807045238,-0.5395395295520102,0.5232987090166141,0.8958007750459845,0.9449990957460833,0.9571612556116006,0.9625041712636693,0.966476469961584,0.9694754960604304,0.9709466533396136,0.9701467754815709,0.9657552781820743,0.9557377401592649,0.9357772665252968,0.8928015606846217,0.7677151184931567,0.28523008785336695,-0.4346930082076231,-0.6714688719000181,-0.702417360791999,-0.6465698171921996,-0.5148762841949258,-0.2913776263547254,0.005295581379157851,0.2654281283774042,0.3841349573842819,0.3234369240773058,0.03611389956803278,-0.40512344998344596,-0.6904586291767828,-0.7990957425458178,-0.8207991299413583,-0.7905219026838043,-0.7296221229293242,-0.6675229744861982,-0.6067916430331001,-0.5101006131327241,-0.29149638223127694,0.09918909218006562,0.44904729041581365,0.6149306676275162,0.6628128207698263,0.6402269719261016,0.5693824719859513,0.5026001140488963,0.5525893973107643,0.7153859888893871,0.8282878719133736,0.8662730440491356,0.8503194782396091,0.7475786967394146,0.48232108049488553,0.10002749106601634,-0.18039566074009647,-0.315756842988343,-0.36260271023786167,-0.35564798429386446,-0.3155151926444965,-0.2518009234027828,-0.17749020583231098,-0.13499640206034044,-0.19821457079377888,-0.4155386104409002,-0.6450574881178283,-0.7683042325676623,-0.8193747314713627,-0.8070980609124047,-0.7439487711864491,-0.6651386462246687,-0.5920085463318987,-0.5378119894159878,-0.5113569714958418,-0.5142352112303931,-0.544099923971609,-0.6000557384964676,-0.6724794471788741,-0.7473000300681979,-0.801140482475109,-0.8112843079550834,-0.7768148759581828,-0.7379860942358993,-0.7335061703650657,-0.7680618818660946,-0.8190562628230328,-0.8461829910351018,-0.7838214221582813,-0.5915416495839566,-0.37025062731405595,-0.24327777463074052,-0.21904950825206007,-0.2580481220693052,-0.33602545393768,-0.4335673424553495,-0.4836345344309304,-0.4276755253191738,-0.319951073771158,-0.23218758564551517,-0.19417987331260397,-0.2063676127270609,-0.25663037573702435,-0.323762178212096,-0.38671226917122536,-0.4310450343089862,-0.4381405730620719,-0.40267870599164385,-0.37069232257181634,-0.40671029077792936,-0.5217536093408788,-0.6483877835339892,-0.7447161592746329,-0.8105051669692838,-0.8518721290222336,-0.8690920991585682,-0.8636521372032857,-0.8372856032814388,-0.7839555415635269,-0.6405192828170853,-0.11737035695234517,0.6777104551299887,0.9077571490491828,0.9565772252060193,0.9713290819390178,0.9776710159666273,0.9805447109927187,0.9810285489954754,0.9783766202705375,0.9706922503680595,0.9564055792064454,0.9357109729302943,0.9078993994291782,0.8651353579688308,0.7858578828666108,0.583895047011583,0.11244515072319224,-0.305099178833015,-0.31156436464383114,0.20007458305155468,0.7990632303801039,0.9456156597528604,0.976206704216638,0.9862552745237587,0.9908354418357849,0.9926277065780704,0.9925756452219385,0.9912522327859189,0.9883421859170298,0.9807767508800566,0.9482557096513328,0.4631957373165363,-0.8454045586191197,-0.9461167080422391,-0.963880522357964,-0.9699113585129983,-0.974687131908328,-0.9797790230883211,-0.9812705697642162,-0.9699520911261185,-0.897549153403474,-0.35739206911433336,0.5984000751805072,0.8311559242929383,0.8993409545269427,0.9341724583804527,0.9478826037497173,0.9157808574922564,0.7792735173189094,0.4697717604821847,0.025124781825994296,-0.4050278175307081,-0.6944466208121859,-0.8486507081207227,-0.9205471759027478,-0.9511104880527099,-0.961478382626722,-0.9635593402377063,-0.9640960058625415,-0.963445517061395,-0.9597493970836963,-0.9537157042145342,-0.9507080787976953,-0.9562747800344206,-0.9691888935350315,-0.9827591362029117,-0.9909752421611087,-0.9934596932636167,-0.9923216877661711,-0.9880599554959785,-0.9759549381558084,-0.9140612615431256,0.25937040632492075,0.9458478744682652,0.9839682129524131,0.9921385653326686,0.9945747537270991,0.9942372731581217,0.9897261977249704,0.9734951629096922,0.9201412056428419,0.7630015932616581,0.4697657612244001,0.2419105426557121,0.2473840644060285,0.40879786611400054,0.5797473971978895,0.7012711834330383,0.7822809109040547,0.8371959259060917,0.8701217684109844,0.8826232337296323,0.8683517825173409,0.781324705861334,0.5246394484664704,0.1558014623016475,-0.14264642515348394,-0.348613021732765,-0.48317286454634084,-0.5675855295791609,-0.6253233211631134,-0.6683488290329807,-0.6943131446021648,-0.7063680295831465,-0.6977570303739313,-0.6411063782329669,-0.4723980469027587,-0.1261287183247947,0.26724621956092165,0.5175551386665302,0.6970038241159109,0.8525965125580716,0.939361247919459,0.9723478182850276,0.9844326082997603,0.9888158893710302,0.9882124655864019,0.9814930161651849,0.9634119552529135,0.915519884000565,0.781973392802435,0.5200392439349043,0.34046033428116845,0.415799735169266,0.6026419029224493,0.7201771476911465,0.734652079542925,0.6365708280306249,0.3323765952668518,-0.1819924219525554,-0.5579197714695047,-0.7272699684869071,-0.8056294892339911,-0.8455878750784357,-0.8681729433492347,-0.8820465051686209,-0.8886355593357079,-0.8873663153937786,-0.8738999011248275,-0.8337179108115104,-0.7150788067432571,-0.35948264568770505,0.28033864052196417,0.6771287445146734,0.8242786108537017,0.8789668058397646,0.8966880488661523,0.8924268854044315,0.8666847891604353,0.8138478363472965,0.7240568858365015,0.593541608290858,0.45021105494113567,0.35971043522064566,0.362426237564931,0.45805262987700485,0.5924640918241155,0.6669383454783218,0.6629038332417979,0.6164121454025818,0.5402799281447781,0.4264381479393906,0.28303974174524643,0.16679494220499985,0.12584120197562065,0.11869722355497196,0.10420936742615126,0.04097236010700939,-0.08339863085599336,-0.24267084991943333,-0.41223543580330996,-0.6034675576683018,-0.7821414789877381,-0.8787741124992291,-0.9199935818877122,-0.9448060963691443,-0.9604557284867422,-0.9680219341810402,-0.9677042853345958,-0.9540182695806152,-0.8953683355006062,-0.5817177953314477,0.1993982864393004,0.4206405957511226,0.17711163798385554,-0.32166941612781047,-0.6229803076666582,-0.6694420990797524,-0.5577378699911839,-0.37074143260950293,-0.21160086987259044,-0.1254249912025416,-0.11915927699540411,-0.18191368041477063,-0.2899032591549549,-0.4064953985829969,-0.5049118883205882,-0.5787344274851371,-0.6323350582263177,-0.6488797496377788,-0.6017445374716277,-0.5188843048489895,-0.4731576915989013,-0.49987153742147533,-0.6063338016035895,-0.760053646919937,-0.8838513139397273,-0.9458986798339296,-0.9675812163338136,-0.9685165295843882,-0.9542232155908403,-0.9143736535353348,-0.7791946779294153,-0.029364825723163016,0.8181651999121061,0.9468086446285408,0.9725635812840935,0.979253118209192,0.980169307965219,0.9782359618539791,0.973954529388461,0.9667962848023698,0.9557326737266061,0.9387507487068762,0.9109097829967762,0.8640099642176153,0.7804286699172425,0.6169733387036058,0.29483575966217473,-0.10622198521077215,-0.34272979689034966,-0.3863333645907652,-0.22516646441493687,0.3339363216684365,0.8374372963054486,0.9446644996125578,0.9523673838435323,0.9078250903443802,0.35120929576814214,-0.888705368528017,-0.9711775106992069,-0.9822956672592688,-0.9827677894699678,-0.9792372835979093,-0.9729314221187458,-0.963006875715978,-0.9450576737931389,-0.9056052529987865,-0.8153259070096571,-0.6761722152370901,-0.5985868076265873,-0.6784050120425256,-0.8186166930908015,-0.9099245765340398,-0.9548092701843562,-0.9739149637050503,-0.9783410378089205,-0.9672340910748624,-0.8269260509379303,0.9191740875363461,0.9876305960102999,0.9932966682108534,0.9945563987652735,0.9950170238770455,0.995343000206263,0.9956974347794092,0.9960050794067932,0.9959685792761297,0.9944771829969462,0.985100163022792,0.9119216115796807,0.21976435628163762,-0.619614429491143,-0.8048086646854116,-0.8701060961905437,-0.9064345371103832,-0.9288974750655877,-0.9409885902026014,-0.9460595672096709,-0.9471968019848889,-0.9463616345300476,-0.9443864827195753,-0.942000204427153,-0.9393700264266126,-0.9377412968868443,-0.9399800206799688,-0.9475237913725582,-0.9599911725910683,-0.9749450447776041,-0.9871354789072622,-0.9922215487218693,-0.9899506711635386,-0.9816532799086886,-0.9631419882115269,-0.9003390534707835,-0.5354267636083268,0.30101361951822075,0.4676147577513024,0.29612088487134003,0.0397212100475269,-0.13995687278949018,-0.2162235888576889,-0.20019643849491706,-0.08936063533608384,0.13252440249835293,0.38607209237280904,0.4728487203221563,0.3081098661730135,-0.05359448301812726,-0.3887500429621114,-0.5578377605966843,-0.5995917998778408,-0.5159290578124898,-0.20454040267707535,0.3422944508570109,0.7028527386397754,0.8363662607560032,0.8808777458350898,0.8828927385705706,0.8249514756609656,0.5180083941584525,-0.29524349411490924,-0.6569397594222045,-0.7421544084870932,-0.7612310058221232,-0.756945609059263,-0.739020935699393,-0.7004863248404539,-0.6058548773958191,-0.34782127752088404,0.16860774076989796,0.5655724768073858,0.7122951941833123,0.7577923211088655,0.7644056216941149,0.7358005555776048,0.6602225459227526,0.5582034751776151,0.48007756847919175,0.4550659948535446,0.4640628306314841,0.46709650865446467,0.4467113876743824,0.4163303182796675,0.3962446055560933,0.39377830983102885,0.41248832382444184,0.45444874880581493,0.5020835359060586,0.5334028061382056,0.5214624360006207,0.46771396069290067,0.4016750693496489,0.34894043686075965,0.3117151344810736,0.2804360422403283,0.26007489376915854,0.2794280988965472,0.347891694024608,0.45034849653276465,0.5501054995678059,0.6122165752140994,0.5753632304982794,0.2753996423072151,-0.2163078364031041,-0.45702035608740205,-0.5342150482323407,-0.552014006007668,-0.5413593099322948,-0.5148803885456817,-0.474034820746193,-0.4177238276091629,-0.3411536709734625,-0.24053132152648515,-0.11172823717941391,0.04184947002499643,0.20066745854728968,0.36710618698828823,0.557602221745287,0.7523233332603717,0.8867836355825255,0.9473570036830894,0.9688214623998903,0.9755506016704545,0.9770732218892788,0.9759806284490854,0.9719298532012228,0.9613345500111533,0.928303759649538,0.8077590288077255,0.501190566357547,0.14664488582449767,-0.10910392393499628,-0.30400921746763276,-0.48125117644853427,-0.6307702605754494,-0.7386054971024961,-0.816944512288547,-0.8793765124715696,-0.9263580214254508,-0.9561026620827048,-0.9712817077009229,-0.9760967276810222,-0.9638071444250138,-0.6285303306147622,0.9619632160379709,0.9926660884374089,0.9964772112244307,0.9971310255576074,0.9964434085956967,0.9938115741423975,0.9862381081393499,0.9586577600026303,0.8361325003739065,0.3925445889078769,-0.24359828949737147,-0.6357671226647819,-0.8144539785637601,-0.8552391794812239,-0.846220008815742,-0.8287830772264548,-0.8015796037769576,-0.734932164142173,-0.5569167094818426,-0.17798369248810963,0.21790226022605214,0.35770829165894563,0.21210651166327169,-0.22812899758299732,-0.6395057561194019,-0.8172510094443354,-0.8800022869139338,-0.8981869374653464,-0.8946008040823727,-0.880705907816317,-0.8636562596383827,-0.8455250481709661,-0.8210449141888077,-0.7732240874216119,-0.6658848011242484,-0.4346913035856005,-0.0882018695181079,0.13412625861724192,0.06392672226573129,-0.3038617692203712,-0.7162994331981796,-0.9010727590439612,-0.9596639893481618,-0.9796382181419647,-0.987323458635354,-0.9910193900446079,-0.9931673920945797,-0.9944226506601689,-0.9947718403745781,-0.9940087646268375,-0.991668422948433,-0.9876788709016061,-0.9823667088988679,-0.9699778753206308,-0.8609968171768018,0.7690986095948603,0.9606855353729524,0.9800270184673575,0.9849885983634792,0.9855876550042209,0.9825700594232232,0.9738608391792802,0.9554453649115726,0.9235578616317982,0.8780157418551668,0.8242004890037439,0.7655678511721834,0.6431169210837339,-0.3267551922234719,-0.8344012985325321,-0.9038716777390714,-0.9377763969095215,-0.9576806899821636,-0.9683254163332481,-0.9740363235108906,-0.9768653251895988,-0.9787718654332679,-0.9801929927102869,-0.980034044290052,-0.9775977702916385,-0.9696342051024821,-0.9429473418171067,-0.8433228020893523,-0.5856025860087948,-0.4342178889875766,-0.5526714442200941,-0.7084259720890445,-0.7731668827652642,-0.7245582776774719,-0.47376898998127037,0.0888797904658355,0.5516132037296814,0.7388622249439347,0.8119199665782377,0.8626087150015446,0.910269226569606,0.9464794120091419,0.9682845478688903,0.9811989416992487,0.9887795814875335,0.9930175187165949,0.9950615849141833,0.9954851037520925,0.9940517352406708,0.9888766336374443,0.9745780645038868,0.9424890003443784,0.8954642239225667,0.8628916470720358,0.8643486900608625,0.8878025385207144,0.9152344565206273,0.939184999290053,0.955303923325599,0.9577910529579068,0.917388773570116,0.47895678097369365,-0.6239653539142805,-0.8525084096271305,-0.9100604551135769,-0.9363761050212797,-0.9527437640059987,-0.9646516931924332,-0.9747263830205134,-0.979712296682621,-0.9761135510053544,-0.9626377272951098,-0.9346885676748674,-0.8873654934815108,-0.8269163065145623,-0.7687311307367983,-0.7172970231991591,-0.665599466937977,-0.6105923756302666,-0.5647612709589491,-0.5299833432448219,-0.47064035005507027,-0.3032112239633099,0.02245123301565437,0.34540235833266475,0.5386636086316775,0.616069111737905,0.5968914220129007,0.46030637660737456,0.1612126201548161,-0.2152780753890081,-0.4761012375399947,-0.5920709047234621,-0.6135863404162656,-0.5482293713107144,-0.3867864772911724,-0.18267586535241526,-0.08823071349071927,-0.21889839837038721,-0.4965128205964416,-0.6980538455888553,-0.7709684813707681,-0.7549429769726079,-0.6624145145183513,-0.4506782939006732,-0.00819474057851918,0.526588761575153,0.7863925685215872,0.8736112670460233,0.9036349552458628,0.9134939306658257,0.9150725833224167,0.9129176428237655,0.9040921958969649,0.8598351813029016,0.6756479949702823,0.2811649495040454,-0.029828538348732354,-0.12744142011401444,-0.04049029592910693,0.27229588836670543,0.6331619589312394,0.7517412360677319,0.7761917522587303,0.7833437829044542,0.782864093332283,0.770820012295048,0.7460110436601965,0.7227198758460779,0.7252156119457666,0.7708608196031442,0.8369131453993081,0.8898065095653612,0.9235105567910423,0.9418461248697715,0.9472597502041773,0.9373273467339608,0.8943663210845317,0.6641923338783539,-0.4825663049809205,-0.8978675544826706,-0.9537203820146967,-0.9630618280308355,-0.9399944754354749,-0.6190833444287579,0.7490334192761922,0.917384410282697,0.9433711841269427,0.9444158074357547,0.9247415143409902,0.8311570511061237,0.20762607836871189,-0.6323070607581692,-0.7969989505616756,-0.8248914819503118,-0.8169718936921909,-0.7934582538103672,-0.7538003228329634,-0.6893028743570699,-0.5847146546052354,-0.42485756226551974,-0.22493051236432415,-0.03565615469304807,0.0778036352903368,0.08592669587119695,0.0022527402829451283,-0.16103422880033408,-0.36272880507582195,-0.5224031072329676,-0.5835727416432447,-0.528336254371485,-0.3127315413597039,0.03550000908048058,0.34589895820216005,0.5392764777504909,0.6502256237183891,0.6613885886564995,0.4575515167708226,-0.12521230982218542,-0.5685396804890107,-0.7362386928618185,-0.8007500109595016,-0.8246066637933163,-0.8308332506303306,-0.826748594814252,-0.8123340271147654,-0.7808815739796073,-0.7296539299950823,-0.6264771024067988,-0.37870587402726963,0.03820673349369662,0.30481882514635766,0.39792767686957053,0.40631434731648003,0.35115221251069995,0.20083523192178945,-0.1147089360945411,-0.5161822386954966,-0.7430468391156186,-0.8303716096204855,-0.8733431157654648,-0.9024465609552077,-0.9199343168005142,-0.9252317475690413,-0.9251091751754049,-0.9267555060521525,-0.9336317372495675,-0.9457844746394837,-0.9596503451679245,-0.9719851176111686,-0.9811962638420464,-0.9864032343278105,-0.9886037338917942,-0.9889321472057357,-0.988146047443519,-0.9844301585453269,-0.7923363742232915,0.9791442493389938,0.9901229015871885,0.9919699321946659,0.9927502067775614,0.9933513790753024,0.9938281399064568,0.9938362041123084,0.9928004789250078,0.9893279528158094,0.978554383406282,0.9395362894819567,0.7933460298075331,0.4920212691210885,0.3768655870040248,0.5774639818458538,0.7994765908862976,0.9036183324984377,0.9434031730608544,0.9573218977878414,0.9579147703797185,0.9449214168496335,0.9012712229000118,0.7420421133414067,0.17540107313398665,-0.4902702646477756,-0.7447699407032914,-0.8546057168104707,-0.928608765867977,-0.973400987179629,-0.986633418408391,-0.9857656743918951,-0.9851507817124388,-0.9873760526691058,-0.9910626354486378,-0.9945821236452281,-0.9952905371805201,-0.9876019695184999,-0.9627834066884188,-0.9181169931805178,-0.8740440129079144,-0.8663883190656095,-0.9004873208768117,-0.9360505006407297,-0.9466930036662069,-0.9303176009921215,-0.8468875657404309,-0.19018135972959588,0.8637823130762845,0.9713501896505573,0.9863782631025709,0.9884898772160393,0.9876566510529834,0.9853902238981109,0.9813125632905992,0.9737283471322741,0.9591352445296376,0.9344648351778488,0.9011011394081341,0.8624232964953376,0.8050199349485196,0.666169749741488,0.2545515261671348,-0.4226949545013881,-0.7718040896402498,-0.8871728632334498,-0.9153051772513352,-0.8976863653939472,-0.8549415500246496,-0.8118339649072563,-0.7901149286930377,-0.7945698183042689,-0.8069280216453931,-0.8017408125274976,-0.7761105260840286,-0.7344747905781613,-0.6688750687462427,-0.5457395138766743,-0.3061087631435322,0.06599795385694716,0.4116158040661733,0.5983053781839113,0.6773796715004123,0.70381545704719,0.7025530429586105,0.6916485742405261,0.7045301283272901,0.7604610095104494,0.8296120304641943,0.8762060617714076,0.8889994660536328,0.8638179070149191,0.8254040758952007,0.8131803993900824,0.8349044746074188,0.8702303868859861,0.9018529498297364,0.9230097289989115,0.9348818425921942,0.9406077430718142,0.9402138649252493,0.9298884965489479,0.9033289793550042,0.8504503971721242,0.7415469139413904,0.5129274511647638,0.16266171085073736,-0.12163518962091972,-0.26011889914638214,-0.31813135462042763,-0.3536313060527908,-0.3749085022908654,-0.36680805677526734,-0.3150817738735576,-0.22238382234662385,-0.11294407608935843,-0.009531374250212707,0.08772620469006687,0.22024927426686916,0.43251846246789283,0.684575542805443,0.8532203150536658,0.8890887772987323,0.8267588711945555,0.6640892718233312,0.35451925056348915,-0.07027355318130671,-0.44253613860512786,-0.6502123458470251,-0.7215211978441315,-0.6875749094794069,-0.5288572261655246,-0.36200694578395215,-0.4399791951259942,-0.7451410524840606,-0.9254352720851309,-0.9755041196408977,-0.9890928824553288,-0.9937064578328533,-0.9954073982547669,-0.9955575953908039,-0.9939567488145731,-0.9878907964634147,-0.9626560124953497,-0.795055463316029,-0.02466010371013847,0.18456190379892,-0.3162402152176273,-0.6808439722106384,-0.6913586187519747,0.011876760164873495,0.9049806201814274,0.9795936526337353,0.9901431349139056,0.99271220265577,0.9934912550520248,0.9933229341558758,0.9925175420520534,0.9914936919624876,0.9906523703580539,0.9902361438115636,0.9899822825407617,0.989439258072798,0.9880456359599452,0.9848007220109198,0.9773677762160765,0.9564273086332135,0.8266224774939157,-0.7170238750666122,-0.9658828100018938,-0.9867078316057192,-0.9928087322496452,-0.9956765758472874,-0.9968488086057392,-0.9963765637027451,-0.994464350722819,-0.9920007770322806,-0.9907389990624206,-0.9918479607663319,-0.9946433968660596,-0.996733513524144,-0.9964612593773531,-0.9947526204053518,-0.9929702076932859,-0.9911835965806659,-0.9884168282718538,-0.9820588179191421,-0.9627191341281581,-0.9069191357805518,-0.8485728069540331,-0.880903718725755,-0.9360355378923972,-0.965695364293305,-0.9765437479366917,-0.9719725314607486,-0.9491483194960225,-0.8951808197033849,-0.7927486159902296,-0.6499108024269499,-0.5356938188476235,-0.44497502507811565,-0.27626716690944214,-0.09188310649522945,-0.014420161503701413,-0.06505098907564921,-0.2528843362198403,-0.49080699024008784,-0.6194775296572813,-0.6741512517746308,-0.7166209100610319,-0.7611407974421692,-0.7992493760297101,-0.8203400915521045,-0.816387660381069,-0.7692847537359057,-0.6015730024667372,0.039629408204833405,0.7766281413273721,0.9353582721654311,0.9686848273564967,0.9773186374228909,0.9768230785733331,0.9691006196434127,0.9525156916898396,0.9229848204290176,0.8746944142315581,0.7977944429324882,0.673268681743538,0.4608152557613708,0.12194808870787556,-0.26035784740524004,-0.5212948756110084,-0.6532363464950283,-0.7233130658915259,-0.7722032834926134,-0.8162696018898917,-0.8559250502320397,-0.87854595393919,-0.874136649434481,-0.8539086050318293,-0.8412039184908954,-0.8553993341446352,-0.8893081474924249,-0.9113062022189944,-0.9054849063651604,-0.8903732106380116,-0.8824413313522746,-0.8862402294911895,-0.9010215542365254,-0.9191756299862305,-0.9314989413951925,-0.925712882754257,-0.8534061281721418,-0.39204915634607096,0.514504491236232,0.8128049236607312,0.9035893772665553,0.9435635829058634,0.9636048212585372,0.973386645102078,0.9777252807389152,0.9790164631472865,0.9774829377809671,0.9709419276398679,0.9505246702429897,0.8844035547168752,0.6881399355471313,0.3834102891056772,0.24432801674788387,0.3281275680323646,0.49719723207708905,0.6221564478924552,0.6781140436977934,0.671649780418587,0.5965290637869582,0.46060267649221304,0.33769389756627377,0.3026296045401621,0.34744462042443996,0.42727744959695213,0.4960825608755168,0.519037253836073,0.46392266318101477,0.2575502153255638,-0.1730469950255416,-0.5027139912692016,-0.6301254524920848,-0.7051881137909274,-0.7829019399271041,-0.868045900452553,-0.9243264617120164,-0.9091554688742188,-0.8323247654303155,-0.7280584690585956,-0.6382000518862635,-0.5959408671087542,-0.6027334918442913,-0.6433660808094794,-0.6956601583942994,-0.7426995128225796,-0.7693487335907394,-0.7805898691053078,-0.7878491736277411,-0.7976547406814796,-0.8102949904938741,-0.8185224660446562,-0.8164364187905366,-0.8014590068962538,-0.7680337968202922,-0.7090818502447759,-0.6127011139453861,-0.455352144726424,-0.18603286791577422,0.22970956232608944,0.641619273053481,0.8623581318954956,0.9428538722059816,0.9698062522976945,0.9777441888312631,0.9778659669641628,0.9706494727393294,0.9474479170629235,0.8689629755517025,0.5186270612502244,-0.2833667230312792,-0.678973597359876,-0.8203997408524707,-0.8900529377389864,-0.929479402986272,-0.9512492362526397,-0.9628460404897885,-0.9699225515947852,-0.9752116329701487,-0.9766457974415433,-0.9725171455929098,-0.9660357361484492,-0.9634747436932676,-0.9666766623392894,-0.9731991220498575,-0.9796036873344468,-0.983736562327071,-0.9840659881176238,-0.9796427986437646,-0.9691789741268956,-0.9454760002173885,-0.8644764504743399,-0.43182339672704667,0.5074225505246264,0.8116598719227355,0.8921752741209875,0.9260611559357536,0.9445440887777782,0.9548249259769538,0.9599465130718703,0.9617200282098647,0.9606592804306918,0.9561860248863809,0.9457387735092438,0.9230312257832902,0.8740162289481528,0.7813784298527064,0.6788412276456233,0.6777449998128514,0.7982304079146038,0.9125960769435054,0.9543863623173044,0.9634806644491333,0.9640405596529399,0.959631474505942,0.9506912724747619,0.9387436209783551,0.9241526016690479,0.9030940745964623,0.8667654429224119,0.7996018070245157,0.6833806503850431,0.5049090081582176,0.3015881556003562,0.14325887216905123,0.037943852134986196,-0.05922839538336336,-0.1945000920654796,-0.36814377445083646,-0.5494484740889845,-0.7066963428804046,-0.8116625498368443,-0.8687864136050667,-0.9026979843222162,-0.9270289200985754,-0.9441436070376527,-0.9541808885363378,-0.9571360193745162,-0.9493474258482839,-0.912100354315254,-0.707726708428152,0.23073149595307552,0.7240690520260795,0.7980036719034662,0.8042455926126949,0.8482419012891408,0.9298516082954494,0.9674881187586961,0.9704676200379629,0.9639678751351068,0.9543735891250282,0.9383233227813689,0.904740021988128,0.8177596033278487,0.5647893311710996,0.019334512702038238,-0.4558751570845981,-0.6688685013638793,-0.7570981861394178,-0.7950309540635802,-0.8172986841626412,-0.8324336789124038,-0.8384589216135595,-0.8256158572220818,-0.792054943929693,-0.7517645276107229,-0.72907352871427,-0.7403679626482357,-0.7821272136537802,-0.8386301306803994,-0.8951183128453899,-0.9412357702606394,-0.9690779828712814,-0.9809877127067796,-0.9808520012162012,-0.9734489627140943,-0.9660070451536381,-0.9580104993094942,-0.9396843947801531,-0.9008709974240586,-0.8412209705935214,-0.7691206797109731,-0.6989881583861852,-0.6454138995040452,-0.6048040345163889,-0.5757053507647898,-0.5554355701566817,-0.5647417422777392,-0.6017110896532264,-0.6472845350398062,-0.6773292758886341,-0.6785721624649859,-0.6080633225815352,-0.3793100996856358,-0.03814065926123553,0.2435286352394705,0.4252022776933479,0.5431238047642913,0.6258128055785991,0.6786589089784143,0.6879831270420492,0.6601885551285664,0.6060427518314486,0.5384116584876861,0.46850191387686707,0.39247723796738077,0.29406670357584747,0.17414161472074677,0.046082460926712,-0.065769074702085,-0.14994443633889284,-0.22478703627623392,-0.31305264712220604,-0.4106248255079873,-0.4894852608097928,-0.5172226277670532,-0.48354564770343056,-0.4073382586678284,-0.3313084899604069,-0.30079080236492123,-0.3486909319604185,-0.47882216261594573,-0.6463454677638796,-0.7874070704400971,-0.8692801426882713,-0.8986247296771752,-0.8885576483086667,-0.8122666000353955,-0.4247925381532238,0.5055180371015414,0.8106176881555686,0.8823649515079043,0.8999707980341725,0.8821447552421695,0.8199127304637015,0.6993712909399835,0.5157388051171611,0.27624963493667043,0.009701597059290142,-0.2404604266309863,-0.4285301689344422,-0.5126125998228263,-0.46729482135532163,-0.23166233323446014,0.2396224225982122,0.6617598195767003,0.8503509512873122,0.92021715641701,0.9460279255506036,0.9534286920279119,0.9506162835138415,0.9360138434300208,0.8963462680769523,0.7775686413471148,0.37744361403173676,-0.39632591778647613,-0.7880785005460765,-0.9023270077638172,-0.9407207263350906,-0.9557335475681984,-0.9613743137552788,-0.9619786055367994,-0.9604902292910354,-0.959844881827019,-0.9627348374780327,-0.9693324064126733,-0.9759630609559428,-0.9745780216879434,-0.9395496845888732,-0.3219999573005913,0.8993945088459749,0.9706215233553118,0.9839259653677198,0.9885314144000363,0.9906802690657126,0.991766703028482,0.9919030542617465,0.9906329244839394,0.9859983981519339,0.966849571723716,0.7738919625438527,-0.7723322643475256,-0.9493574539958973,-0.9659409910966029,-0.9567912128938786,-0.9334101784780645,-0.9107079028282281,-0.8872028753654183,-0.7927887937373921,-0.5060911695551146,-0.08736979404855731,0.21626514799901472,0.3636662685010139,0.4202908750085256,0.425552544807497,0.39611550788362854,0.3328804195194302,0.21701737138860716,-0.0012093056421429997,-0.3409208308150663,-0.6215537098860757,-0.7593493651189503,-0.8135247636474909,-0.821494224702453,-0.8088499937539899,-0.79644405983035,-0.7987558734935655,-0.8187317079547227,-0.8516486513953418,-0.8899534005918163,-0.9239534248886762,-0.9433475086381136,-0.9419419003918651,-0.9258655236963509,-0.9088494464902229,-0.8996406315111093,-0.898424406533044,-0.8987208359459425,-0.8865460224825517,-0.84491855655576,-0.7965275565998151,-0.7913050886382191,-0.833457440681902,-0.8882829531482692,-0.9312425310621417,-0.9609583482736156,-0.9795919355470378,-0.9878218129700821,-0.988521423679514,-0.9864688688232491,-0.9847643119378391,-0.9834513015611934,-0.9785825765392401,-0.9505400684731153,-0.5735004171690824,0.8083698024572409,0.9367039400417304,0.9566986400297132,0.9608390304918438,0.9607380915370743,0.9596609711869504,0.9589710508162848,0.9553755708740065,0.9423809401069122,0.9105932666558342,0.8471379131216203,0.7136397759505517,0.33516326091590276,-0.40582857711837134,-0.7599823586096441,-0.8349843670287792,-0.8248864230613482,-0.7456198022720678,-0.49128353658866747,0.19486721111292776,0.7639210977510283,0.9254414228205793,0.9716072565145197,0.9869978156329604,0.9908469516167588,0.9862226010769203,0.9629458098470889,0.826832617580562,0.019686445554139665,-0.5979565125753179,-0.6947581513244431,-0.6023676984097462,-0.22400411711149482,0.4201290327361941,0.7603680431132741,0.8643424012534203,0.8886422340594906,0.8711814706915392,0.8060047518732715,0.68379490133622,0.5279817123420568,0.381006346003394,0.2504083383103673,0.11076180360545498,-0.06121566022118372,-0.24378354226319832,-0.3942620352571504,-0.48441389431668036,-0.4960672414017329,-0.3797304402643113,-0.013896368505504951,0.44817348756861,0.6691661691546658,0.7599448587067552,0.8013152242920295,0.8107339664980411,0.7878199748331642,0.7164967210194018,0.5289024228622783,0.03725989996056606,-0.5837700665845257,-0.8143558823450265,-0.8477270064260465,-0.7911991619263679,-0.6255671890777695,-0.3081290704658339,0.10484078326184905,0.4553022996212594,0.6787031575314789,0.8021093305696947,0.8663897877337018,0.8985483450697795,0.9113368229072883,0.9070547319010134,0.8782261928660295,0.8000227888572066,0.6061525308855586,0.22704451578830415,-0.2036473377646677,-0.5134131446510063,-0.7185070029846383,-0.8503649302176175,-0.9246656569183845,-0.9601152597273873,-0.9748105779840935,-0.9802648800162497,-0.9827176960921541,-0.984634260489072,-0.9869630994843818,-0.9894932068020083,-0.9897308124729165,-0.9838609617092565,-0.9636502297433464,-0.900262312546982,-0.7230258590813491,-0.4926564796256358,-0.4396336248105342,-0.548476887951405,-0.640301336484899,-0.66801344190168,-0.6821559089530085,-0.6869977338058502,-0.655774015602297,-0.5441737295479008,-0.2710040401357974,0.2372525444196536,0.7129024839343013,0.9098741081938542,0.9637996202022081,0.9750395415435713,0.9759007773244212,0.9760293845910182,0.9772525877267464,0.9790783966448501,0.9798468280841435,0.9767388062979709,0.9642266325333079,0.9291990180918301,0.8420912050425593,0.6660644344681204,0.41466220210438204,0.14370235086282424,-0.10988459725328306,-0.33455275123265615,-0.5156167409113411,-0.6441171034805353,-0.7249874772382972,-0.7728590622330956,-0.8013194943677533,-0.8217660132318859,-0.8433201411872172,-0.8737461498673956,-0.9135751913474491,-0.9513695208424251,-0.9731359200283558,-0.9754667223909981,-0.9658587318210359,-0.9542767136420702,-0.9459587376173779,-0.9409498609760453,-0.9370146532822476,-0.9294286165969274,-0.9131095559087654,-0.8876798973210337,-0.8596460428658785,-0.8330206195186031,-0.8008377658899274,-0.7441755122689282,-0.6201891259695936,-0.33511107172041005,0.17941496942284246,0.6096815422970289,0.7797273899598074,0.7960324549953749,0.6513637168457594,0.24360355901518804,-0.10244133430330829,-0.050264411051735736,0.33657435073755726,0.6852934786901188,0.8315648627288489,0.8830777873025755,0.8975276354130254,0.8899834969980808,0.8606427388153306,0.8099550773530103,0.7675845236860821,0.8000330365593963,0.8860265374964267,0.9443428298525367,0.9699650914201674,0.9802016302367914,0.9836281471295555,0.9828902053388894,0.9777374974533454,0.9620431409709896,0.8976347478205753,0.434917253968462,-0.5714492865746981,-0.812848324372449,-0.8741756952695938,-0.9041229360090428,-0.9198416591333379,-0.9104394750739769,-0.8895756698084814,-0.8807014758893359,-0.885986303957516,-0.8933271041741371,-0.8924713140297452,-0.8685596357065004,-0.768364680418283,-0.3084109048104754,0.63426825631817,0.9124061012585573,0.9672614865675192,0.9818647447360881,0.9843723615546269,0.9785287340878384,0.9568536682686849,0.8975820082089311,0.7660095132653365,0.5418363853971,0.23419141131914217,-0.11812151210546422,-0.42835898513664716,-0.6342584374500533,-0.7544369840068355,-0.8262250013274424,-0.8718046810608017,-0.9056207805382116,-0.9283320029884236,-0.9369644918325674,-0.9326362164707273,-0.920491260465543,-0.9090747592112774,-0.9043913192618436,-0.9119875330449101,-0.9301524539092242,-0.9501723359257205,-0.965524026191866,-0.9758693688020559,-0.9826694030253597,-0.9871634892201708,-0.9903326822560676,-0.9925326536635317,-0.9939629362278789,-0.9932204120068002,-0.9791984605298238,-0.915967503854864,-0.7851954196687125,-0.7095917489165431,-0.7681556219507805,-0.8497926954038523,-0.8603643686642856,-0.7802943780895096,-0.43957240398494996,0.4393431438502844,0.7803779367564192,0.8526747278756571,0.8798807654022232,0.8949662942853739,0.9049544665417003,0.910888754972723,0.9129863250717813,0.9122341612154508,0.9094415977397692,0.904479813817522,0.8972670841355921,0.8874799255911799,0.8764441241580352,0.8647796864985168,0.8515820533650147,0.8476820615309638,0.8625531594469337,0.886613080352267,0.9131851780493324,0.9413067484259291,0.9456358151235226,0.8788154597561959,0.7609239589555588,0.6580516489370498,0.5993471147115162,0.5883234819323798,0.6250658619321444,0.7037209988832541,0.7997686713560318,0.8804000874996627,0.9222217220382031,0.9185357176844574,0.8828681472890259,0.8266506925382898,0.7478865475949982,0.6399109667829905,0.5271476757156434,0.4490909256422611,0.42051615839386447,0.4169610759924316,0.4221753920682534,0.42053456712763865,0.40494025279484525,0.3660130478355513,0.28338823264125357,0.1255357954744946,-0.12698842629454812,-0.4305774214012711,-0.6752334102237313,-0.8218035802650241,-0.9017510829824094,-0.9455405534625758,-0.968957183754739,-0.9793773277673721,-0.9813051758011527,-0.9692990042263341,-0.8416561346268865,0.6475406204884734,0.9317545141654634,0.9570589798661662,0.9403370607641813,0.8494214953525044,0.34751545494459,-0.7072322456520882,-0.9319442300620207,-0.971885566272336,-0.9816175132631265,-0.9827277596447325,-0.9791731756384139,-0.9687514387297339,-0.9371269558036812,-0.7970677821797514,0.04365121466579097,0.7975815714785559,0.9253016287336568,0.955632318044617,0.9642607515630641,0.9670280800789374,0.969896832838979,0.9740107164552658,0.9780418034682601,0.9801977738296208,0.9787874800104266,0.9725390001319792,0.9649023885502512,0.9623924755519406,0.9665436615429062,0.973312034849012,0.9790139346481411,0.981893296875972,0.9808072182875625,0.9703800652769536,0.9141206393345721,0.15771839369111149,-0.9065553549965744,-0.9791043105028826,-0.9905906643518148,-0.9925903188142168,-0.9926775806703669,-0.9927175673697924,-0.9928241486259902,-0.9927556265683283,-0.9921266037425378,-0.9906471966007562,-0.9874869209027349,-0.979595421076642,-0.9488676024593867,-0.7386233677262868,0.23147894641530276,0.6440698660688768,0.6503047474066627,0.4741487941152148,0.1429383605076869,-0.17117540523710875,-0.3094086244239352,-0.2767636538586302,-0.11281163799888953,0.10944108293556748,0.2146541457714732,0.11847411019643804,-0.11636373620751528,-0.39311397662022474,-0.6275183767349717,-0.7838347870271876,-0.8777359270874081,-0.9283431953951394,-0.9480136495880377,-0.9501883180269467,-0.9440630789717077,-0.931725399102485,-0.9075625917914617,-0.8506594191277742,-0.713435984047726,-0.46039171133596046,-0.28661745872538696,-0.3876672962506198,-0.5780535676399486,-0.7013515322862658,-0.7548997866185102,-0.7623859962617282,-0.7368440290979363,-0.6954724507160491,-0.6747884707048237,-0.6916644522519502,-0.7075077954227882,-0.6458088853738493,-0.35854378628688527,0.188936247639624,0.5952190805014624,0.7859197883070403,0.8752884056081383,0.9195054331542031,0.9422333124802424,0.9533455761210105,0.9563291186665515,0.948622388185082,0.9187981143913618,0.8348952029179991,0.6217547571591621,0.18906137543156187,-0.3105431907385882,-0.615243313457913,-0.7549319745359938,-0.8107503810697175,-0.8230670654481285,-0.8145715058916496,-0.7988382772481561,-0.7882775403595639,-0.7924875411176842,-0.8149238544046702,-0.8473929049237802,-0.870220037657984,-0.8716901299652846,-0.8439352577813056,-0.790785326667001,-0.7578600464281459,-0.7896675510497679,-0.8456284590020358,-0.86665452239285,-0.8592616337951234,-0.8419290743033563,-0.8296221597939217,-0.8290875714125652,-0.8399638626904985,-0.8511910772786115,-0.8362381667605212,-0.6791358241536496,0.32790367342884086,0.8897420043136974,0.9602856246011497,0.9781993191614715,0.9854570191777737,0.9893845673433812,0.9920409915799215,0.9939955883723725,0.9953838812717913,0.9962140703991234,0.9965087613592849,0.9961249159810296,0.9942206130476029,0.9868474123157815,0.952693468708256,0.6499323019794524,-0.6297411846711959,-0.876929457618985,-0.9090839719611014,-0.9132962181735483,-0.9155307599352052,-0.9190903080717251,-0.9229955018381086,-0.9270538090716884,-0.9312306854625514,-0.9349545021945452,-0.9387660016394048,-0.9430078923524892,-0.9479380225186861,-0.9524247374049032,-0.9556941163378737,-0.9574967265432224,-0.9596757636494574,-0.9642692784445818,-0.9711853935733278,-0.9775880115079844,-0.9804289335180495,-0.9788300448827543,-0.9724138808773852,-0.9542857021363825,-0.8393375474778313,0.7438731725315314,0.9367359567025138,0.9315719544723685,0.8874818390872873,0.7684253500703443,0.5189381714821845,0.19771066992568007,-0.0536609574076009,-0.20679365101090483,-0.28982297751252645,-0.32829975331621203,-0.3454725699349334,-0.35907502363528665,-0.36942032789706764,-0.3740963240489845,-0.35225506976528587,-0.26719917064419874,-0.0900227771954397,0.1332619492924897,0.26827344138440284,0.31415764746773966,0.3245776679928211,0.34371291082320854,0.39844746859382685,0.4781142409988884,0.5515716268005386,0.5935398362031161,0.5861427500633641,0.5042840102775968,0.31773372878027206,0.07578101690748837,-0.09934392712514069,-0.18068720582062442,-0.21843190201454374,-0.27774246312291695,-0.4161350558448898,-0.6355012781821613,-0.8267132013012606,-0.9197073852784415,-0.946684710294632,-0.9458598861321402,-0.9395783197225811,-0.9415951248666937,-0.9544307789345413,-0.9695137586978628,-0.976180691027393,-0.9657031525737056,-0.9031519185310438,-0.4348831114148428,0.6747206767214676,0.8937762884762086,0.9382025268040581,0.9502093904146257,0.9499561166523356,0.9437099881371889,0.9374369564791246,0.936535425058158,0.9433715023475178,0.9562543973458609,0.9713234970855779,0.9843205456480284,0.9908027885089161,0.9856980741580084,0.9650100843289521,0.9310057949064039,0.8891827953200566,0.8391978893600788,0.7589358987553276,0.5537696389277708,-0.009673438173616426,-0.5572137192057668,-0.7494186944500062,-0.8286203138950718,-0.884178754887022,-0.9273867896281649,-0.9541350797714694,-0.9671838541186524,-0.9755720619972106,-0.9831827658403247,-0.9890689016320252,-0.9926599797001071,-0.9946517465481074,-0.9954465308909689,-0.9949733245109074,-0.9921280895877499,-0.9814986125322058,-0.9330560867900981,-0.6305333660371503,0.18527363243020406,0.4898162047817473,0.4446311439675591,0.15801095402077983,-0.2782673829481568,-0.5493298409662934,-0.6283177282692652,-0.5746921262575018,-0.3305184775691218,0.19463299606130133,0.6510890474669073,0.8361825520176287,0.900984453644523,0.9234900468617304,0.9270851994054438,0.9145986148544535,0.8779566198862863,0.8053620617785917,0.7211144059957746,0.7069095272728456,0.7692221150289554,0.8390668799523616,0.8836878688818758,0.9069172597135514,0.9219599904760627,0.9358993702235036,0.9477016498136414,0.9550082251923953,0.9477659575326495,0.9041458360464029,0.7876117378877344,0.5884844459249703,0.3805429890763551,0.2634694615587097,0.24721877804788114,0.2869971122418777,0.32734683087471206,0.35000729631722766,0.3577357711214335,0.34185538407291965,0.2840589997373133,0.1697860764596989,0.004272142479791468,-0.1818463635408934,-0.3681127026504013,-0.5360273473860785,-0.6694663739831751,-0.7606526020582245,-0.8123534986300455,-0.8320483441264389,-0.8228582178747793,-0.7852361095505471,-0.7092406994479648,-0.5611191198122911,-0.23770214371488,0.31354272511784964,0.6971880180034042,0.8263082361617536,0.8550877757341446,0.8409333145219923,0.7702507131548367,0.44627615425494754,-0.6390065459878278,-0.9496186179205318,-0.9836945047448085,-0.983093953948309,-0.9611301985154925,-0.8862452049498301,-0.6957341650096498,-0.44419422830156163,-0.3049862120568383,-0.2894446627875776,-0.31957674663480384,-0.32283045142473515,-0.24682701577211358,-0.03711661653116988,0.3194295045221571,0.6746957418990996,0.8692467323515837,0.9439481165750415,0.9707205202015872,0.9798334348712153,0.9809310201593157,0.9749486490143398,0.9568784981835897,0.9072294647674424,0.7268289502130438,-0.04603126532912225,-0.7284803450508056,-0.8674524422444033,-0.8900535083785037,-0.8792344253816421,-0.8569750179991549,-0.8386131257947724,-0.838152388537912,-0.8599958195418552,-0.8936430783429039,-0.9273736212797707,-0.9546927350979982,-0.9733250688904713,-0.9856982059373552,-0.9932915578884859,-0.9949894616941914,-0.9891573404782955,-0.9700340090284256,-0.8883929557348741,0.10311176679816345,0.9241579679466357,0.9798533802049925,0.9901867483626023,0.99312576468827,0.9938789078789834,0.9937055582245508,0.9930180942065604,0.9921299812708276,0.9916137871702029,0.9917596643491955,0.9915210612454595,0.9894254436302906,0.984054403489829,0.9714938630493293,0.9358226090849896,0.79500443453146,0.09070640538200825,-0.6953424044183253,-0.8784255256644702,-0.9270878575368083,-0.9396231019251647,-0.936375543167936,-0.9258272824792197,-0.9148261568259284,-0.9090933196385848,-0.9112062604211855,-0.9201019152595152,-0.9333162573577931,-0.9461042562756118,-0.9550794422590352,-0.9590671653563626,-0.9590318926982468,-0.9564520063508047,-0.9529350736492574,-0.9466746879117217,-0.9277904689700586,-0.8545117572044986,-0.3895939467051716,0.7102854540451912,0.9279984790265211,0.9670767762977893,0.9748123144221782,0.9686674736542461,0.9447994400912678,0.8829520736077957,0.701217455730958,0.20145475091178025,-0.34824441121946514,-0.6041048288267485,-0.7271339290769637,-0.7959711200393637,-0.8230948855656582,-0.823477122348787,-0.8300674770430289,-0.8534904437145889,-0.8860216215094772,-0.9094672939253293,-0.9161951569502739,-0.9151774475636838,-0.9158509173030964,-0.9192948247191486,-0.9206798118634406,-0.9203876816915907,-0.9177299829580914,-0.9017468847156074,-0.8709726202771466,-0.8540454299226329,-0.8549624480334997,-0.8549277450129188,-0.8328968289317729,-0.7457322608449248,-0.40456448210937823,0.41771551113796535,0.8115081599526235,0.8984957671744579,0.9049264855738551,0.8445830340443736,0.6400836190499682,0.3117271512539866,0.14879543174228374,0.24804277596060942,0.5313192465952336,0.7792189202141122,0.8938291018293503,0.9387895702068536,0.9589886227859112,0.9708003873127722,0.9796448486060239,0.9859909435115604,0.983492142981902,0.9574779338457714,0.8921712501236747,0.7895948833466286,0.659088848304726,0.4874682673989693,0.2475479470193912,-0.06300202875097279,-0.3578484224688942,-0.5338501185656375,-0.60644133165955,-0.6318640578461243,-0.6398937332427818,-0.6481566801844586,-0.6645520901657663,-0.6901077077376028,-0.7155695528670722,-0.7313671818977103,-0.7409502274401855,-0.7497601124418553,-0.7609473018585651,-0.7687588417965928,-0.7657220636459949,-0.7322880202201337,-0.5885851449558381,-0.03328763457265504,0.6848045990733447,0.8910821814269788,0.9393896886568796,0.9489489771093222,0.9291350213728888,0.8546579892598513,0.7344889146394734,0.6179385345665704,0.5141898816793493,0.3936125656564479,0.2139765774535909,-0.05282312896697099,-0.3473025802959404,-0.5651107825964873,-0.6931442287099822,-0.7630975185483787,-0.79072819702135,-0.7931550315145499,-0.8051817824802188,-0.8379433724968396,-0.8778762448061307,-0.9041798681646457,-0.9089866144214707,-0.8978466374762817,-0.8681759337446623,-0.8088550864110251,-0.7102004522345368,-0.5667654413627308,-0.36559273136727205,-0.10216067683265716,0.17877693457802607,0.3849460696086492,0.49994953459093394,0.5533079305085259,0.5701550992039203,0.5348123332176874,0.42243792008277026,0.2717992259714916,0.16072468625784475,0.09982981484269123,0.09139822244314937,0.1531453043790601,0.2813521779272009,0.38574766668271326,0.39621608740162567,0.2780601693558709,-0.01651795371317632,-0.2991320166004584,-0.4274024680822479,-0.47746567086973407,-0.48492244531312506,-0.42890523337227954,-0.24447303142101806,0.18762053487951788,0.7124711473826063,0.9225613627650192,0.9516456909784493,0.9270138538987727,0.8827081666943747,0.8262523185266779,0.7477539922380187,0.6094775769743682,0.34675828088886934,0.002357471650345403,-0.24259287937353427,-0.3520603507331711,-0.3989685698122299,-0.4305393866925795,-0.4679089428476187,-0.5194171693211602,-0.5873406164592102,-0.6731220975385458,-0.768054246975934,-0.8506360913869602,-0.9070564263423069,-0.9300296068711494,-0.9247930249181927,-0.9041544571982489,-0.876853948855891,-0.8428010830201893,-0.8054063742638302,-0.784061956542462,-0.8046059009832752,-0.8632823981126754,-0.9034647871819116,-0.864637203782312,-0.6670754396578263,0.10392137033048435,0.7633167615624121,0.895152326308701,0.9244709929045585,0.9283730366981355,0.9184869049862056,0.8957592389920305,0.859734606551431,0.815148777906978,0.7703182613805089,0.7295707435862339,0.6957492759019318,0.6663594280343725,0.647488760371409,0.6473411866730995,0.6713932967878159,0.7105731049623865,0.7461579898924771,0.7591312178077078,0.7298824141775849,0.6226244374399068,0.3636149556843278,-0.08012027391665974,-0.5153939162634752,-0.7683222624119397,-0.8850516521905404,-0.9383780647933706,-0.9654794905002776,-0.9794616585631103,-0.9859131633706962,-0.9880561300799259,-0.9862285135472358,-0.9784033430141637,-0.9571793238522764,-0.865774771641246,0.3808932728506472,0.9600436809993009,0.9886515590705446,0.9935375203107749,0.9946128467183981,0.9941631069917903,0.9923504135364541,0.9882042299298546,0.9778094355025779,0.9473128830639997,0.8504440637278885,0.5376418565630481,-0.03443611579805566,-0.39278425086809765,-0.5157360671385532,-0.5631088310463933,-0.6041672351283719,-0.6579693646369092,-0.7255764757920233,-0.7939221927264672,-0.8482800465278119,-0.8852025201449356,-0.9081332473936405,-0.9219514773392685,-0.931537110674806,-0.9408582133965169,-0.95115794089313,-0.9613329121660891,-0.969552010529057,-0.9752830227061516,-0.9785881541332688,-0.9794951277675652,-0.9768191185820533,-0.9669982504890844,-0.9373883318633316,-0.8115604583912632,0.16105697234522812,0.9025706625882997,0.9692868137056444,0.9767072640167809,0.973341929102773,0.9641691872251089,0.9476848085377174,0.9297453453395066,0.9251305809562579,0.9367702437425782,0.9500486471484691,0.9579351933663801,0.9601754773069889,0.958324917010731,0.9528280628622551,0.9445617994294622,0.9355337505934284,0.92797484199021,0.9218680145885401,0.9132499917521159,0.8911323572991738,0.8282162786181203,0.6277259951822278,0.04527624918921556,-0.5929860870680833,-0.8317332036789911,-0.9134956145614859,-0.9498379806195552,-0.969252763843099,-0.9789412533404255,-0.982350713675281,-0.9815043345589168,-0.9783628058942179,-0.9744819242470716,-0.971000468113006,-0.9681433809807087,-0.9635045595215221,-0.956426982119724,-0.9495512403119352,-0.9478115792246391,-0.9524714207593892,-0.9530722483784465,-0.9406298502914651,-0.9177858603895919,-0.8850784249475386,-0.8301942146118342,-0.7405443547032129,-0.6077761215626579,-0.42679748524581224,-0.17833106308633118,0.11929412067573575,0.3469649831730626,0.47101630219823054,0.5167878527428174,0.48824708901845176,0.36003317981631855,0.12725766783422895,-0.15485797640110674,-0.38820687844257834,-0.5193926525250548,-0.5619615783923846,-0.5504018653918611,-0.5160695901471877,-0.5121944378377595,-0.589884463917607,-0.720073059508397,-0.8167292297267781,-0.8611874516047002,-0.8550846734185453,-0.765908048504132,-0.39955752847512355,0.3286178049039216,0.7054712810284952,0.8348470138809977,0.8900983946704771,0.9168704709689739,0.9369243449968246,0.9568334917101798,0.9734199356133898,0.9837881163239562,0.9871826702131916,0.9829363834253145,0.9660413867376495,0.8788203454978065,-0.13694337855408945,-0.8577202469406521,-0.9329595514353528,-0.9494627473907129,-0.9489152973022142,-0.922419640602923,-0.8460565540329023,-0.7515057783184642,-0.7280368698077698,-0.7793727466315302,-0.8298567101297386,-0.8323679806863625,-0.7744932623052628,-0.6806338199589083,-0.6404001239521995,-0.690024116357572,-0.771445743778225,-0.8332407939994982,-0.8670049464398623,-0.8756568409678019,-0.8467635015958577,-0.6330885281086286,0.47378533960343816,0.798439814716656,0.8173613774107116,0.7857861166683722,0.7358889753145367,0.692210392545878,0.6812460515574983,0.7151143781690424,0.7824692028353619,0.8597865027582381,0.9216418648065469,0.956836581642216,0.974342927883948,0.9843863384282556,0.9904991319791171,0.9930878847218267,0.9917174512262951,0.9858682940735627,0.9736929689211972,0.9503018059232077,0.9104905983509601,0.8517038697859829,0.7755554202062392,0.6911259971788479,0.6206518895302258,0.5809331308130699,0.5668464707242741,0.549930750791091,0.4759451148487126,0.26971564843065937,-0.05314182414908404,-0.324036111914629,-0.47314950797061983,-0.537118768794081,-0.5548108635685686,-0.5488904427393443,-0.5330494380129541,-0.5203275564752482,-0.5163729092538373,-0.5167458701312952,-0.5191688751457055,-0.5273547021485439,-0.543911088695368,-0.5712865925097756,-0.6104272552717518,-0.658450846785251,-0.7029380111824309,-0.7264859402433101,-0.7196276343493057,-0.6823925825585326,-0.6168288819177853,-0.5492331882475111,-0.5186132272775076,-0.5342618098802995,-0.5786747079374968,-0.6395957248487608,-0.7239191407157295,-0.8305461422620941,-0.9281774564167924,-0.9499190327969355,-0.8774251270749955,-0.7711081363188499,-0.6806417439874934,-0.6195568402392632,-0.5848935718449083,-0.5705523142016715,-0.5651722875240701,-0.5435083946117167,-0.46936627837802986,-0.3236194595849416,-0.16274064183178363,-0.07427011659450936,-0.11769414716426883,-0.28308538104125114,-0.4660360811664916,-0.5887610093804678,-0.6582098948031685,-0.7048640795182723,-0.7494708424831825,-0.792349233701574,-0.8210005864544885,-0.831728047341431,-0.8320396838344404,-0.8255879675440271,-0.8174593624958455,-0.8071218835240788,-0.7966346917479696,-0.7847730252756582,-0.7635811082341993,-0.7249798177336456,-0.6741883494832607,-0.623425911376994,-0.5857333586224759,-0.5681671333570918,-0.549674128307841,-0.40266051985812346,0.13668687067980478,0.7033829594476131,0.8764112407679707,0.9246547550781324,0.9411738923200792,0.9441052616145015,0.9360236692162606,0.919541770331471,0.9140496052435456,0.934246007720151,0.9592484388058667,0.9758657056573025,0.9852637858347739,0.9903637446627989,0.993233680602911,0.9946322571614099,0.9942884518857436,0.9906757453197559,0.9776291116831886,0.9248758536548999,0.6560579332641177,-0.07479025588709366,-0.49478358471040806,-0.6294487408381444,-0.6775430164557296,-0.6864655091161368,-0.6060542183214253,-0.3539270582552577,-0.24490510412215705,-0.37360847481882775,-0.5935387340388385,-0.7625479254150795,-0.8552159846427405,-0.9035887053158136,-0.9318439667196047,-0.9501953497605283,-0.9600030692207993,-0.9621552470269282,-0.9594054611671952,-0.9539416450666253,-0.9399238561185822,-0.8761521829377545,-0.4182440989711776,0.6171056081707761,0.8564902151409091,0.9179047582914173,0.9530146226619969,0.9667811162065831,0.8270790128091656,0.24935906759923127,-0.35796014102882584,-0.6984872575795089,-0.8749164539171185,-0.9275010661613038,-0.9033971393454643,-0.8749458501195331,-0.8710003439958601,-0.8792592964701214,-0.885013678152171,-0.8821963788329922,-0.8658058972845817,-0.8237105426519911,-0.7409369719720386,-0.628441964596258,-0.5487175057319197,-0.5310964428364846,-0.5526571271865619,-0.5968960370809745,-0.6365350232405886,-0.6397875426748776,-0.5732699326858852,-0.4163516849270403,-0.20717699419524072,-0.025863461804747075,0.09504959052713614,0.16520037520678063,0.18010199847823835,0.15080270394437342,0.08721062188541268,0.006406391891094918,-0.06875991709153612,-0.11551815522923337,-0.14962839278531553,-0.2135732089313743,-0.3338125963473707,-0.4826710674309199,-0.5963872200997448,-0.6478810588559133,-0.6344092657209948,-0.5282399494665758,-0.21420658697595896,0.34455659272117617,0.7170514957997864,0.8510050237369207,0.9043402727837694,0.929309788113034,0.9355326428839695,0.9246282488792966,0.9035475896718772,0.8782223582329054,0.8510834809960353,0.8233986880365793,0.797709982376015,0.7700266948848865,0.7138811247429993,0.5703809943046549,0.16538452219919872,-0.5122151912585948,-0.826390970175754,-0.9065064453774284,-0.9257457180217803,-0.9222298935568574,-0.8943383083033303,-0.8052797416048613,-0.5519162951922892,-0.14511983563486922,0.09806116706225601,0.12980881617573461,0.04668759744483207,-0.09530910544287484,-0.28014412587546644,-0.5084999046307521,-0.7114676488508742,-0.8294284140355215,-0.8930763389082199,-0.9311325079427727,-0.9533240214791309,-0.9615318127464487,-0.9541369041613293,-0.9357787847427101,-0.9199753661779901,-0.9136827660201796,-0.9106743298398702,-0.8988098759654432,-0.8651712187863819,-0.7884140969225367,-0.61651812440001,-0.24899525338791867,0.2877704485586805,0.6727375593080359,0.842267580746108,0.9086048523861657,0.9331942370193779,0.9394774917084949,0.9361749952042517,0.9297275655156042,0.9295289652558739,0.9409588306131834,0.9586728393774185,0.9737826440194607,0.9831702459737307,0.9880246312240591,0.9901490293390798,0.9903851914589684,0.9885759421782545,0.9828707745917498,0.9662574060560354,0.9056468577571245,0.49865196361365516,-0.7178219181627894,-0.9380241558597261,-0.9741401425794862,-0.9846795383345437,-0.9875828358563832,-0.9847593817936109,-0.9674890140813286,-0.8353647323789348,0.36808025755567303,0.8448968401237923,0.9034107416556444,0.9075315734396605,0.8841761663914143,0.8103263803523756,0.590549575659563,0.027745245235624365,-0.525714622257859,-0.7360658483942921,-0.8021082597192895,-0.8226668970526109,-0.8290298372897397,-0.8310336233395819,-0.834186908433101,-0.8423913612427711,-0.854407682019161,-0.8654166859089238,-0.8717330204728713,-0.8749628547820639,-0.8777673576014754,-0.8801940789900546,-0.8822316149129105,-0.8842272255278196,-0.887625595289233,-0.8938385404080059,-0.9031339908738955,-0.9147161563739657,-0.9271700194849346,-0.9395298928709995,-0.9509007348443379,-0.9602207702975465,-0.9672557800275039,-0.9716678582807532,-0.9725813773786003,-0.9713184450180348,-0.9708222314448818,-0.9726215472275191,-0.9768223639861667,-0.9804592451961971,-0.974900774500554,-0.9407328757503721,-0.8547499830152008,-0.7332731278910881,-0.626162742535671,-0.5550907625335866,-0.498039922449641,-0.4188016151994413,-0.2651706043861457,-0.06669275443429205,0.026575818941381054,0.03533399776414139,0.017950845595412566,0.01666083447390028,0.04717590062878274,0.12456044582284666,0.2572331460472226,0.3887458480080025,0.47951073397895944,0.5400092497241175,0.5939967557135495,0.6627782618075241,0.7574455137189053,0.8500292391978818,0.8813748960825274,0.8538952421881508,0.8135979447055397,0.7812015679617262,0.7495317180346294,0.6949935636827002,0.5699081684967425,0.307767251938829,-0.03959849286894157,-0.24339060307620922,-0.22334688463811947,0.03358414400137105,0.4773950406636636,0.7993444468029361,0.9223944473061335,0.9623896777490166,0.9738503979695201,0.9725257525068386,0.9632050820051309,0.9502057838772917,0.9414186427080828,0.9412077120115537,0.946315999784792,0.9495193940183786,0.9431764575606171,0.911074314238212,0.784202623875756,0.2744924723645528,-0.4867097500720077,-0.7678319321063027,-0.8459753396451245,-0.8662742112421026,-0.8629433716033398,-0.8138821367129621,-0.6772162820967631,-0.4842957814722881,-0.27418105952642513,-0.025328368530708273,0.28934778791391813,0.6120757482686295,0.8062227314605666,0.8603475745675314,0.8157662622328631,0.6640886572073459,0.34625692718439754,-0.11320246907200349,-0.49530500091492985,-0.7091184882655469,-0.8121930805132318,-0.8540488251712672,-0.8670607573070115,-0.8693910004504546,-0.8732683593292582,-0.8832126910885956,-0.8970849806849175,-0.9075535520031217,-0.9043217615329011,-0.8786468980255794,-0.8197470054301819,-0.7327961189057888,-0.6547921855038327,-0.6032514166979691,-0.556212442809767,-0.4734009752270276,-0.2744929741116747,0.19926680481606823,0.7085860008035925,0.876044359168339,0.9175376414645121,0.9318582703627404,0.9394585780644843,0.9456609461409764,0.9514858357461585,0.9534012331966192,0.9393834129679317,0.877801097717696,0.7294532158373872,0.5368214875785482,0.3838455530082857,0.24352404728973462,-0.013560797198011927,-0.4828778841692465,-0.842352003581197,-0.9545489650844966,-0.983091847623948,-0.991584013428522,-0.9943150331186879,-0.9949825409462306,-0.9941127651108241,-0.9847410034831879,0.4293921137981325,0.9797822894633782,0.9900720829017964,0.9920740765221383,0.9918566499301629,0.9886021626950746,0.9746532436837897,0.9097969687826083,0.6761273754454139,0.4533107585794644,0.5535509802562021,0.7591753654738416,0.8779371754819938,0.9275466771311272,0.9475553500348097,0.9529056236260289,0.9451383072079853,0.9178315525260543,0.8517972775581217,0.6988869458638379,0.3757460425480482,-0.06466946473366476,-0.3843715567543052,-0.5581373037518197,-0.6605892476882956,-0.739106659870234,-0.8073161080251122,-0.8633085421689863,-0.9018744395082663,-0.9245148933338952,-0.9362410635403103,-0.9421670783177853,-0.9452888165307155,-0.9485319770003884,-0.9533637868452574,-0.9602901899787933,-0.9688763238780399,-0.9781913632845515,-0.985967791028257,-0.9899240863530331,-0.9892825297153534,-0.9848368338239817,-0.9770605228711206,-0.9681170482309347,-0.9521120711107516,-0.8420220782653729,-0.49325370086832887,-0.1409717891596419,0.05047000035181706,0.135773798130805,0.16016902922868284,0.15172361053365294,0.12476295577830977,0.08835187078843992,0.047874052105881026,0.00908244533608469,-0.023440977943660894,-0.04188047375047146,-0.045144131787768924,-0.03839723418529562,-0.021085867647122496,0.010679123628411679,0.06413232564777872,0.13129664948410769,0.1919564949813401,0.23959852855995364,0.2846935979578674,0.33280200240932256,0.37916158008065826,0.40676364337956494,0.4049883612291049,0.38584458647752906,0.3879610452937458,0.44887866284242195,0.5584732512423435,0.6677519503388,0.7447500546369161,0.7874616663782702,0.8073078289807842,0.8149208986695774,0.8189116144579276,0.823076796117955,0.8290280837149598,0.841945482644608,0.864430942942359,0.8850759080949635,0.8916820883413609,0.8856441005780274,0.8796015448556028,0.8786706681925782,0.8836128563063128,0.8935604473205794,0.9056576950365374,0.9093206261930032,0.9013800524057036,0.8779784531038475,0.8212818635608345,0.728672276027124,0.6221796552703415,0.5307097527046172,0.45356598614720756,0.36666684898639884,0.2622306540077217,0.1604602604279757,0.07878505209094405,0.016344802668429578,-0.031668158419848734,-0.0777650244238768,-0.13228685309370886,-0.1860828844814573,-0.21600572988276684,-0.21567056907689036,-0.20765865700826872,-0.21710227523583978,-0.2659273671196093,-0.3532043635668951,-0.44307876669655605,-0.5097207510590531,-0.5447764481013281,-0.5792267882221546,-0.6308521035843748,-0.6893125383483221,-0.7394465231788767,-0.7791414287753955,-0.8046961663823118,-0.8012848967052747,-0.7215648843425096,-0.4776686057544626,-0.1356928721089542,0.047718119653801676,0.053668128374159005,-0.03306505114878532,-0.1537757664393227,-0.279658950469494,-0.3799776761709537,-0.42677895319711745,-0.4094404917033219,-0.33896330374413636,-0.25510129358253036,-0.22347814147288989,-0.26290891159109764,-0.32275593183676116,-0.3717266560003177,-0.4004088074338775,-0.40766502317386993,-0.39669815617978876,-0.36552111402660686,-0.29899182254149964,-0.1871304763977272,-0.08048655907349257,-0.08374470821479195,-0.27185197778772696,-0.5498547812528959,-0.7287580674235807,-0.792708335645416,-0.7811490955836372,-0.6921864233007284,-0.5071065407491424,-0.21922067864164144,0.14284138425488516,0.48484869910636436,0.7091811825806673,0.8300764916387064,0.8925627273058383,0.9205763504085431,0.9232910413202013,0.901592669345574,0.8635108679199847,0.825088737406657,0.805286838829379,0.8122821230974215,0.8321338315913062,0.8537718049740858,0.8731242663246467,0.8919046844185745,0.9110873432569654,0.9285627276395065,0.9311561734470151,0.9224235989153854,0.9188513116466243,0.9155383947929164,0.8983924213602874,0.8460326592674435,0.7086625076155187,0.39676749984117465,-0.05315072393858805,-0.3927060417030038,-0.5576392095290066,-0.6040346052560367,-0.5562090975108768,-0.3752798063834806,0.05051213462986529,0.5604483470927778,0.8027479326481961,0.8840418593209458,0.9160856445267341,0.9322452008464326,0.9263126066393672,0.6090533225143171,-0.5648914496351612,-0.8159755303581419,-0.879855176940913,-0.9013567373276528,-0.8987789285308262,-0.8603451960472553,-0.7043959645149388,-0.10620762693207636,0.6107376876773289,0.8345288163729518,0.8990836910885757,0.915382789223826,0.8978823702792906,0.8086873391780955,0.4762212593770159,-0.16954415030485784,-0.5601455198861008,-0.72954022953317,-0.8245785772673611,-0.8832343106572756,-0.9193684684175092,-0.9405400998663227,-0.9524307910502426,-0.9596726365613997,-0.9663956408746737,-0.9756754264915453,-0.9859362069222175,-0.9891950136138221,-0.978883912075083,-0.9620649801755647,-0.9553545578486413,-0.963594695207749,-0.97229856170943,-0.97174920687436,-0.9689778031720492,-0.9667230342793303,-0.9524712995078245,-0.8396238370622374,0.2837918247214004,0.8758102105887675,0.943907473716346,0.9593041089714917,0.9614650880239247,0.9561380134297648,0.9408193651977552,0.899030865084551,0.7793634913422242,0.6215097991418265,0.6197697452042028,0.7287531908771657,0.8316990952417744,0.8954754990279351,0.9284250471246823,0.9400971333219713,0.9411580340041016,0.9395559446237866,0.9371937840818497,0.9359553127122746,0.9361016078965656,0.9284021494627641,0.8713207605111742,0.6419576361471815,0.08776376559967491,-0.4894753950900977,-0.7802050976945919,-0.892060805258232,-0.8869128017818141,-0.6909027665281777,-0.25742404135314806,0.1171477605130015,0.3027818743134366,0.3639103592358084,0.3224683220297204,0.03418391140815128,-0.5229440256173461,-0.7097836687835039,-0.7937356578358581,-0.8623989095587189,-0.9173622624350398,-0.9560399108802831,-0.9788441079458389,-0.9884979553113559,-0.9887002592977386,-0.9826035033395781,-0.9715685758550573,-0.9557301706975576,-0.9330944830177639,-0.9049881708789723,-0.8828534006294364,-0.8839885143184324,-0.9038674627000827,-0.9217585352815263,-0.9264635567513817,-0.9150742773040256,-0.8802129750596381,-0.7829616692019293,-0.42578944656722667,0.48062901154889615,0.8724902228358864,0.9498171435592839,0.9706849717023771,0.9771981881701136,0.978511220021089,0.9777668537319606,0.9767003900538304,0.975613350395392,0.9741348280688223,0.9708367486584082,0.9644486240196719,0.9534497419538708,0.9355824023031667,0.9076683971673302,0.8655126810342594,0.8038605752519532,0.6988201942017155,0.45218224865230416,-0.13953066843313966,-0.6937250301239901,-0.8745796353034522,-0.9212494878629256,-0.921259779034737,-0.8377188743591031,0.3364197518929149,0.9566881436040943,0.9882894107810423,0.9920058088108026,0.9896735468881754,0.9803138800719509,0.9476756103662272,0.7974671536582207,0.30688325588644266,-0.0003444992142778758,0.1283708210053817,0.3866658321985338,0.5276672590285292,0.5481836954333356,0.5027704051073919,0.4267421269578884,0.3544963555786047,0.3183132002747944,0.34432086301122256,0.4350755572433736,0.5399497872250387,0.593503123899563,0.538993934915795,0.2887877292510371,-0.20339790810193492,-0.599912225936515,-0.7740362453247991,-0.8436171218878438,-0.8698058853841599,-0.8764524965841068,-0.8727307703448474,-0.8622074912166144,-0.8489750433689655,-0.8450553777555353,-0.8599496089409951,-0.8876099097972638,-0.9157702639608355,-0.9359976413359578,-0.9457716184914174,-0.9458907382143498,-0.9389970120573385,-0.9288710291457078,-0.9198852766149074,-0.9156978988895302,-0.9184339227531428,-0.9254875682386762,-0.9320078809926764,-0.9369102408814952,-0.9425775860711317,-0.9508214468243816,-0.957472860186125,-0.9595996759576085,-0.9581122588918343,-0.95571646604474,-0.9530674987154111,-0.9475618639056945,-0.9341632639480434,-0.9070481624518778,-0.857069616775268,-0.7647051142949357,-0.6091445026155701,-0.33370045087198813,0.059517427575809884,0.3769950768332261,0.5242197615056928,0.546487851452206,0.44028201302172665,0.10440067420507616,-0.4609804037773763,-0.7892906341325355,-0.8906106868708369,-0.9261824656376706,-0.9391255470736308,-0.9212101134240231,-0.7534137551088416,0.25209304969080826,0.8294958401169262,0.9266373902302935,0.9541884212751909,0.9650731096896183,0.9701283777592928,0.9727209195513333,0.9741033053864039,0.9748361266829247,0.9750074562255094,0.9739875367374894,0.9714651531932329,0.9690090882825689,0.9686322575779329,0.970107452427791,0.970669160605307,0.9665525056523309,0.9495605172093143,0.8758917306482049,0.4115511023143599,-0.5914818639276519,-0.8573641266911968,-0.9230252330578755,-0.9482532079819849,-0.9611393880904654,-0.9683911019897596,-0.9716538668498546,-0.9711903417328366,-0.9661003741336458,-0.9508235455165575,-0.9075040931279108,-0.7921998002324497,-0.5817622231674845,-0.401820388460298,-0.32579668888672,-0.28579299927588797,-0.2044726570183623,-0.0492827373874215,0.12408071330915157,0.19504982232836085,0.1064237480360209,-0.1413144194727604,-0.48215079934473315,-0.7633109232780053,-0.9011563363105015,-0.9495628877225972,-0.9616634265245982,-0.9619823069540889,-0.9613132552554414,-0.9637695165558038,-0.9694201398369766,-0.9753539172016944,-0.9799370129074713,-0.9826984242746556,-0.9835578112469564,-0.9823578546745643,-0.979577405400273,-0.9751500486661465,-0.9679259985113182,-0.9594376970287487,-0.9545262642010491,-0.955569663922152,-0.9595977255493525,-0.9633613757987896,-0.965164554707607,-0.959053927339882,-0.9295171641418671,-0.8433018383996956,-0.6392112208714987,-0.2845988412847097,0.11259928161263316,0.43394248771371624,0.6889003983885228,0.8321710700421326,0.8770558086870321,0.8926232767267576,0.9107469047539435,0.9339105760680255,0.9562261444368703,0.9714818201754192,0.9776771468566258,0.9771697714412871,0.9743562273495038,0.9717535697356732,0.9674188540941374,0.9594320145777644,0.9485494715909187,0.934381000695457,0.9147003851668339,0.8899798078078824,0.8695735943184362,0.8577000077687328,0.8522655797698007,0.8541392081628292,0.8725246717855865,0.9013528005226307,0.9267810637129352,0.9303528621824023,0.893201046740576,0.8056629759191105,0.7019534980579709,0.6436517181019592,0.6665771677566826,0.7490264764692905,0.8383635793931601,0.9011747425784151,0.9374218844575234,0.9579816480993343,0.9715864869145072,0.9816945556242861,0.9881902108795864,0.9911826540636925,0.9921956832381064,0.9912227041387494,0.9859833560621163,0.9720945788826125,0.9384612710619115,0.8342125345596365,0.5134513771575118,-0.022815532764658045,-0.4118689983645608,-0.6221633117910367,-0.7263400016178768,-0.7709659757233625,-0.8062839683280065,-0.8505348313610372,-0.8873229578208215,-0.9062115183525178,-0.9108933820091485,-0.9069718563107042,-0.8981362815553884,-0.8843509995180284,-0.8558353621606506,-0.78468105504329,-0.6193725423664351,-0.3225145025025358,0.016184574874822617,0.22951597586397446,0.2656327294701205,0.1137931078630206,-0.2399803972902609,-0.6173090842009372,-0.8170373719749495,-0.892373861764016,-0.9165101667722966,-0.9165766475862007,-0.8938472994683746,-0.8192194524117954,-0.5520263016984217,0.15937985618794942,0.6465243823356545,0.784024264957335,0.8118708881582518,0.7979782718319077,0.7607554933845515,0.7059419336029832,0.6109998507850268,0.3887850255004207,-0.16175767645960482,-0.7380106288783113,-0.9015878607952701,-0.8975928450811766,-0.851616705151344,-0.8015801632056306,-0.7643250165560354,-0.7481561176276947,-0.7563240744668788,-0.7674824392992672,-0.7127338363424137,-0.3782759205488168,0.4446379229948114,0.8630307243734511,0.9578763666340327,0.9820933081300295,0.9895266193572295,0.991735186125872,0.9917582505973487,0.9903921531317526,0.9877417640123636,0.9835550218678801,0.9768735295694575,0.9654151457412837,0.9369934089101707,0.8367311937754843,0.5883698671925396,0.3255140618798494,0.21935222158315554,0.2664771838211695,0.38793390215232254,0.49732631246807474,0.5368889534316327,0.46762039589973053,0.19568190136293853,-0.33389250796420444,-0.7244893774317189,-0.8655350097106396,-0.91587568969095,-0.9402386759154885,-0.9562035168975913,-0.9689543690287487,-0.9791370508952609,-0.9866425730790153,-0.9913446277696732,-0.9935784784828123,-0.9934513767939315,-0.9905078153458704,-0.9843168547096616,-0.9829068264090406,-0.9889915086201174,-0.9930764590053698,-0.9934458058483576,-0.9902532560233486,-0.981407722476069,-0.9585268882678408,-0.8844918635944626,-0.521942835152019,0.5142726134093608,0.8717000585140192,0.946945349390345,0.9710305044317223,0.980781773534089,0.9848094359166828,0.9859897340707036,0.9851614339299248,0.9820625039388459,0.9753001537469008,0.9605434175249206,0.9214326759887873,0.7688834150519722,-0.08177649858307069,-0.8402913675926056,-0.9562591341489086,-0.9828566196106077,-0.991973263156658,-0.9958354823037148,-0.997249541479488,-0.9969204829729728,-0.99568192941281,-0.9926882885542219,-0.9826837914804737,-0.934890939580825,-0.6458802221431742,-0.002936431742735741,0.23145449250109634,0.22789927200954335,0.15692535221379492,0.06835792824806121,-0.018668559934917194,-0.1023535724830328,-0.18997454021882898,-0.30230583658823973,-0.43916724107801697,-0.40194260129564274,-0.28029098857657536,-0.22094218647807648,-0.21109302583437342,-0.2367213511889645,-0.3078464169391337,-0.4537378081179792,-0.658691268031913,-0.7941320062433286,-0.8367684623944243,-0.845742602660942,-0.8443084611363789,-0.8353469902292342,-0.8175228766915505,-0.7813114816361961,-0.7214814476388954,-0.6660015915639231,-0.6740690280490406,-0.7531983632366016,-0.8376308004513519,-0.8818971345692117,-0.8982066439886525,-0.908536035962102,-0.9220159772806094,-0.9392067896185713,-0.9560562238739896,-0.9678065523568747,-0.9728588024872654,-0.967153632553046,-0.8933372171379665,0.7973239448053059,0.9843701168355177,0.9928271569445918,0.9888193289026039,0.9723920265845399,0.9395561200956702,0.9046718442129801,0.8894626141102552,0.8969197141204519,0.9141389781197836,0.9276597715564454,0.9342917457439661,0.9346509124673222,0.929609621130425,0.9178739599538757,0.8909379136878326,0.8131937692290125,0.5083846697519855,-0.3649459772092663,-0.8129022965199104,-0.9132594429367905,-0.937340819149398,-0.9253819948090972,-0.8482603853585676,-0.5863498532074466,-0.12610497971845677,0.18522534617657369,0.29077147969152506,0.2882319647745835,0.24961726276831617,0.2177630458232712,0.20524479817527866,0.20944835625394598,0.2238135400236493,0.24947483491116024,0.29158425581791714,0.3521570696970786,0.43084013128554294,0.5283932316993482,0.6437715203539465,0.7645946199015295,0.8655020958070035,0.9249179802892177,0.9481185985627453,0.9542689879365824,0.9562647995704426,0.958243043852514,0.9595594415335782,0.9601117509093176,0.9608913897892687,0.9629281201597486,0.9658156653048151,0.9692919732256877,0.9726828421304344,0.9766814862180414,0.9822753229421493,0.9901182071226156,0.9940401036301985,0.9594847601925545,0.7779234516431254,0.3703953538849111,-0.04708961742438198,-0.3242947240645003,-0.4905488624153707,-0.592539593922444,-0.6621304502523468,-0.7139972907545686,-0.755599561788374,-0.7891695560233077,-0.814566661378189,-0.8368445431415455,-0.8597280489071112,-0.8831666970045728,-0.904069062430043,-0.9189852478608699,-0.9274455650655244,-0.9307602169608125,-0.930998301290987,-0.9308963580115103,-0.9297799157311708,-0.9250629629023048,-0.9132403750606721,-0.8895106159332864,-0.8447013837292361,-0.7422715985309274,-0.33044397437502443,0.6503716565860411,0.8772053391852533,0.905087016227338,0.9005280542632776,0.8696737742736841,0.7901823427899141,0.6192961321006653,0.3102480548597719,-0.10598888518996685,-0.49988007343161384,-0.7589283060410327,-0.8676205191075712,-0.8975945544241286,-0.9042771152967769,-0.9095918968232914,-0.9155884279829498,-0.9147515063592461,-0.8868378462361233,-0.792518062130864,-0.5520905189890571,-0.09121526195461843,0.3763525847174213,0.6216898031744397,0.7189612194735752,0.7528322541126928,0.7554504787286942,0.720951180396114,0.6070321850836164,0.3052184872125022,-0.18591999552544158,-0.5720062995454167,-0.7809530912919722,-0.8803427408029864,-0.917231993072722,-0.9129895884294313,-0.8418880985547478,-0.597506062212476,-0.2410751311692304,-0.07386746458610609,-0.20640705051404976,-0.5165551591426667,-0.7026194180572297,-0.7672068386431242,-0.7898082030419327,-0.8025137482542154,-0.8152448959568502,-0.8281606383468175,-0.8331090781755411,-0.8109728464364069,-0.7138295611826814,-0.4083890741709082,0.161270791787597,0.5751455593846606,0.764023300533611,0.8622007192252653,0.9203786397724979,0.9524828479004979,0.968322391226804,0.9740907043712469,0.9701649412817114,0.9399738860344227,0.5836630792110625,-0.8502653218353019,-0.9638408828596281,-0.9797298265719845,-0.9824913145333303,-0.9775418592514876,-0.952656173294985,-0.7497287279854988,0.6409908268690252,0.9224112635347612,0.9595042906403513,0.9694166491388994,0.9720728416162824,0.9719242861932516,0.9712255062649053,0.9715706478632716,0.9731244920287088,0.974273393661554,0.9727227786062215,0.9649017961640421,0.9380181467115526,0.7909057650792439,-0.3409013348457007,-0.8837200730625172,-0.9504857205266389,-0.9667449432580683,-0.9688083591934102,-0.961122308732657,-0.94896612406296,-0.943001525457221,-0.9511217005425046,-0.9682521470420873,-0.9844966684164999,-0.9937264498661781,-0.9934853678241118,-0.982419201315648,-0.9585897750718491,-0.9180495606811814,-0.8529090449289228,-0.7459174142483993,-0.5546092603989162,-0.21540184777809762,0.25159001452006013,0.6289261297605362,0.6929400480063467,0.4648401019702478,0.1172023480718965,-0.25275265083350307,-0.5458191621376657,-0.7055189278500091,-0.7532190701991404,-0.721071656600106,-0.6153774913517773,-0.48360178931524705,-0.41587642987930057,-0.4084311890525527,-0.4120637875041858,-0.3969609576012111,-0.3507227084033694,-0.31324341127084376,-0.30384081064671326,-0.29351899235471735,-0.24484464496711497,-0.16007826033638836,-0.07107412992149553,-0.015345798484735681,0.008008285220552615,0.008829039672744027,-0.017617433803546356,-0.0713435859440571,-0.12462079527456789,-0.13385029240496582,-0.05324725759752515,0.17301607548898734,0.45173507069666863,0.6315460750459562,0.7525270079362683,0.8520998197424425,0.9272197776941669,0.9683378944988865,0.9819402465156746,0.9781800450540673,0.9616586152621668,0.9328134318386561,0.9018447587796998,0.8939762665340603,0.9079526555402221,0.9204667997030725,0.9151349053162746,0.8728525553792149,0.6997906233880253,-0.020967945909297847,-0.7240265449055651,-0.8693546096820228,-0.8913998038585025,-0.8862927050233194,-0.8776367134981067,-0.8734946812091545,-0.880022234683743,-0.9025507016256071,-0.9281529592355042,-0.9426350953034484,-0.9469687885064936,-0.9445578000701188,-0.9363165832245058,-0.9209426447934203,-0.8973261046701575,-0.8598071450778904,-0.7891434287285959,-0.5880097734729313,0.06643651469118375,0.6917382963654278,0.8676723489441392,0.9172839852834961,0.9299766223307931,0.9278972368567747,0.9218929887997391,0.9164271010715537,0.9078696965255751,0.8774298378985081,0.6780982182654446,-0.5604525833027155,-0.9145222024041817,-0.9556702254948147,-0.9624965936474643,-0.9546597850501863,-0.9162257631211281,-0.6913245207403113,0.37455574815777437,0.8020883366031465,0.870758100330613,0.8693338255183808,0.8235047850426558,0.7451086756766999,0.7146146500405752,0.7989170987527994,0.9002606200063359,0.9531544154301475,0.9752714110806036,0.982977038430094,0.9804593723202271,0.9638183508153666,0.9273856422348172,0.8841784611583593,0.8689675564017217,0.891199058540674,0.925155845277194,0.9523523299095009,0.9712347859637035,0.9840537966514623,0.9917867801849812,0.9953015298312188,0.9959695347693523,0.9949970513952052,0.9921990288823478,0.9847167440092361,0.9631592669325667,0.8912971260102341,0.6312189043250284,0.002702946043760361,-0.49741309779623133,-0.7024157671806219,-0.7904212050763761,-0.8387803210750852,-0.8728652690272242,-0.9024136307048314,-0.929917557449359,-0.9533933026116401,-0.9712797811350156,-0.9829369571142341,-0.9895360765753911,-0.9928893752289469,-0.9941719223098955,-0.993898494191381,-0.9922440279388042,-0.9884287474668952,-0.9792063050571619,-0.9433022057715656,-0.46524269408924157,0.85993786345812,0.9561905807609595,0.9698327912533864,0.9662458716327508,0.9447117192007526,0.8778821651771198,0.6713711188042187,0.2065861089382562,-0.23101310988700036,-0.45930475303935925,-0.6099797730025958,-0.7496304074333504,-0.8588811764077476,-0.9221257873244261,-0.9544537486352572,-0.9711728398881047,-0.9795065222641919,-0.981486086922944,-0.9773395635820625,-0.9667351534756057,-0.9451299190932655,-0.8987093569160679,-0.786742153499657,-0.5449637480407529,-0.18407211260809248,0.15474144262882514,0.38326423587145747,0.5276198474758166,0.6185872902080033,0.6788626657344488,0.7254373163685359,0.7751937796561627,0.836898993341364,0.8335337663874813,0.6968626296697721,0.5980576986309208,0.5768563868218678,0.5983228980389156,0.637625961538519,0.6765131858012704,0.7080620753020588,0.7244785691582211,0.6922821927177227,0.5323112205231068,0.19925238088299563,-0.16103808716899193,-0.462249812352578,-0.6809716987680017,-0.8083081355398666,-0.8563977187903753,-0.7382891601504983,0.6187990165777114,0.9403109138470165,0.9747038361101453,0.9847624902026282,0.9886535196391978,0.9901151256694342,0.990272228084593,0.9890336501458223,0.9847382769780012,0.9730822140445274,0.9417757223991521,0.8617316577429324,0.6520974818775319,0.0956197447091476,-0.6189203143269092,-0.8885221422092466,-0.957992105846382,-0.978557239215084,-0.986153594969401,-0.9890186421838613,-0.98960659849028,-0.9875867726067927,-0.9782443571369106,-0.9332755393396204,-0.638988146881264,-0.026912698649143238,-0.11960614848366302,-0.6331462130431147,-0.8803008974294682
