0.7026442271123091,0.7187037684187404,0.7013823350335746,0.6681378189356271,0.6320136760628706,0.6115416956580497,0.6108573882653332,0.6256011411226833,0.6448225280032236,0.6640421392290152,0.6809024832151941,0.6991905158857509,0.7312979256592941,0.7796436109116762,0.8234816806391178,0.8457770790830903,0.8459468254156826,0.8260337969731384,0.7820802283537727,0.7060740301004392,0.5944364409680533,0.45913458866650586,0.32301140135298506,0.21044288240415066,0.13059812181221137,0.09116281945953168,0.09827640925380791,0.14075276403849957,0.183158873779932,0.1953538190353711,0.16454531595308375,0.09695979894176761,0.00682814572086436,-0.07917966531265598,-0.14131894613980545,-0.17818132258032024,-0.20210031268650902,-0.22860993513241942,-0.2626033250152551,-0.30469565824385236,-0.3467563390036421,-0.38224575702961455,-0.40440227574191234,-0.41203580121579536,-0.4062815588683748,-0.3963012800031437,-0.4058143967830103,-0.45438456224119494,-0.5405851804252612,-0.6596649684716412,-0.8087395820655107,-0.9256426598384573,-0.8371989470796601,-0.5944683641856765,-0.3969139220059364,-0.2796602268214529,-0.221378321836202,-0.20565967499415375,-0.2223991290524198,-0.2738308092613794,-0.3736284549500173,-0.5094500164199356,-0.6216316253140508,-0.6531466471965327,-0.6053780890388536,-0.5192690350744114,-0.43249840623505165,-0.3573377835300277,-0.297977729283944,-0.25900400449664907,-0.2370893429449354,-0.22389954867613338,-0.20461116724864234,-0.16283269343448906,-0.08414370055542522,0.04278612006724659,0.2162572500313498,0.40853802903037756,0.5778022575716498,0.7021613535181316,0.7682165124474172,0.7490115612973558,0.640074328339051,0.5072094653274783,0.42298969307844114,0.409269987799264,0.46034096125478113,0.5408732218830874,0.6166505337430077,0.6729587253717682,0.7092161070579208,0.7294444249373426,0.7379973081854893,0.7365433360681004,0.7286527781180608,0.7258657142329398,0.7327514240441562,0.7362720413004946,0.7219538601254595,0.6711290126493727,0.5611372049788595,0.3897390105194296,0.21258461562389086,0.09233881859805355,0.04715373249655887,0.07075437810694242,0.14343552647092553,0.2269282269304956,0.27094953184518517,0.24849254680494534,0.16557559757357182,0.0523780271136914,-0.05580090476657997,-0.14246513332118876,-0.21752331648450665,-0.2928632918764542,-0.3679106324447431,-0.4409909523099848,-0.5069420179152995,-0.5586529351268174,-0.5974544569318154,-0.6217243570785264,-0.6121408325298315,-0.5501555157333896,-0.4736102545930657,-0.4537621623774405,-0.5242826334098588,-0.6871106489326257,-0.8796953761752639,-0.9541775800743845,-0.8949148759825383,-0.7963960078101502,-0.7114992115339231,-0.6595493481848623,-0.6470812698165249,-0.6712178500139393,-0.6971321517224712,-0.6770688564475025,-0.5948251271473126,-0.47043970748647423,-0.34258730339108884,-0.23909276263798931,-0.1623427418937037,-0.10193267336945759,-0.052022602846455684,-0.015256120559016878,-0.005866052004955109,-0.052724913347157266,-0.18632341923584791,-0.38731658132531693,-0.5546806425954679,-0.6284955646527828,-0.6219130776028666,-0.5353061959727001,-0.32123424454599175,0.004041348596034809,0.2373912087422128,0.3093311538006617,0.2843062518634714,0.2265928640409728,0.17733634730007053,0.1554258330057033,0.15988320347742918,0.1858291015521701,0.23128091493859373,0.303809472133566,0.42462085169482144,0.6349833428142752,0.8752780374368926,0.8234696077209531,0.6465115948245203,0.5395153859027683,0.5112348267297733,0.545689477624055,0.6088433012826615,0.6599935408596042,0.6799621151730784,0.6807281864377556,0.6837478411097988,0.7086175702895423,0.7599247491116886,0.8348375763100919,0.8755115260415415,0.7634162421863884,0.5926205834475368,0.5036469276178117,0.4927882398309267,0.5321328743110652,0.5780327745409602,0.5131030639588862,0.3302430242581772,0.1701673557835298,0.049745222038002676,-0.050443291463220824,-0.12574446513156903,-0.16976692078053005,-0.19017475810822088,-0.20047574901944426,-0.2113583430069395,-0.2317845720699403,-0.25987703173018706,-0.2915747705217345,-0.32134399131591496,-0.3485137307763611,-0.378823588944317,-0.4194778199462398,-0.4813240997852327,-0.572716264958917,-0.6865065073677329,-0.7802332807633519,-0.8139054612621244,-0.7902876582975582,-0.7376595364534354,-0.6790915248659921,-0.6229660513916809,-0.574240838257832,-0.5326741964880869,-0.49886426123622185,-0.48487313904304497,-0.5070723507176476,-0.5694000374159442,-0.6460661654833283,-0.6941575972938716,-0.6910055716279504,-0.6268739209727058,-0.5066100271855749,-0.3730719006276701,-0.274194057207657,-0.23421444348336126,-0.23991268569004673,-0.2670008325561167,-0.2911888659665858,-0.290491376994098,-0.23824669531586778,-0.11162779672874856,0.08535737277565987,0.2905093517525767,0.4279467578330613,0.4845140708103928,0.49155159371163243,0.49381905696238626,0.5211853866965609,0.5752739988598681,0.6352119940028403,0.6716125822074556,0.647970377609241,0.575428346590969,0.5089501668001478,0.46283223966735065,0.4344941440907533,0.42100052078566863,0.42194119888638515,0.4377304334567823,0.46709864260650125,0.498172618244083,0.510900546886965,0.49335869844568786,0.4559542618244964,0.4213147780309037,0.3986468725585892,0.3837232496716603,0.36926732804380064,0.35339263321608233,0.3364146732406539,0.32211320609956995,0.31582318824403727,0.3229061655142593,0.34907206534698476,0.39235009560253564,0.40702045278129356,0.29778237660314055,0.16430992271610675,0.08723397026874082,0.038078149957335654,-0.016200423708785047,-0.09881653265136467,-0.2036270252527073,-0.2781774762486662,-0.29062023611959026,-0.262751420560655,-0.23387134090416117,-0.21641830743550483,-0.2054055737479857,-0.19510035440072387,-0.1839787300488332,-0.17648875014089202,-0.17530950917541288,-0.17839001291551781,-0.18164324698708528,-0.18230841823568594,-0.1814300817062121,-0.1824142156298097,-0.1913531684754348,-0.21753078883729424,-0.27191129253726726,-0.3676575397655845,-0.5101883919976608,-0.6522903747281467,-0.6946720576375162,-0.6644835865644301,-0.6386555408230699,-0.6264824007718509,-0.6244397159999288,-0.6245388992814148,-0.6254499221462065,-0.6257353336523259,-0.6196870974821683,-0.6009303277244705,-0.5568787314861732,-0.48506187163753295,-0.39127659874485193,-0.2892496816685773,-0.1858238610351777,-0.08721973434153962,0.002166638914370096,0.07690237658938695,0.12970109678674943,0.1614501999314505,0.1796316150897827,0.19944474839084123,0.23071713669584012,0.2852190092969141,0.36077915928161436,0.44432332949318143,0.531238772924169,0.6237301277989864,0.7251119927309431,0.8306958344938251,0.9085697369836097,0.9326061223403305,0.9196459088809188,0.8331894665641884,0.6651657379814273,0.5329123132487288,0.4749979690761938,0.4614173339313975,0.46235070864170225,0.4660344999140434,0.47433926969088464,0.49522943861519275,0.533678908730312,0.5887959083187106,0.6403905778812665,0.6282571945618015,0.5226776865363145,0.3892960527325089,0.2911050770449734,0.24209707799562527,0.23191018673506766,0.23566835851403814,0.23189285911722124,0.220068556705307,0.18706016302261708,0.11876413598754026,0.0009831363062561764,-0.14718447600243562,-0.27362055633817073,-0.3536132413918853,-0.4095973186985944,-0.4739799560000458,-0.5907554098533597,-0.7037831706679767,-0.48303373012107653,-0.2918754611600549,-0.2106936673126791,-0.1807793096022239,-0.18111612699814625,-0.20540098176640081,-0.25125553491936037,-0.31116068769006133,-0.3743500867166522,-0.42922110058725277,-0.4726229974921109,-0.5055193286927868,-0.5366924158366867,-0.5818637220305894,-0.639121006435274,-0.6890553290895065,-0.7073284102559777,-0.6936325268670241,-0.6431518529504555,-0.5405745367639107,-0.38416658888691013,-0.22332280511732044,-0.11884233085715651,-0.09477681725380407,-0.13610616333408684,-0.2086412794461558,-0.2763608179642185,-0.3388420287505111,-0.40697226432742695,-0.47466862465673204,-0.519332241841789,-0.5113523761249029,-0.4363156228569839,-0.29336032483145946,-0.0956568455083543,0.12333361917092509,0.3210851905458457,0.41734844016619693,0.42899199742394356,0.4050044294579535,0.37483532744545883,0.3549357818218239,0.3673672087362237,0.4497656879641299,0.6451530031777974,0.8885864328576539,0.9419541290344657,0.8568193943411636,0.7640798225428225,0.6945324735058818,0.6593183884855919,0.6723914086666186,0.739513414933437,0.8397999802348259,0.9223751742077153,0.9348327283834353,0.8768515626446695,0.7894225278877408,0.7054986272797558,0.6365575362989139,0.5791060954980819,0.5268897612300354,0.473016584969831,0.4050825018195166,0.32168533815370526,0.24194381701859013,0.17679211967696876,0.12605026117070703,0.08309731801961583,0.039793016562372316,-0.013418588935787488,-0.08519921658346559,-0.1716782337496442,-0.26028968452748513,-0.3427910249659681,-0.4161575620547434,-0.47536939206746054,-0.5171013505342598,-0.5444756896002755,-0.5588477615904001,-0.5627303832517737,-0.5702071147188952,-0.5977332280936543,-0.6575824460709891,-0.7364032928146447,-0.8023794114999241,-0.8362556097253376,-0.8337297385579895,-0.7952289094668078,-0.7253741529954447,-0.6441737711800307,-0.5779419086825245,-0.5464555468680907,-0.5579985165378607,-0.5982275517031452,-0.6413723956877556,-0.6605614734414832,-0.6513028531786569,-0.6296804170371813,-0.616478847112816,-0.6176162902016806,-0.6260152391301341,-0.6469739935725531,-0.6748263638309804,-0.6723503240167151,-0.6056091322525358,-0.5067478819368751,-0.4205065546744458,-0.35161310245176863,-0.28463568512515247,-0.21208096611973973,-0.1419707595407282,-0.07421361956491208,0.004344147178005554,0.09781625838796719,0.17960778694195328,0.2359336077839326,0.27706508266921326,0.32253609095392155,0.39631144693426873,0.5353024256594554,0.7672371675032728,0.9031813169278149,0.7397034092106988,0.6070501612942584,0.5662007839031681,0.5929869895290719,0.6707925654390178,0.7933979376589841,0.920467995292245,0.9314270052035553,0.8297049288745035,0.7552382528836596,0.7389159344637473,0.7545124636199327,0.7700402739623466,0.7701136954560796,0.7511666079507113,0.7029980639576862,0.5986608767620406,0.42961801956766044,0.25422014163215334,0.13270928582328648,0.06969706758826054,0.044826785650255004,0.03762763859025362,0.034228639695421045,0.029656843876066055,0.025122309123993943,0.021789918770503368,0.015066225128228923,-0.009420691196394142,-0.07260053307268569,-0.1851844038465753,-0.32069628047230636,-0.42721184379445537,-0.47699381388098167,-0.4718821156087986,-0.43695277782966185,-0.40142406483572085,-0.3784312722167615,-0.3648276631688526,-0.35497684669941026,-0.347695902797896,-0.34118607009784235,-0.3341098916289486,-0.32991739195379666,-0.33019509641776174,-0.33574134135009553,-0.3437334228610165,-0.35356406688920056,-0.3602190373600916,-0.35400163967029546,-0.3199608957474071,-0.27085709933541124,-0.24716794885071602,-0.26164086092803857,-0.2913182843191066,-0.32978635364193665,-0.37577481433846593,-0.4267306053807939,-0.4777318735860603,-0.5286596483750865,-0.5793073535273283,-0.607784748534869,-0.5758020642318715,-0.47766968897700324,-0.36830969355113635,-0.2887627088258979,-0.24534441175598967,-0.2198449579001696,-0.17791253120783987,-0.1017387288031961,-0.013235303929602992,0.07916879232024297,0.19679541182587085,0.28926406588699793,0.19306762091407192,0.12377992008045599,0.10685327421771737,0.12727590970637026,0.1798026903346711,0.27226323414268494,0.42011574014087394,0.6018554680251414,0.7446238769120462,0.8242471671566658,0.870564660930376,0.9017620342910883,0.9257995107421118,0.9432143467978668,0.94601788019496,0.9267936019752234,0.8959658069326957,0.8772425769100045,0.8897802449018845,0.9191614018179127,0.9208734374470539,0.8742569349263088,0.7812573149346073,0.6368748759306895,0.4766992701865895,0.35592405381732045,0.29192309612621464,0.2658624318916061,0.2525599333892812,0.22631733019585695,0.18296072000618402,0.12531526637578327,0.05614360404543325,-0.026822208162773156,-0.12337877313168692,-0.2135133487773528,-0.26665893951188946,-0.2897469985607334,-0.3104478933227458,-0.35253476872425193,-0.41690623334655896,-0.48731408389638653,-0.546977403215992,-0.5906882343909102,-0.6198454561541025,-0.6416675585191867,-0.6620136386675617,-0.6897799801031824,-0.7280095367004131,-0.7743023788242371,-0.820704247640982,-0.8582086979619608,-0.8795072560629121,-0.8813104740375178,-0.8600155243104608,-0.8112246562918217,-0.7564581908483139,-0.7370823475379604,-0.7638625384175207,-0.8119485980134987,-0.8505638069973042,-0.8739531637172276,-0.8774476449396106,-0.8369602337945636,-0.6880989967708605,-0.4222509859567645,-0.21208096064411064,-0.1669626117809183,-0.2571286356832779,-0.39750829641554586,-0.5123207023929892,-0.5666730505491292,-0.5341465594174519,-0.39052201904545225,-0.1567923903865647,0.07547429533931345,0.2365207192939441,0.31970930337045966,0.34149538662965334,0.3259356936817322,0.31582321295201393,0.3562497871698194,0.4684024084015488,0.6060280189845364,0.6831863444297498,0.6991990761178573,0.6780538157908376,0.6460797148678433,0.6350720210173197,0.6591055345455669,0.7060081637725302,0.7453921731465912,0.7479616884864053,0.7229923901839947,0.7072275840315544,0.7224688360730666,0.7677689878283754,0.8263899282640286,0.8142074012344527,0.6763653061949886,0.5149182840417179,0.39569925587831956,0.3203407989778866,0.28183220197671516,0.2717324735358808,0.27916228253376857,0.29344119991706774,0.3085808402255244,0.3191261469400364,0.32500464636137805,0.32530326569513635,0.3023964780271632,0.23204703069787044,0.13044641658949666,0.04342478950765085,-0.019983045309963997,-0.07671421075241061,-0.13819968001815697,-0.22603184193214487,-0.32809013832361006,-0.4274006738894229,-0.5004600794209169,-0.5443592819465242,-0.566221332116357,-0.5715399393624208,-0.5693225346475299,-0.5765440822040715,-0.6050049208865699,-0.6495620326196831,-0.6955877569583093,-0.7315706403898835,-0.7556077114249165,-0.767789079050854,-0.772164693659522,-0.7741983121589665,-0.7812777049741356,-0.7963252143876449,-0.812330220793733,-0.8096920638981774,-0.7689627574931835,-0.6941097991061699,-0.60287388496671,-0.5011269618730364,-0.39870889508483826,-0.31103343005679107,-0.25057987525140374,-0.22214181066598168,-0.22289915185816064,-0.24689066937035947,-0.28670965918559543,-0.31411389119309685,-0.30247698273425727,-0.25724919492094295,-0.1952823989340753,-0.1089710340529779,-0.012526343689128323,0.036837925717507713,0.039091360696605196,0.028539651448100077,0.02213516215400877,0.02602488907465893,0.04083806638213537,0.06589675514808069,0.10649250566394942,0.17416604727469853,0.2890957466139114,0.4837723212198937,0.7433041019782484,0.8705043650323254,0.8131117328709255,0.7196281616747568,0.6328604937582348,0.5528647088449502,0.4863859513533256,0.4541326862052065,0.4757439850212631,0.583576557525643,0.7953386135139975,0.831217770439325,0.6417229262341956,0.5451750246371719,0.5336478069888512,0.5735633546180232,0.6463505530680304,0.6731984916347574,0.505561915356822,0.3162169357353932,0.22805229061887805,0.20106658972877828,0.1805248910685318,0.14814739764714463,0.11167190066151218,0.07214914376726032,0.018514543684524185,-0.05801179356177002,-0.1508063624208382,-0.2302603701869878,-0.2920037702955684,-0.3557784479996433,-0.4369483459134586,-0.5345989096058349,-0.6279318208643828,-0.6977933085644366,-0.7364109717537016,-0.7412221614567973,-0.7211360911049387,-0.7047069479043692,-0.7154125119235721,-0.7521749561880404,-0.7812388908890902,-0.7853771166628085,-0.7793500634912087,-0.776039072654303,-0.7637297142703842,-0.7112724944586892,-0.5986986034997068,-0.46180065076209537,-0.36136400481632075,-0.326593725896993,-0.34876044940768813,-0.3823889526010341,-0.42251606891374366,-0.4796820204046907,-0.5472981012245832,-0.6110245813107685,-0.6586151537969133,-0.6800066583900929,-0.670318400590663,-0.6322266938825463,-0.5625099206464298,-0.4551356729343171,-0.31980829482510353,-0.1942507090546881,-0.10824377065817206,-0.06346750176939632,-0.02954306620352946,0.026300223355765193,0.12233824101785573,0.23179787632141385,0.3216290813904494,0.3691696385235676,0.39676499805819465,0.4215056563960305,0.4548838834966505,0.499342156399161,0.5640675378761062,0.653972451119833,0.740772052634854,0.7901228849909187,0.8170911424840832,0.841448846579019,0.872282781103924,0.9099050577060374,0.9456003580577773,0.960255621738049,0.9321502013872545,0.8610015506645239,0.769788597330267,0.685926358017983,0.6314441937782505,0.6147372019246734,0.630076011000271,0.6701985155372571,0.7298896576160127,0.7855519657491571,0.7592965491927948,0.6423045588987244,0.5291488630719798,0.4503623530502916,0.39399002310783016,0.3324712471802781,0.2554406640784018,0.1665390168725564,0.06411722029083108,-0.06351278421132507,-0.21641632998685278,-0.36715136844340823,-0.48586059633049195,-0.5665715049055972,-0.6229667126363913,-0.672250118465669,-0.7238997419705963,-0.7782382043354623,-0.8041594392347668,-0.7132514292572406,-0.5375792094411339,-0.4993002899619253,-0.6021543925851776,-0.6003337975525725,-0.5741867337790707,-0.5652432609315218,-0.568266712521639,-0.5842295000910664,-0.6224193947057174,-0.7039091092450463,-0.848115383562433,-0.9524405204450194,-0.7979486815671206,-0.5655236551765288,-0.4159335559061973,-0.3704597828977475,-0.4383747127751838,-0.6074701853384651,-0.7720486633139105,-0.8445590191549482,-0.8652440583092811,-0.8710677865756796,-0.8709761446751383,-0.8595654105915991,-0.8226637037885266,-0.7542430230823537,-0.6545580523919546,-0.5194477282966329,-0.3515006588671948,-0.18003480987705195,-0.0401465095157478,0.058969750133624474,0.13482071635271617,0.20990284637009535,0.2977985594271892,0.4125708377084101,0.552404771610589,0.6770752949523341,0.7531304611979487,0.7688011479517566,0.7290247713056394,0.6724978304587138,0.6680067942946801,0.7906748516574553,0.9103338733901902,0.6646192459689587,0.4917513863184627,0.4294159494689566,0.4347850156387851,0.5027909165328527,0.6274784386193594,0.771774925032571,0.8818184537072297,0.9405755288727078,0.9592923969016592,0.9528364803338432,0.9281705949309279,0.8821226668760447,0.7996864454731274,0.6670228519946548,0.5078643578667025,0.36752252376278893,0.26591102086679635,0.19560341136246046,0.1454514647794943,0.10958588685333298,0.08310907392312333,0.05456371686652425,0.010007456977453024,-0.06603104204342099,-0.18181065106259903,-0.33482615936673255,-0.46895583638483945,-0.5343641381304037,-0.5656450140800761,-0.5861882696764102,-0.5929760478352267,-0.5820248125451882,-0.5614131092940647,-0.5372307355799093,-0.5082840529174518,-0.4670628162332575,-0.4252310029570072,-0.39821520216208545,-0.3944271449057868,-0.41510670048546905,-0.45612782473688823,-0.5039333659886084,-0.5390764909518092,-0.5426820668915074,-0.5133489027025184,-0.47236121615021814,-0.45079456211965246,-0.4710332677668607,-0.5396319500436901,-0.5463082537503243,-0.41926777533973136,-0.3353396129846997,-0.3020275124497707,-0.2930404411425495,-0.29928227170118493,-0.32359853206381844,-0.3764023098792757,-0.47940037658241014,-0.6603116120159807,-0.7356771594124342,-0.517049779732572,-0.3636206843854571,-0.2947887784828444,-0.2653594730884908,-0.22557249592747902,-0.08310996947885672,0.17466321202948054,0.36734271484932857,0.4659641465249606,0.5169255463704608,0.5517417336057564,0.5895278074754754,0.6419358512415912,0.7143607549137806,0.8037076284477607,0.8923054612169231,0.943853675295272,0.9533843627649218,0.958381694010056,0.9698679400351146,0.9827373822030254,0.9902150372656688,0.9872843924068209,0.9756693057895242,0.9581528233864588,0.9326067340009022,0.9002040315394679,0.8688018327451267,0.8565826009195658,0.8759646363430389,0.9031072737307951,0.8780828882462248,0.7758493859104652,0.6591766357292845,0.5843262370422712,0.5549118276862298,0.5318358365554543,0.42200173289270887,0.23361665649254212,0.06752391363448765,-0.045195270467879335,-0.10714360714676628,-0.13458693743386907,-0.15461342356920002,-0.20295145635114162,-0.2961840735358086,-0.4245834450605953,-0.5568970744774973,-0.6598803770855539,-0.7182757671271726,-0.736601786255723,-0.7249823669244716,-0.6862687548276984,-0.6185485224911268,-0.541051779525255,-0.5005795890297263,-0.5281585122531312,-0.6113665673716067,-0.6827348952740069,-0.6589536133372917,-0.5760391805095862,-0.5083980240333569,-0.4757558575939838,-0.46961226341965767,-0.4742751835500857,-0.4761399550307538,-0.4588465682322996,-0.41970792293716797,-0.36704713477456175,-0.3283392176867883,-0.3484220530883439,-0.44493048934030144,-0.5789168639714706,-0.6801067111885075,-0.7178931708822124,-0.6815167041491353,-0.5621491887396609,-0.40559967311432926,-0.277720801070108,-0.19468233629686768,-0.14910508429484876,-0.12754018305839013,-0.11734899696234803,-0.09196761672354718,-0.032750888456234854,0.06318705895950089,0.1688395398504877,0.2701507668098153,0.3563224491194549,0.41426770313907524,0.4511825664876896,0.48870835344664915,0.5531040305377973,0.6731940729240578,0.8394675403792161,0.9064743536555122,0.8111502224331483,0.7111139046531036,0.671358858011584,0.6834016169315036,0.7275354607037134,0.7781352027098785,0.8114087200478423,0.8357382310573716,0.8703460176838868,0.9015959592152168,0.916658317112829,0.9188890064631974,0.9137153719670265,0.9044708319467585,0.8898472766245387,0.8577512204504528,0.7834394455185528,0.6575687111540054,0.5231072148910779,0.43555545263440176,0.41994531944891667,0.4559151778105211,0.4872358368218172,0.46431817672816106,0.38192132889239155,0.2597030563789318,0.13674242843617437,0.039661697581278875,-0.030495043816453956,-0.08864120017486016,-0.14981981006566303,-0.22976588624784533,-0.3413457746728375,-0.4721259074933406,-0.5872468125934996,-0.6685734159472823,-0.720212516790288,-0.7581719441954762,-0.7930255690859519,-0.8259616821907939,-0.8523082857532226,-0.8754431984622117,-0.8992069036380463,-0.9212532763418507,-0.9407807004264773,-0.9575209914195143,-0.9703768708066172,-0.9755331260642948,-0.9617089630093294,-0.9071844914658136,-0.7832489261032001,-0.586698581657868,-0.3973491152321325,-0.30313890764045076,-0.3107400220484592,-0.36113132457261116,-0.40272309826017577,-0.43175589507065953,-0.47046091416994434,-0.5501556264601437,-0.6765772313559153,-0.6672411631383972,-0.48449234556664883,-0.3609726549015608,-0.30485282331277286,-0.29010504091264,-0.3043314582123142,-0.3388851684830317,-0.3572089298225655,-0.24231468627418748,0.049415192045719605,0.30672559785878994,0.4662360784291983,0.5688987322924008,0.6429363159759539,0.6964312867434784,0.72064537844389,0.7049437307976969,0.6628195830076605,0.6187978382370559,0.5811648852739973,0.555318321634768,0.5478300413565166,0.561677356348433,0.5956156924861766,0.6458028278984651,0.6999635891961428,0.7379084388032753,0.7553416441274273,0.759285576057276,0.7493835288274268,0.7086357666157355,0.6039477172261334,0.4585273600014392,0.3409626324490388,0.26309116147316514,0.20646381152922696,0.15854331203174735,0.11698594625544233,0.09036244919250291,0.09762637264810732,0.15316498113722757,0.22922642357999878,0.25988708033591357,0.23187664813986772,0.14620417840502145,0.043763435017279154,-0.028930999427810987,-0.07416055459951851,-0.1089261538019166,-0.1455757326259593,-0.1940647121204315,-0.26202747347601707,-0.34978916558039774,-0.4435906678502018,-0.5277849254862457,-0.6025038661288089,-0.6652730864799791,-0.7105039873702633,-0.7300613683256749,-0.7139430306267596,-0.6730788681821215,-0.6402990013645019,-0.6200279738530738,-0.6008787477933991,-0.5809355633753965,-0.5595300581246082,-0.5406404729617543,-0.5242156865503476,-0.5017439165037753,-0.4572904617457519,-0.37845006876688436,-0.28472127179832746,-0.20702108199389538,-0.1654088115477269,-0.15998752722722148,-0.18387497281491658,-0.23554015189008612,-0.3243159863403608,-0.4699680230213726,-0.6667242089346757,-0.785291294875321,-0.766878952830177,-0.7047196010355307,-0.5876071945016197,-0.4436246499021929,-0.35298282243651213,-0.2999480133168937,-0.23645803049508904,-0.13316052371622472,0.014720008008978616,0.18757548828173318,0.35601614754045235,0.5019929447530793,0.6139174242161711,0.688261178154676,0.7308633243557009,0.7292383012395277,0.6376304517819025,0.4653253976978613,0.31904196284819347,0.23691931848571104,0.2000140248216061,0.18824274374505087,0.19794483540966168,0.23508036390548043,0.31153327399946595,0.44467276283056595,0.6254383157273923,0.784867250519256,0.8809636868587767,0.9302559463352849,0.9441410120374661,0.9158375289196183,0.8398139099952141,0.7238014379309547,0.5858888701616561,0.4593955289620622,0.36458068098878366,0.3030115574128005,0.2690895158811127,0.2501047324172373,0.22954597905034743,0.19952066386011075,0.15775295678611592,0.10218067367165816,0.041666357112134525,-0.023252977606938167,-0.09518142296174271,-0.1779019869748085,-0.26120814071040926,-0.33630606742818253,-0.39212095796743973,-0.4196521773067728,-0.41610066001556006,-0.3911568544430351,-0.3589767418580933,-0.3323711130236974,-0.32153865490295713,-0.3264771335025596,-0.34555079818926854,-0.3732791887490643,-0.4026211130656417,-0.4408975800626572,-0.5165742604832027,-0.6935843323213058,-0.9417083617955775,-0.7309197983149337,-0.45967999318916924,-0.32308494586772735,-0.2516449831897237,-0.21180263707768113,-0.19175283035933868,-0.1899191694612048,-0.20988496555590994,-0.25605969966535125,-0.3273118303833894,-0.4122592739323351,-0.49770316448764623,-0.5749014413998499,-0.6369595174589727,-0.6666454417601267,-0.6230140359037954,-0.48506157145476464,-0.33149284948199464,-0.23581095656746132,-0.19025294767822262,-0.15117192814105726,-0.08588212546907023,0.01182422206975746,0.1368045770646816,0.26877990806182755,0.3966692787407278,0.5178136066579296,0.634445284619639,0.7415357956051553,0.8316859087903135,0.9012205539940045,0.9460965387110895,0.9373697054013425,0.8666449254562436,0.7811893225653025,0.7174013364781932,0.6698693347029075,0.6227938350824408,0.574703953586291,0.5365618244896027,0.5218178848837467,0.539134211007419,0.5923471606676631,0.6640904122699659,0.72009448947458,0.7491391014819131,0.7652384230503817,0.7877155456570256,0.8292405770256932,0.8700628107518373,0.7727072078459842,0.4765324493657472,0.2450135788121747,0.12999437336653868,0.07999106538819828,0.05496928883381521,0.03568469556329301,0.014644874333583252,-0.008077231119950365,-0.032870984405191365,-0.0593931535026311,-0.09477051081725689,-0.15357427309538935,-0.26368550002355373,-0.464730878372165,-0.5621623197400791,-0.4713507034434165,-0.3902899228070711,-0.3311534215709754,-0.28799819468592586,-0.2654729290451674,-0.29144717647306634,-0.42459013996253386,-0.7060393179218528,-0.7152561020276794,-0.6053759138166871,-0.572971413941185,-0.58900147040351,-0.6314817003846379,-0.6725603639446913,-0.6886025996666757,-0.685796751240122,-0.6853299903143156,-0.6893121871725927,-0.6535171587306593,-0.47715779356648347,-0.24589158137278286,-0.1321555774719393,-0.1313208908825613,-0.18688770002115435,-0.24819818342622343,-0.28744831370216983,-0.3035046069125181,-0.3090591595060551,-0.31211496846732895,-0.3188197055955547,-0.33720942018787614,-0.3730714214324624,-0.4116160110660592,-0.39235311436990356,-0.2704531576513212,-0.12651997621196984,-0.0019399010968285326,0.10771380045669168,0.21328748405019946,0.3015238879732402,0.34077346173936607,0.3544855577745373,0.4033267866935571,0.5190371450232542,0.6318752933396237,0.6187315584125899,0.5512135214069446,0.5180392360190724,0.5455267918251945,0.6339637533364599,0.7791915525157743,0.9224938862999106,0.8874036447147702,0.7041840279099537,0.5437306684196312,0.439334109879114,0.38249376968359816,0.3576254565498717,0.35244842949185007,0.3713247248147399,0.43938325266418005,0.5840263084158646,0.7625722137440443,0.7800026642435209,0.6114955134849822,0.42873591611168044,0.3009658539671636,0.22408949023908661,0.17943889091217585,0.14835773578828287,0.11834785541174092,0.08256777178839789,0.03495131726514004,-0.022388107621017388,-0.08777767738390418,-0.15143311330528425,-0.2022307508892346,-0.2385150162487586,-0.2671360128030815,-0.30187139494162263,-0.35235873113548244,-0.41983391412293797,-0.4914702771860122,-0.5507736721389753,-0.5938791305407055,-0.6361667104442417,-0.682084862754828,-0.71560456781384,-0.75001609459605,-0.7875472143089649,-0.8175100565928248,-0.8245628476915696,-0.7774092535590708,-0.6381470284852762,-0.4344511253731065,-0.2615464404322272,-0.16268770949931927,-0.11734199425440525,-0.10651000551204241,-0.12102454668168164,-0.1627990647027241,-0.23857492008678943,-0.35267200556112926,-0.4916287467860142,-0.6208550603692424,-0.7194796807725549,-0.7653438378767067,-0.6881148687568873,-0.517064851894515,-0.37238762475355275,-0.2755990154861467,-0.21055782943502527,-0.1624416755223088,-0.11945387292699386,-0.07273207324428659,-0.008790302818908868,0.09082581979980035,0.23720122143305555,0.4265760794769655,0.6088890617055791,0.6837020264696523,0.6302123515198068,0.5485164128018629,0.49041216731164416,0.4516530478627151,0.41956925812280244,0.3876729067373174,0.3602600874388211,0.34191254340411564,0.34087355144011394,0.363518845097541,0.40610821840439143,0.45945860999427496,0.5182150881110754,0.5884716578301101,0.6790105810880435,0.7754168185472629,0.8508259866412705,0.8941054189452448,0.9076915863014936,0.8904190964467966,0.8544671016441078,0.8275650148240606,0.8149616456637596,0.7891401073820838,0.7095558537073322,0.584916923893499,0.4558441205726025,0.33683392371937465,0.22220864673308133,0.10285308950186778,-0.011931460531002093,-0.0856525217214481,-0.08041777935641715,0.02636761946588842,0.20436595767734922,0.33398196093668053,0.3207699049676539,0.12614005381253238,-0.1540732071361979,-0.3913101657580418,-0.5574179645131182,-0.6072742194848698,-0.5025659440939312,-0.3738097710918169,-0.29705346622074374,-0.273183509663107,-0.30124181448909265,-0.40640094167360474,-0.6720367186734499,-0.9361669296697188,-0.7104761579795779,-0.5511159323250702,-0.4898207818943382,-0.4753240480919519,-0.4852806690344953,-0.5093310907947268,-0.5383019416559842,-0.5632967342810337,-0.5863751490109944,-0.6125761904063479,-0.6442358814401522,-0.6601371176893511,-0.6505616833626602,-0.6414265072232459,-0.6471044566439318,-0.6632072081171314,-0.6726078346788924,-0.651078627485759,-0.5728602159694136,-0.44742763758943765,-0.3315842741338476,-0.2544209811808258,-0.20553159554846362,-0.1624450042451993,-0.10301453142672702,-0.016945288521390257,0.09905489156658641,0.1999197488675873,0.24979380176905294,0.2660999596274746,0.2752818060148044,0.2953446593686608,0.32743782652382697,0.3620300580720481,0.3889166862641639,0.4201576351767663,0.4954189464478314,0.6705036866082142,0.8534709787943133,0.6587338779593257,0.4309545499286737,0.3003162400326991,0.22784795712863654,0.19126832465595844,0.1801559134962849,0.18498261985244466,0.1958766432445215,0.20476411348453266,0.20887108689819794,0.21430568887339718,0.23341217409106424,0.28513689788849117,0.41497856546882017,0.42539653044729947,0.15135280476660193,0.04424650043308641,0.000461619813941232,-0.01588385155175067,-0.018036932052236138,-0.013059707128962726,-0.004708624769157925,0.005578994325397513,0.01756841803428058,0.03310896147941266,0.06965028711053381,0.029021836527170084,-0.0038884660344247,-0.0134833064978357,-0.020258979495269863,-0.027749788147845122,-0.038009372851208485,-0.05373321935780769,-0.07882347211666013,-0.11922037114809543,-0.18394173543465558,-0.2938425041171211,-0.4474677022319296,-0.5527672181851522,-0.599271485468766,-0.6431388697526507,-0.6948472929825522,-0.7481927066200336,-0.796135211116706,-0.8340950705260509,-0.8607101348351425,-0.8586520457916644,-0.7891491696736952,-0.6305799641463691,-0.42766922556305764,-0.26346416678505236,-0.17792387898985687,-0.16889188247813683,-0.2170454807547579,-0.2838318564864987,-0.34115978979331235,-0.38056987480181204,-0.40405540260609524,-0.41648940439429577,-0.41769029316241363,-0.4028137845439258,-0.36403521734754424,-0.29950465749523586,-0.2091431262879076,-0.09473645167116033,0.03546484090421085,0.1596826761158295,0.24580051801112632,0.27574237909826466,0.24636592856319514,0.1702501483274955,0.09430969075803888,0.09696032102224852,0.21306701815431242,0.3899588321727691,0.5410137238214142,0.6435989167804981,0.7110165904209856,0.7616460975120555,0.8033850502782875,0.828352219925599,0.8273845632661779,0.8098348667886476,0.7872843512792381,0.7717030548426932,0.7717694885850918,0.7856607340597775,0.8014887638407551,0.8100110397965894,0.8093681878856789,0.8029993513785606,0.7823908835688957,0.7281844815727354,0.6319717517699882,0.5277012959145465,0.45876126116735305,0.44124514383459074,0.47302319824132055,0.5365339988510631,0.5946693148209242,0.5799702271692441,0.47886152343264504,0.3335365712642418,0.1615216222931585,-0.029997854203631682,-0.1984060811158968,-0.3097144035489277,-0.38261517926588395,-0.45585920355709614,-0.5595642540754733,-0.6395693213234526,-0.5293603586404882,-0.40586958967583064,-0.3627874911074854,-0.37667729021811563,-0.43317871950694903,-0.5306663436549236,-0.6771897398811644,-0.8575650099378924,-0.9192872966923633,-0.8312337576713565,-0.7293950315753153,-0.6534042473353334,-0.6020466890882138,-0.5763743567120767,-0.5828068115423749,-0.6381879032890715,-0.700809271620929,-0.5796740964594154,-0.4010502206907677,-0.3080032638118639,-0.28662552711735045,-0.32970576591137574,-0.4411886593068334,-0.5882516840535239,-0.6820627925961942,-0.7071901978560724,-0.7223962979284114,-0.7504773759721324,-0.7394441970548169,-0.6040445788761578,-0.4496492516789425,-0.3552834962213883,-0.29945747897668396,-0.24831000220313681,-0.17425454138268248,-0.06244635077877613,0.07128686169755957,0.1929125540782441,0.2856826850768643,0.34930609944624386,0.4032433827911543,0.47044282276398175,0.5528797915382155,0.6052783699548452,0.6202084159539921,0.6090437688101707,0.5857930933938081,0.5731381104736569,0.5765525734503609,0.5838879679484655,0.5756463196144557,0.5419705657146119,0.4950999926748946,0.4544090482526608,0.4396363956802305,0.4676556659324268,0.5682067968089942,0.7818702493704467,0.8735028999418382,0.6110545218363359,0.42985748436111443,0.33763799145929957,0.2835303722936646,0.24638545900908668,0.21801071020268836,0.19496143772306798,0.17319164330196132,0.14851006838463293,0.12090991171126124,0.08910697714873228,0.04669420093476148,-0.011808306240478935,-0.08550855540253308,-0.16465611686358178,-0.24078445226863315,-0.30650660914480565,-0.3558118294577294,-0.3943532908348489,-0.43295508522083676,-0.4774724728521273,-0.5302917705101765,-0.5897057022631028,-0.6342011623721127,-0.6534809798050668,-0.6544853524966963,-0.6463264954862937,-0.641948171450583,-0.6508907506098178,-0.6760660424439058,-0.7113590929586329,-0.7501438893146792,-0.7852448318826204,-0.8130176574327937,-0.8310047400498192,-0.8232772402666955,-0.761869658585249,-0.6486689569006725,-0.5203778550045349,-0.4163419141169846,-0.34973116932031406,-0.31959626643084954,-0.3184067322338883,-0.33753216279731113,-0.37506977513265566,-0.43687568064355037,-0.5313184119934737,-0.6682064475032297,-0.7874429978991832,-0.7117447076174208,-0.517916506556725,-0.36385274513044746,-0.26400477358580815,-0.18590539875638776,-0.1030537270708458,-0.013052967427680518,0.07061880335892137,0.1286210427445385,0.15356117552866758,0.15963109253530555,0.16291825089704176,0.1781784237772656,0.2193837250480325,0.32045144622786254,0.503198414270614,0.5260792042757835,0.4528438420592974,0.4582612168733633,0.5290562008926437,0.641614143039089,0.7642752451505941,0.8622309197452638,0.9188732260528173,0.931709850075704,0.9142946019632074,0.8929898218672786,0.8898051276474609,0.904725859198034,0.9220795369142951,0.9292856966612729,0.9242072595673637,0.9035285130695752,0.8585252238519516,0.7810047068698289,0.6853137395442408,0.617431759632486,0.5834780970422114,0.491630688334396,0.35299615155574127,0.25210765892970943,0.18244490248020248,0.12576280966894587,0.0717355698267758,0.016434811508104646,-0.04185570797174116,-0.1123869650372272,-0.20580777554590596,-0.3305955770225505,-0.45593610724202116,-0.5324381064545095,-0.5528008405841546,-0.5522791848205125,-0.5699808261536093,-0.601729296348908,-0.615660856654728,-0.6148509540132433,-0.6073330706902795,-0.6019949808076249,-0.6062769347944371,-0.6277007549790771,-0.6659477052067552,-0.7151145769390072,-0.7674037216495757,-0.8157437970219141,-0.8517751274022091,-0.8652235019915964,-0.8317060280036255,-0.7518473978370256,-0.6917574565213604,-0.6909068042042245,-0.7204931287559939,-0.7404252517626879,-0.7285613752513814,-0.6678487328748356,-0.5658669974915851,-0.46813126574684044,-0.40255292553649247,-0.368612350768495,-0.35084656122368557,-0.33793919338622286,-0.3223643214736735,-0.30708694664798397,-0.2950611731625702,-0.28373909758991744,-0.26427796653326874,-0.21306991853591775,-0.13366117628173008,-0.04517084335071787,0.030226392224014575,0.08863926211959905,0.1289508658739172,0.14995666460789037,0.15707304740593017,0.18083773587259652,0.3086319219397704,0.6722083194177961,0.9419193345526498,0.919778280050657,0.8834304322640562,0.8733881829643833,0.8772239182570024,0.8826654629646995,0.8856596214011695,0.8918886302795832,0.9059466529041511,0.922302838642785,0.9333760585574349,0.9349926064204049,0.9290203776451565,0.9114033910070984,0.88249451138029,0.8379542735275901,0.7639032454600665,0.6475653662304813,0.5082660015163595,0.392277405896843,0.3285778437363974,0.3218615178876777,0.358884894062127,0.42172997581071103,0.4713972313387011,0.41049845421585457,0.24295781722843748,0.10209915077933583,0.006744509826040077,-0.06794220805032256,-0.13203849021043407,-0.19049794556497585,-0.24332391333063733,-0.29537615305014164,-0.3499460803743471,-0.41494998951802375,-0.48994731561030175,-0.5670139715618983,-0.6284664531929779,-0.6713822337769294,-0.6974407648291053,-0.7152481982578143,-0.7318608427509007,-0.7484696392032297,-0.7612866709506177,-0.7635159033196297,-0.7373923127893964,-0.6677263188509105,-0.5608564532025341,-0.44231357995836845,-0.34082175520706026,-0.2751976418572086,-0.25177284965711355,-0.2658607659074972,-0.3151877857847154,-0.4034140470188739,-0.5430253906882628,-0.7218487409518097,-0.8439023290313362,-0.8278041478109167,-0.7367145554667993,-0.6359168186293276,-0.5440484682139675,-0.46817454765215816,-0.4075323176792899,-0.36401216095280864,-0.336291458712203,-0.31895301789998354,-0.2983386862803363,-0.23742301216127376,-0.07731520210047987,0.17831113912301905,0.38597815775228433,0.4906273052338561,0.5331294945019222,0.5418981413723568,0.5342986564516662,0.5315805526269106,0.5545455610471343,0.6151787703521612,0.7031372579105125,0.7851956452929731,0.8263553773120177,0.8191562947662897,0.7979455449107054,0.7980992287450577,0.8114708136764257,0.7713318922257871,0.6912718875033445,0.6687176908075196,0.7126580468498668,0.7393846778331179,0.6827084150407087,0.5912414836151713,0.5138351213198777,0.4560417089582208,0.40771624260049205,0.35340856936060056,0.28184838374349813,0.2027608763092289,0.14048143737715277,0.10637698907626436,0.09633271250392186,0.09916129155679743,0.11034101354142324,0.12912834843547483,0.14771860040382576,0.14985333994124916,0.11420082209481751,0.03457202271356585,-0.055900612712499284,-0.13189532885616076,-0.19156118549227483,-0.24843267591010312,-0.3204191837723186,-0.4101184870274845,-0.4915271382173441,-0.53337535686402,-0.5454651774987848,-0.5704805224759247,-0.6322123698163037,-0.7024809921207961,-0.7466963028799318,-0.7745233506412257,-0.8038942216775966,-0.8244430788253486,-0.7906569130493893,-0.6860769204765378,-0.5494893896279707,-0.42214392375455656,-0.3266710022653678,-0.27009927288522617,-0.2472369307179223,-0.254915986565827,-0.29945728594267884,-0.4204182083761291,-0.6596456495925079,-0.6295363319869329,-0.4414339777394116,-0.3441402175012082,-0.2965734986954606,-0.277996873335613,-0.28778273841610413,-0.3384187529789042,-0.46087533639955464,-0.6446875215653749,-0.5975636199460087,-0.42688386171385273,-0.3181438832738339,-0.236379196150097,-0.1460436217782904,-0.030968213578547246,0.09549400853922735,0.21096659979287669,0.3026947827303307,0.37797922582643656,0.43953073024134315,0.4765732958725598,0.4842671891746589,0.4683853895280147,0.44043475069918514,0.4186778432086342,0.4175426219303743,0.4479079883432735,0.5068906789354323,0.5765778557217386,0.6255993251770705,0.6407152717928767,0.6332072757305561,0.6172477733854796,0.5996559959387288,0.5839947342053023,0.5807840317031805,0.6007936139560417,0.6467297292109329,0.7087282748120953,0.7643848747921556,0.7886570324884581,0.7745987680323879,0.714468165264926,0.6033727740383418,0.4689921560832814,0.3580733386972954,0.28574535483388896,0.24541718960414782,0.22844259046597135,0.21993019269398384,0.19800952162757746,0.13412490067179558,0.014806414028537282,-0.1277649784259277,-0.24886651571893148,-0.33747525673970125,-0.4081266547380126,-0.48600299742394637,-0.5912767208822792,-0.7074168348402526,-0.7762237879130495,-0.7948071049879019,-0.807063149751109,-0.8297945494449039,-0.8646474973737871,-0.8923075037707405,-0.8662783332311398,-0.8056979463307866,-0.768407032929741,-0.7696120176530449,-0.8056332141586706,-0.8634212973363924,-0.9092200861650429,-0.9063940985445936,-0.8302167487761238,-0.6760037986328966,-0.4669946478619148,-0.2768224938577108,-0.17586407210568572,-0.17045434868015763,-0.2466235813104058,-0.38379149864992096,-0.5397052031193516,-0.6545431119768205,-0.7109762041903873,-0.7306502027723442,-0.7274345795619618,-0.6999023678545864,-0.6366298088822405,-0.5476493413207894,-0.4480142349506838,-0.3404711735738976,-0.213980179930051,-0.07429083869360402,0.08158016101016509,0.24991785666567873,0.40263143886112546,0.5015948746687954,0.5384003454834508,0.5531416589694574,0.588516988640403,0.6537934897632759,0.7394501334740023,0.8161897562196043,0.8675690423304485,0.8882175886348528,0.8818378483739651,0.8739257801339353,0.8754209151209744,0.8744960358325762,0.8654098832383128,0.8569995795426076,0.8601834747240663,0.872679491747332,0.8828493456040756,0.882106459721302,0.8747173326892411,0.8660245411339746,0.8548001949924854,0.8390641265915221,0.8211045727603582,0.802686987652383,0.7901935544752974,0.7798967720104447,0.7596024882320459,0.7019295404828051,0.5848670922731463,0.4345832365755678,0.319555415496447,0.3060702713932603,0.4609117961876236,0.7125623227315977,0.8456568483367766,0.8908164217649609,0.8833009703910654,0.7019435408702018,0.26543797436185346,-0.08978398074261165,-0.2701270466420668,-0.36740545329080027,-0.44527833645565984,-0.5344075163008548,-0.6359994368696836,-0.7322898750042227,-0.7910031092469578,-0.7846526838922302,-0.7501309175263637,-0.7333372705445507,-0.7475893224585626,-0.7805848430377424,-0.8218847353307719,-0.8694468051919697,-0.9189636199858618,-0.9501738805639456,-0.9332997460823863,-0.8249980004204693,-0.6406622304232766,-0.4768680606391262,-0.3689668557207342,-0.30797913079400546,-0.2888285375014583,-0.3145436293144549,-0.40297815384395835,-0.589773741989257,-0.7365034718105611,-0.6101086054159311,-0.48390279937818953,-0.41535027192034973,-0.37652894662609565,-0.3517795857346962,-0.3268205720295603,-0.25973690955946904,-0.10100979573259773,0.05535774475189552,0.1448817395792853,0.19991692697441618,0.2418961184621557,0.2807409467497619,0.32363350677111946,0.37584864446917493,0.4496245453691192,0.5513982914477614,0.566895579657007,0.4717252845756714,0.4122890352819847,0.41035738593329457,0.4584725491738373,0.5533946757253511,0.6910647026053816,0.8461046446252138,0.9295983438810295,0.8525259029150843,0.7324704412682586,0.6760689800562472,0.6840532015589041,0.7315366345126461,0.7947547653557911,0.8487600856556098,0.8732741726274396,0.854967425198664,0.7792973428612888,0.6400056043793957,0.4667520982060182,0.32201668222303653,0.24916011343299216,0.24113057036639418,0.2736246147507662,0.30355697591614605,0.29907116261040634,0.26381972457854574,0.2142931169348957,0.15899478239015188,0.08140346136615643,-0.031678308966971436,-0.16811257097065882,-0.28749861755388056,-0.38977225198714816,-0.48422647568654326,-0.5597725012071152,-0.6057451117598758,-0.620916079436952,-0.6109876245937268,-0.5914023509526657,-0.5731611024125084,-0.5737455365098797,-0.6057155236980477,-0.6552409366345809,-0.6909441593797152,-0.7128680579204079,-0.7207255766343255,-0.7250025158210905,-0.733482213390362,-0.7468624534990357,-0.7496858629513707,-0.71452455495771,-0.6262780703413878,-0.5137572849668287,-0.42393577272223526,-0.38780870403244816,-0.41662037852944195,-0.5071380842754566,-0.6324962570684102,-0.7313351464736033,-0.7685289682791869,-0.7374200793766406,-0.6649644836288136,-0.6053551744029372,-0.5951228108266805,-0.6377335935810898,-0.6104446786206926,-0.3459529955183052,-0.13860297438307045,-0.022371780010618465,0.06459413754366182,0.15079772460135443,0.24845091108126324,0.36572015930341245,0.4961961021765604,0.5668956488852134,0.5179357031666856,0.4575826077246426,0.4582270340068173,0.5317343793314379,0.6512099294950783,0.6826564063297277,0.6309812429224535,0.6073493615273309,0.6151833325433461,0.6403689906296962,0.6695113904244138,0.6865457141127056,0.6886375908042113,0.7168669498311856,0.8026683738410004,0.8940063215219072,0.9185419015474019,0.8863120893365297,0.8178948280354864,0.722187477264614,0.6069811735900711,0.48603696930565504,0.37630890199303096,0.283842479312891,0.21460555770217915,0.16998529426450257,0.1452592236060323,0.13217485372567567,0.13148122532770434,0.15407836083944254,0.22266675032339484,0.17891852585624135,0.08176206520052465,0.03097548201005519,-0.01318871418295559,-0.06538571898313374,-0.13327151718559663,-0.22256515960573658,-0.334362171644992,-0.4566674785593267,-0.5500573340175777,-0.5909815821015927,-0.6068174457467582,-0.6254036027118199,-0.6601707816247904,-0.7095216071807137,-0.7649775847180299,-0.8147877510158715,-0.8581979865350542,-0.9032081560950861,-0.9458554335657314,-0.9472593918726149,-0.8802243432972272,-0.7894051169291741,-0.720607095845719,-0.6790208031944134,-0.6520138994506876,-0.6239229489566998,-0.5792103377889574,-0.5139493343382626,-0.456363392321153,-0.4252747925404045,-0.41442389873121827,-0.4108305003117038,-0.4066629336594141,-0.39964333021881626,-0.3905080585391182,-0.38527340519062475,-0.39913916560715196,-0.4426051545118793,-0.5092181594859925,-0.5420200834314552,-0.4851191363896731,-0.35040572440229617,-0.16851467017424115,0.03137380729029483,0.20705992923236052,0.3450395610153352,0.4481641307540109,0.5219672318298568,0.5711063969066215,0.6015596464434153,0.6226998211994795,0.6421724786978195,0.681151125534566,0.7480150516099819,0.8144753352611402,0.8440241934044332,0.8452238125335408,0.8422130789082362,0.8473647014357162,0.8575248771247015,0.8695575446378261,0.880566311976925,0.8899077692258969,0.896730328134806,0.9056031451305979,0.9143706769444044,0.9051855331842779,0.8476150420913521,0.7316522083166547,0.6016380677864204,0.5054900381690712,0.4652759634320643,0.4795198556777273,0.5265535856822979,0.5499053397876371,0.5065261057864842,0.4283521786403028,0.35158148059092176,0.28408632246843185,0.20983250836179135,0.10926821175855937,-0.01937974383658385,-0.12505399359638628,-0.17772512648755878,-0.18912494143261266,-0.19066850029529575,-0.2112157459200865,-0.2689010424231802,-0.35758013209805645,-0.4544687397780974,-0.5442640552595827,-0.6218193164359644,-0.6840411254127912,-0.7308212832071035,-0.7595998870558847,-0.7725293143478192,-0.779114260306935,-0.7905475834450811,-0.8130522741952722,-0.8463093983031766,-0.8840946274108967,-0.9144470893645671,-0.924975688158028,-0.8997295473271081,-0.829219873733237,-0.713088693630294,-0.5587256207322743,-0.40283337651523654,-0.31540360313546323,-0.3350360656224003,-0.4408664331242737,-0.5375918441408185,-0.5593177992524435,-0.5364853320666731,-0.5047529239317812,-0.4700816785551406,-0.42502568715272354,-0.3621451738667322,-0.28036168312961196,-0.188158150713458,-0.10741221473367786,-0.055254017872640115,-0.02109076545505689,0.01829748000567501,0.05939634887043561,0.0947733196899334,0.12378885517386533,0.1449998106276377,0.1596332213915664,0.17108944687725958,0.18528032163253003,0.22023400505703106,0.30794929123276354,0.4761753794764694,0.6703759832930855,0.7788003642852057,0.8131808341496891,0.8249320451096323,0.8364813168641877,0.8466489846314162,0.828554284826973,0.7631037360664417,0.6780023054904977,0.615029835961152,0.5771066230633056,0.5488546447907755,0.5196596009555926,0.49041627280036504,0.4603676787176175,0.41980379549614827,0.357228871193027,0.280251293869504,0.2135257748860877,0.17872247255552015,0.17980744220047967,0.20308468981531536,0.2262900256653278,0.2316718508569292,0.20585519071506053,0.14818869255927974,0.06463350866147477,-0.05399483974722072,-0.21054137116131666,-0.3678922524428231,-0.4739325301492211,-0.5356719535122818,-0.5674773432699741,-0.5666073961519998,-0.5422231573834617,-0.5182980241517925,-0.5116301745522183,-0.5287983047918434,-0.5657468322140974,-0.6051543665149608,-0.6223940442191968,-0.636720419841091,-0.6668628315244742,-0.7050316142073595,-0.7438210223456933,-0.773417345317877,-0.7921025510652584,-0.794195007277388,-0.7637173167114507,-0.6784060102454426,-0.5443162825351744,-0.41999445530025065,-0.3456760503669182,-0.32404080204753877,-0.3524767128131213,-0.41037583312529724,-0.45544196813094157,-0.4711918913790085,-0.4562297676274072,-0.4154674207771184,-0.3610082587013368,-0.3045256204465664,-0.25304002863824665,-0.20997264792004086,-0.18016135782450138,-0.1644684351250633,-0.1515947386708715,-0.11210015448661821,-0.022645535224566582,0.09600952113452957,0.20239005073729002,0.2734397310306425,0.3097796049445876,0.33068074896165955,0.3562617868117377,0.3997582172715688,0.466862982076492,0.5527867352614789,0.6413845100972627,0.7189228157092457,0.7895631272300295,0.8531393020195281,0.898235945041157,0.9211536118734551,0.9270042604656948,0.9224327111923806,0.9109123186259644,0.901283244191592,0.9052494703283901,0.9168620045162786,0.9240153610411607,0.920236692028949,0.9057147148795411,0.8758673940453349,0.8269044347554526,0.7644634438000488,0.6988503239849567,0.6201120682174931,0.4817669454368315,0.3319939778273737,0.23937335630887185,0.1897747624224385,0.1554783741492276,0.12288094554037644,0.09270623281075499,0.06796944103534874,0.046887954198721424,0.015868574398321216,-0.055536070019643134,-0.17404175338527417,-0.2495194168798843,-0.29371405116986776,-0.3509839828933166,-0.44099360458119957,-0.5829695315905201,-0.7124259185945848,-0.6166059799999866,-0.45535455545621706,-0.3634667297699846,-0.3302272061595576,-0.34124406024805065,-0.3874841596784553,-0.4608181394655235,-0.5459285675579278,-0.6194133698163735,-0.6694620854543588,-0.6922116040094112,-0.6908187365152516,-0.6687651307236226,-0.6292344005128796,-0.5780504230695438,-0.516993211586164,-0.44220919562183253,-0.3441486188570831,-0.2561817119347468,-0.2528941687024349,-0.35829879836152595,-0.49249264322476755,-0.583491605175904,-0.6200682506556062,-0.6157157417232967,-0.5787042557975799,-0.5020377025437776,-0.3774534678836608,-0.23011249586341342,-0.10595049422971677,-0.008214902286766718,0.09034228614019069,0.20718747382354258,0.33727708456745065,0.4622889913997241,0.5572775512154056,0.6125705989615979,0.6362889922956062,0.642165498102327,0.646493040559477,0.6625792039686019,0.6901623660381766,0.7220177874369411,0.7508968937497639,0.772641389706193,0.7863127068150781,0.7864331637567152,0.7761063943860901,0.7636850771672705,0.7523392008886934,0.7438271963854911,0.7467413522980163,0.7680369167607131,0.7994125676775353,0.8287436101869836,0.8478173353159308,0.8546630776397753,0.8437349700297262,0.8056862521701785,0.728994878670733,0.6013424483123555,0.4356276471339889,0.2749613098930286,0.15223699034725166,0.06752614724508874,-0.0032987404430659326,-0.08614931061434694,-0.17783632065400246,-0.22921773116197774,-0.2291368462757246,-0.20254067906545284,-0.17061287300114186,-0.15148069581036055,-0.16610589269160442,-0.23045410930602833,-0.33802169664101683,-0.46157911769266247,-0.5650613641282389,-0.6219198042679764,-0.6421772996250448,-0.6562940105621845,-0.6817848494376214,-0.7266484046248284,-0.7916827966049185,-0.8604137886092866,-0.9007749047375019,-0.88927080102028,-0.8663818006893038,-0.8629573911031075,-0.8716203610915652,-0.8802257878970577,-0.8828018911473725,-0.8785849840646062,-0.8695552577363862,-0.8620899527899581,-0.8586060555035313,-0.8490987586613594,-0.815743022069618,-0.7577207071551874,-0.6986316525123356,-0.6467185458631401,-0.5921232746956615,-0.5321366568887411,-0.47822758013739,-0.43581203364563753,-0.39950656226483927,-0.36317943388279617,-0.3322421459752905,-0.32513732357421293,-0.34790771301716866,-0.3868558216197261,-0.3910110810239075,-0.3096058906755438,-0.16168792576876964,-0.009966107035316158,0.12000023528538878,0.23833780438024244,0.34989024822754533,0.42434798527933565,0.4546353517354774,0.47500820677331923,0.5042987637275894,0.541565578333884,0.5858607904797557,0.6396179557487903,0.6910579791506416,0.7049577933287774,0.6785985062111968,0.6566552116128708,0.6671224039378699,0.7070394757078273,0.7577865962995085,0.8036267594895918,0.8353021838594149,0.8376617200687554,0.800164589624591,0.7191883806780459,0.5956919963825035,0.4409689664030932,0.27527613930814576,0.13790463133161338,0.14486903886289973,0.29896017522584734,0.42080129346146816,0.5238883242738649,0.6498880973183139,0.8073913955370338,0.7690918056701208,0.5034558027411628,0.3164241276906203,0.20421835526352342,0.12741799794291134,0.06771570040062787,0.01442557779885278,-0.04195655267182746,-0.11210506746853016,-0.20687785895667524,-0.3188319888212643,-0.42157292018600034,-0.49862360448873966,-0.5532125404729328,-0.5721954186077464,-0.5352367511176955,-0.4550764628317231,-0.3733867353726197,-0.3106725401749379,-0.27317838554225277,-0.2579568107115627,-0.25852481207399536,-0.2714940210296092,-0.3031036695764521,-0.3698310490706108,-0.5244009710190123,-0.8145747472535955,-0.5679054740059186,-0.3185641449641632,-0.22148309824759266,-0.18446420044764428,-0.18308739513198655,-0.22202086719631686,-0.3171008130156063,-0.4868138934591734,-0.7010166562997076,-0.8306185599341043,-0.8115983517903965,-0.7383810342689427,-0.681126548489584,-0.6468471377834503,-0.6028502834262438,-0.5111592412006707,-0.3664896195948342,-0.21991355521698142,-0.11516736557867031,-0.054143817722616075,-0.014261376044837085,0.01568173907029022,0.04309831933768815,0.06912306290511194,0.0995234427015994,0.14117642716097978,0.19576619417268196,0.2558743414212137,0.3089471636934028,0.35121322738631405,0.39118917957833615,0.45442944789448625,0.5386813146152729,0.620899947577129,0.6750432437547191,0.6918262775897539,0.6786117154625297,0.6517224452323901,0.6254092311129482,0.6138476148653871,0.629664585229978,0.6914037020752568,0.8112055461702318,0.8716530719127847,0.681500053574208,0.4728826997961292,0.34938693900796247,0.2834224199993319,0.25391712261894395,0.24667097453136413,0.2470189321315794,0.2330625973585535,0.1727703613369396,0.04973247108163927,-0.10000559193767412,-0.2034630944184841,-0.21012294662942432,-0.08832148827411024,0.16057422267212257,0.433445960760007,0.6052893628798168,0.6690335397087482,0.6507241163834591,0.5593407728537745,0.39050385449721753,0.1592671526408573,-0.09156666234088219,-0.3008290850258898,-0.440068482963097,-0.5329478126738787,-0.6175226051420291,-0.7000308470384519,-0.7513512388591527,-0.7619062792838829,-0.759598256661876,-0.7616092297352102,-0.7668063154523944,-0.7744936259005847,-0.7845190393143626,-0.7840661648842778,-0.7450565769039775,-0.6599876709318656,-0.5562038808311652,-0.456713769297137,-0.3828790608965,-0.3471596228806024,-0.3512764613289045,-0.40635424981412027,-0.536944408716793,-0.7768797761250118,-0.8059787833726845,-0.5218644023892747,-0.3577408953877545,-0.27953086921013437,-0.2450238168797656,-0.24249184215417555,-0.27523793223822424,-0.3100991008605772,-0.23955848127406673,-0.13697820441283504,-0.04263016665677779,0.06358972248505546,0.16445672092672772,0.25673438405043636,0.3538161887062582,0.4601457183641932,0.5630747022702042,0.6576602326092129,0.7421027515734383,0.8062552656901646,0.836661575413694,0.8318240198103184,0.7956936649140404,0.7390802093307977,0.6852758873676755,0.6527032760342772,0.6474508076590929,0.6712384513859085,0.7203135423455407,0.7769272032397033,0.8224073446799487,0.8460629732007999,0.8428457341993134,0.8174265260935255,0.7779773961990022,0.7279442297268536,0.647729523311865,0.49889548884687696,0.2839239399742238,0.08688716546351427,-0.014689996660308144,-0.020322096282455137,0.04723368888651718,0.1313308154925666,0.18516808151709174,0.19226279796558016,0.15007051751231343,0.04654648533440509,-0.12542931857512676,-0.2986879722156519,-0.391148943895413,-0.4278457237038182,-0.4493587478268412,-0.46323288768711535,-0.46031288900243833,-0.44796537871710707,-0.44987134743007445,-0.500001932857052,-0.6002687354407246,-0.6688399928771296,-0.5690341752913611,-0.4225696103932843,-0.3575519334151892,-0.3765984621291798,-0.47116861089289114,-0.6365843002267512,-0.8074302664606811,-0.8262656637525677,-0.7127475772437544,-0.5891028419017227,-0.49726690327960243,-0.44224904063931436,-0.434794172631958,-0.48159644369436766,-0.5780822392814573,-0.6909454109648928,-0.7592453185569876,-0.7750241592755563,-0.765488024195884,-0.7485078365702919,-0.7314058996614536,-0.719340206982388,-0.707544532651443,-0.6889378711658946,-0.6513825691050041,-0.5860587214497882,-0.48784914568752724,-0.3684372929376492,-0.24227468087408846,-0.12919034736892726,-0.038887263095675154,0.03174030365250865,0.09792748929897763,0.17452631893654763,0.2818967363269921,0.4168301896096265,0.5229730216987813,0.5375735137881279,0.47885337957289453,0.4189020127176566,0.3983596619503958,0.4234901790744727,0.4887362815155393,0.5777157831511239,0.6667294261558079,0.7401209380479318,0.789691827576524,0.8113793329750639,0.794678146748035,0.7243091652877345,0.6204962573024837,0.5166004466687254,0.43219743267911875,0.37124214471666384,0.32937001475729527,0.29765702299584434,0.2702066028515314,0.2478504075659195,0.23821228711593012,0.2516881243569782,0.2956633900123665,0.36950223452382974,0.45943901695735107,0.5447253196412075,0.6000010181037926,0.5830990342377681,0.42778035299975575,0.17910359852699198,-0.012378978964382748,-0.126256104475198,-0.19241237638180272,-0.23615363760818722,-0.2693587919740681,-0.2909270774670922,-0.30314678022687963,-0.3116187759312428,-0.3279063509052473,-0.3574518094371948,-0.4020834369448306,-0.46712785194339823,-0.5538032945568798,-0.6464782076479625,-0.7159500910408501,-0.7475089725908394,-0.7358667131463453,-0.6632020946826618,-0.5316344130905019,-0.4028060672512376,-0.31791547502843637,-0.26776011931936633,-0.24092718740802996,-0.23472988637109543,-0.24901180654936192,-0.2828845010542885,-0.3370472726818182,-0.42097068512207375,-0.5332499243361767,-0.6417125172403516,-0.707919190671492,-0.73371052060447,-0.7406041196501809,-0.7424069628312252,-0.7400427189922496,-0.7235561648349473,-0.6849504935658375,-0.6227301515902166,-0.5432328092870023,-0.44803690744040986,-0.3205450118761421,-0.1660371350266069,-0.008144916185801926,0.15168445390023844,0.34958252763806186,0.5799568252732322,0.569706703868545,0.4443352200424367,0.3658862498598272,0.3225155907366582,0.3005608002315291,0.3047525845281843,0.35401130991011887,0.4765550071226524,0.6622949746742118,0.8179987448893025,0.8943464990847326,0.9252301085729896,0.934245613137496,0.9302395138621015,0.9198337982036355,0.9098766395309346,0.9027408366942389,0.8996848971985225,0.901417553165891,0.9028848541810697,0.8938836481461683,0.8663351532798697,0.8175170817582168,0.7535345596241414,0.689491112370756,0.6414757243763364,0.61755377045366,0.6123263129987421,0.6200911062734535,0.6343144595051826,0.6473814382107538,0.6470135012191877,0.6151516544786854,0.5219668122098192,0.3288148211418608,0.06825286574520775,-0.1408361732362755,-0.260668423690309,-0.3327268382483699,-0.3960364725220329,-0.4649699452011309,-0.5402323903597869,-0.617152740811664,-0.694644354642883,-0.7719316446527578,-0.8401056492847319,-0.8814450126828668,-0.8967196117670373,-0.9020648102799049,-0.9048503200815887,-0.9080978004006879,-0.9151877878242761,-0.9255626348771065,-0.9359859404607807,-0.9393537161554595,-0.9202918735512394,-0.8685054452070126,-0.7953166761287442,-0.7278823281284302,-0.6804797636064152,-0.6689593966310993,-0.6947918952965672,-0.7396342390284902,-0.7706229859545419,-0.7753846794189604,-0.7682466599199853,-0.756532772834798,-0.7366797847900274,-0.7063087888227705,-0.6620640045205756,-0.6190103831732702,-0.5933607186152099,-0.5743883670044557,-0.5370018190218673,-0.4676240490387426,-0.3610511016027488,-0.23229621795968378,-0.10082541044781695,0.011150809367575915,0.12299041410386297,0.2427089069057729,0.3827887849978913,0.5639941415447763,0.699527447993667,0.7099471923904269,0.6727371578571971,0.6291833782467238,0.5834884688065826,0.5413295889235343,0.5249268531026815,0.5851006396203254,0.7899511535082483,0.8005250137769262,0.555640683352167,0.43160057371187255,0.3831132140418776,0.37959358398098714,0.4199009908477657,0.5249692886782181,0.7110670001526139,0.7779982493045713,0.6524355476217353,0.5648976464394002,0.5231207374640722,0.4970707439628888,0.4695940663717924,0.4332325141688476,0.3838132049161351,0.31935594311915155,0.24190224200237043,0.1559769951197848,0.06864340356265716,-0.01013830380815131,-0.0682213308032372,-0.13035768834536285,-0.21383787066598894,-0.3203507116498203,-0.43286401608449365,-0.5268851202403831,-0.5857668984403409,-0.6203861518218214,-0.638675980890062,-0.6268171647069395,-0.5776499116221376,-0.5255007346163791,-0.5039515387329526,-0.5240247813415391,-0.5801818561255487,-0.6501185909553291,-0.7048687180565396,-0.740591280318157,-0.7670267573251821,-0.7911789871826479,-0.8169062495793473,-0.8425785511613311,-0.8497124965300721,-0.7771577012869171,-0.5729675050179511,-0.31748878049747753,-0.12049587195802655,-0.027591022022930987,-0.035220062752477646,-0.10758719408737238,-0.19182683869828474,-0.25290126979109717,-0.28879777809264096,-0.3136095681360293,-0.34505009083453425,-0.40878415092400106,-0.5614849701560926,-0.6945737614111532,-0.36086440855239427,-0.17437467833226464,-0.07384252641537978,0.0019584871480965308,0.0701244185423025,0.13960239060670449,0.22654927928060462,0.3685227289434683,0.5121535812166379,0.4381964503365717,0.3645852415565271,0.3493311137295443,0.369851016806827,0.4194520978734607,0.5060106400228133,0.6259010799703462,0.5353016042876987,0.36766146487851437,0.3113763824253227,0.3077983562765529,0.32186940718825796,0.3379045413262778,0.35267445898293714,0.37142366477800487,0.4048058283349084,0.46451170476974885,0.5621689207390093,0.7009455642684506,0.8508044088892477,0.9421589185195226,0.9378039632747142,0.851708250760128,0.6994966585213623,0.5048582258143991,0.3073322129742663,0.14497747395827848,0.044529526208482065,0.01584685521549638,0.03849235080465212,0.06750408714135583,0.05275508627622319,-0.020258411598762842,-0.13168741627695166,-0.23045151800971989,-0.27850641433531037,-0.2619027755654283,-0.19009600592852743,-0.10665949550822612,-0.07596518878896164,-0.13274252603820735,-0.25126283263205645,-0.378219993260545,-0.47699887417481,-0.5378418846053565,-0.5673171877958528,-0.5752970323572812,-0.5773800208681954,-0.5925656001364275,-0.630642665666273,-0.6745950911595465,-0.7087152342798732,-0.7345883506824564,-0.7580900067158547,-0.7843861116478086,-0.8051609597915438,-0.7956311729789427,-0.7277960095218327,-0.6213576847734226,-0.5243715036712643,-0.46740207323150174,-0.46511504033107054,-0.5144157222338366,-0.5928115138379747,-0.6631431447782005,-0.701444676509412,-0.7089394135262755,-0.7105788585601869,-0.7231520569749521,-0.7247031625283589,-0.6592399014317388,-0.5320237091132621,-0.4303937909574019,-0.3831653687471005,-0.36769328804156554,-0.360534768953177,-0.33444267105066866,-0.25507402583292876,-0.08596179469941409,0.15068321692669517,0.3687361808339278,0.5412642483192285,0.6831695511098179,0.7996325446919836,0.8468596646692107,0.7871530802350514,0.6722578292029877,0.5752257346981205,0.5239263851964817,0.5155482372672103,0.5374515736002525,0.570029368376745,0.5977449944851675,0.6123618718228955,0.6081470225528438,0.5922671853511902,0.579776621845404,0.5746618768220082,0.5776391767225084,0.5919929595376074,0.6186626221516288,0.6584145010146976,0.7130314796876628,0.7703877841627491,0.7786750473326309,0.6799250561945248,0.5392169545103412,0.4240769225669542,0.3292661606330717,0.24858540962248435,0.18175644681547543,0.11578604280655815,0.03404725203174901,-0.070206094903164,-0.19290651668315628,-0.31271188804700834,-0.4081243213530223,-0.4863372823089242,-0.5679753401654197,-0.6806610797084436,-0.8056105220121674,-0.8830603091679278,-0.9101516214801499,-0.9123430943896544,-0.9087528037278755,-0.9042321300824527,-0.8942816500775937,-0.8746629492796638,-0.8443754441720503,-0.813362307911081,-0.7985776799896547,-0.8103669734070542,-0.8415002148346525,-0.8813032649870386,-0.9188656772028504,-0.9372937289015171,-0.9294056364011115,-0.8981815834667176,-0.8536204301447471,-0.8066019248809957,-0.7581240358063508,-0.6960737652684943,-0.585037809649687,-0.3924151499779138,-0.1824419401244879,-0.04703938516064908,-0.055106676900262684,-0.2636364960350152,-0.4954642062827999,-0.6057907975993896,-0.6344629856512937,-0.5501075653497728,-0.31544632071271017,-0.04892141889429705,0.16287241945168532,0.3192731721406409,0.42431633982285333,0.47731875226251363,0.4921391520469072,0.4916377946561632,0.4850535001451621,0.4747459671204398,0.4680698825121618,0.4873523869652796,0.5448033340241618,0.617920409361813,0.6761551019778137,0.7126862830660233,0.7376497521080935,0.7704178017168023,0.8111892165571158,0.7619906958891671,0.6017567170695016,0.5220990512829612,0.5714397310042628,0.7302190014803343,0.8834016776405148,0.8371607580359194,0.6849395488170604,0.5599793474382464,0.47974103374040095,0.43088776405499846,0.3949371197946332,0.35674067621776423,0.3098631608296427,0.2638540891398224,0.23773833525744528,0.24586611367683445,0.28597168433584114,0.34062131163088266,0.346815696596289,0.27336014898086186,0.18248291596493846,0.09999709337333365,0.020476990389542645,-0.060893006300996706,-0.14341802251364802,-0.2193810509066644,-0.2871901919982973,-0.35129688328223496,-0.41982710886619684,-0.48648258958895674,-0.5330118638635312,-0.544967720639838,-0.5563226935871743,-0.5948590538397833,-0.6603689008806938,-0.7024291640378498,-0.6656475379284755,-0.5898429711617407,-0.5376417634328988,-0.5218392568720829,-0.5455411848246908,-0.6095927506722907,-0.7121279231099683,-0.8288720278405367,-0.8582925264502348,-0.7802127793921031,-0.7272563926680767,-0.7185060809228386,-0.6920071527360382,-0.6435050182587688,-0.610751409716833,-0.6051474568321464,-0.6105480689263584,-0.6014999526373442,-0.5599443525311775,-0.4938249016569244,-0.4324538865997915,-0.4014003180332206,-0.41974122765552807,-0.44512699919445153,-0.33990881593211103,-0.2449165076683769,-0.20218560070620673,-0.17832932582300268,-0.15381854769071826,-0.11680717512732991,-0.059759894684548724,0.02045523827431855,0.12116739876101809,0.23213537371984777,0.3520507446157264,0.4990684810062902,0.7135685969870468,0.899963038928296,0.8769853352711195,0.8076355760143868,0.7759231254798592,0.777476837740536,0.807774226382957,0.866444295291326,0.9312954513000509,0.8950529357405097,0.7404693591539631,0.6164212337815616,0.5669643006613826,0.5766169714105587,0.6364355985662781,0.7409810755242506,0.8678967292585372,0.9448399122070223,0.9086083188589501,0.7793697347606692,0.6140537373685195,0.47383187146860767,0.38829805602748924,0.3450283484609564,0.31306533500271244,0.26019387741482425,0.18570050923147405,0.12024970884523911,0.09392351954272897,0.10246364528813438,0.1138311323014757,0.08689622662360569,0.007382116292964536,-0.10146578841979323,-0.19977331120189862,-0.26826243868825356,-0.3040475478793586,-0.3131184815108088,-0.3052316963893197,-0.2926252420102292,-0.283815119905801,-0.29161513943248873,-0.32768682141334177,-0.40243700654344267,-0.5259025760612518,-0.6840865244337425,-0.8167131724807404,-0.8872621097402227,-0.9243489718906153,-0.9502246874055972,-0.9622782801476818,-0.9463357527298126,-0.8919959707802724,-0.8044244362401952,-0.7101206793414924,-0.6275604856175709,-0.576637848431127,-0.5731014013912487,-0.6226302203600995,-0.7024833863465694,-0.7727297353837088,-0.8076019631057201,-0.8029071424232819,-0.7603980239435031,-0.6894234537573822,-0.6026533132575986,-0.5034599476989492,-0.4008688953781741,-0.30899760722149694,-0.24238556902396055,-0.18991710426846964,-0.1405037181181239,-0.08375049912790854,-0.016273260077312387,0.0739740336206493,0.1869204931698331,0.3175455537756282,0.44396389850292556,0.5401039816561577,0.5879964437526439,0.5985924858399546,0.590306194833706,0.5936420465394381,0.6318211090935661,0.7054781499412971,0.7979567166503778,0.880257724963191,0.932592615957577,0.9546892306618563,0.9590678412828819,0.960102795429004,0.9598847395149843,0.9535925018035674,0.9439215441584337,0.9381012577835607,0.9344023016236146,0.9224917991285104,0.8784044757297869,0.7418487935062862,0.4827239932357478,0.27100779256373114,0.2082637867019171,0.2519912428433378,0.33607402098866085,0.39981117218956125,0.41002404826865335,0.3571169510255444,0.24755388066897463,0.09428093526560369,-0.06964710519185346,-0.20857882735964098,-0.30744839913970173,-0.3791642786511294,-0.43496204437997227,-0.48122297153545635,-0.5224653149093919,-0.5682095973666142,-0.6188121450100973,-0.6682156638139113,-0.7151140626990196,-0.7597528141668795,-0.7990550202209085,-0.8278732927056537,-0.850959600106483,-0.8736887392180785,-0.8962702280186469,-0.9155907214174906,-0.9269343644386394,-0.9308574514440089,-0.9256127795797178,-0.913125568314582,-0.8955321509929746,-0.8646640856965614,-0.8019542071659282,-0.6906549190079139,-0.5505380718279064,-0.43768314182188983,-0.4050210487066404,-0.45934063995508523,-0.5684031384506969,-0.6738961945176984,-0.7375219016837854,-0.7617724715961837,-0.7563499804540068,-0.7242660653505301,-0.6727512816102525,-0.5930362296916032,-0.46250032849884526,-0.31042149887033527,-0.18621867180320228,-0.10285621272374304,-0.05065075073897744,-0.016452343980987504,0.012509589533429018,0.049575167139620215,0.11679149749261399,0.23778259942354443,0.4043580607040953,0.5587852351330534,0.673655668524755,0.7443806927740413,0.7742221330906746,0.7809224035808963,0.7846473541816461,0.8024755002853698,0.8458041212205849,0.9062486961793758,0.9521632956062601,0.9539738337567937,0.9286275540906161,0.9186930794263983,0.9308945404238225,0.947631396585196,0.954487953697541,0.9506810686085299,0.9347666970786048,0.905197284464383,0.8636500130988801,0.8100540083646962,0.7469618982770184,0.6792761760644921,0.6123860091080713,0.5550910236336408,0.5039791100535416,0.43909669337390406,0.3382577199406661,0.21124512711425233,0.10156303436957356,0.04579818081548478,0.04660281233999353,0.08290426206773008,0.10558625789031935,0.051163130759097446,-0.1073388369990946,-0.32113680930970534,-0.5002480542561637,-0.608123704647771,-0.6617368688020033,-0.693662223374606,-0.7306115341940335,-0.7837292898729495,-0.8387122631489738,-0.8313070976137202,-0.7565210827958777,-0.7054717498816119,-0.6957076939006555,-0.6933731105928447,-0.6794023593814743,-0.649671661786501,-0.6096021221918788,-0.5643109240561122,-0.5126776585629598,-0.4561335744257031,-0.4074141015055367,-0.37723722601337567,-0.3760817418574227,-0.40743012193797457,-0.4723538392878895,-0.5485170353682485,-0.6027645716870503,-0.61868156972072,-0.5988280064080818,-0.5495475556881487,-0.48225625451429016,-0.4063254804201166,-0.33891317348179695,-0.2965288988839398,-0.28387298542719364,-0.29394167988274444,-0.312516060233644,-0.3341868861330694,-0.3581872183655553,-0.38488668589561775,-0.274226175988225,-0.0784259449544888,0.02102107328324015,0.0808218332096664,0.13509518396756826,0.21341349014350008,0.3807732701469977,0.5519582048910229,0.39743487023720897,0.33718889929400836,0.351641109420812,0.4211813505014051,0.5537881195418763,0.7139934807282331,0.6683169748930984,0.47080204067962184,0.33024611585359764,0.2494319318372169,0.20699172216382006,0.18861221028654399,0.18734233058199218,0.20092270922152536,0.2319119470757279,0.28697637979931717,0.37444903458562157,0.4957100779163724,0.6337268222786223,0.7333848044949611,0.6787385627317618,0.4629391755526009,0.2839804010962856,0.2064144679511954,0.20484307985523584,0.2366107157526105,0.24294726392897495,0.1894764046980426,0.07986491844965016,-0.0547788716144037,-0.1837252743588682,-0.28134245137144,-0.3379534345564114,-0.35291632090129943,-0.3343455918227755,-0.29688655407850556,-0.2599422917340121,-0.234994925918567,-0.22607481054709427,-0.2287016002213426,-0.23779319269146468,-0.2510761029635925,-0.2712707759544694,-0.3081307563896893,-0.3709172568408245,-0.45075164487488995,-0.5295057079228118,-0.5894512305395107,-0.6263133173657848,-0.6416677572299244,-0.637181930443603,-0.6129754338150312,-0.5723046674983909,-0.5229661145991785,-0.48087254327215395,-0.46809589036691274,-0.4995416997393593,-0.5719123175556966,-0.6625138621772936,-0.7371310580612471,-0.7883626644804295,-0.8249778529624832,-0.8551896195242379,-0.880462563215905,-0.8939384647038807,-0.8863292498557026,-0.8194327186345766,-0.5824636886003165,-0.18189416510789067,0.0913586560083629,0.19968565660189125,0.22895647298336813,0.225043991727376,0.2072610077932863,0.20417554581591466,0.24755153107488653,0.3518817622250254,0.46929187227799535,0.5580618722073091,0.618397989942502,0.6673628909472644,0.7055277669344786,0.7390050431539937,0.7757376400867524,0.8225984244986894,0.8722250319258715,0.8961888539428289,0.8746283718541444,0.8422371214214459,0.8582157625231288,0.918919078702994,0.9659640001971849,0.9799671617215139,0.9756097917266567,0.9669667628315398,0.9586505824779555,0.9506966800490876,0.9353627553540379,0.8860563982329485,0.7758704969980466,0.6522637100062206,0.5838499118200567,0.5722867257460422,0.5715887041990706,0.5482241176435569,0.4876994418509116,0.39238377958323994,0.27908280393085055,0.1732709314950009,0.08463931736760517,-0.00014756398573713165,-0.10223253089040243,-0.2319794283469879,-0.36255172476074543,-0.4620501315928142,-0.5364073004016342,-0.6012415736676492,-0.6552294533949186,-0.6822694395975999,-0.651658081045685,-0.6077032691221913,-0.6142330614331448,-0.6954117483825073,-0.8300473658078333,-0.9254407756417249,-0.9484623912518417,-0.9423906527856544,-0.8876769283597243,-0.7689674918443269,-0.6397623602292274,-0.534218554747121,-0.4530135316953445,-0.3949628036469793,-0.3570239457388417,-0.3334526712007252,-0.3244585816219047,-0.3576142901916277,-0.4503832846636256,-0.5619483945320916,-0.6167266099895613,-0.6004233763833906,-0.5421169965311621,-0.46860278169054886,-0.40137734286493415,-0.34999281670476207,-0.3158198135123684,-0.29328247223217496,-0.26861904420457,-0.22371525578032317,-0.12091723219435024,0.10490761764963338,0.3673454148647284,0.4677806459074555,0.49563216287004347,0.5177702175849933,0.5493827644296065,0.5991010056456236,0.6559360491941284,0.6902042248618788,0.6916708939802316,0.6718517998202824,0.6478817047472435,0.6294158475835959,0.6147439939803925,0.597358058470666,0.5716440702641404,0.5391875596299244,0.5168564137509291,0.5238541075040042,0.5635863474856245,0.6162756311900824,0.6457826911880485,0.6262083126532958,0.554842116289678,0.45635003214825925,0.3652620405726787,0.30265553398176037,0.2754674695907845,0.2958767705714275,0.4263842339979869,0.7292229602446925,0.3772399206819394,0.22702735477538388,0.16673665039876256,0.13249096972685287,0.11117860179354179,0.10145128837794772,0.10418274033959016,0.1179191799439751,0.1366877089323865,0.14473433440942182,0.05748341641257577,-0.0969513901483184,-0.17077780852698463,-0.2165835191335987,-0.2645240193094515,-0.32258326950206656,-0.3932862354750649,-0.4663885962379933,-0.5271075675041385,-0.5616651922045277,-0.5724855947062646,-0.5720751435699459,-0.5763231246763959,-0.5959025601595046,-0.6278905127673594,-0.6630131820007631,-0.6911239792419931,-0.7002504265693752,-0.682914497122766,-0.6355550983149221,-0.5674197316193148,-0.4964143581430294,-0.4322099294282693,-0.37846731072347306,-0.3380045418207307,-0.31787167146635276,-0.3256897861423896,-0.36545658730750086,-0.44220682738621897,-0.5681554964613361,-0.7525622906918522,-0.9112575126126864,-0.8606507211563624,-0.6800726043858025,-0.5297820258567895,-0.42336759311133554,-0.33205452008886593,-0.23555780215143732,-0.12966085797750293,-0.027772780386779862,0.04617016305145863,0.10206131518099747,0.1494448732865361,0.18220747448210692,0.20053400487507395,0.20397410914807898,0.203469814485362,0.20811915664045968,0.21679084622594,0.2420173148387803,0.31371259216591724,0.4833109555100145,0.7171061568749045,0.7108225937358951,0.6116524185874366,0.547354525708651,0.5095012470572229,0.49194592780083607,0.49473895848238864,0.5190919575037338,0.5601505085933609,0.6104675121910098,0.6593629281685827,0.69589897958725,0.7148420536020016,0.7151448419955516,0.6968865433390429,0.659301557700199,0.6006677551152609,0.5270665604781755,0.46895548656763264,0.46009758221173847,0.4991254302241928,0.5305440240257308,0.4935439592862691,0.3982766735452525,0.26872670376522745,0.12837612950058347,-0.00043307961515760303,-0.11624504942745668,-0.22611817387599398,-0.3328902172750323,-0.42468530426821094,-0.48537026728280513,-0.5245997602718374,-0.5637927930436761,-0.6166091435636802,-0.6720919664754931,-0.7195391094698612,-0.776584544926978,-0.8443082520810286,-0.9041279902339993,-0.9335584418602457,-0.9321613122970854,-0.9231522460360571,-0.9200779078040598,-0.9249219261246832,-0.9295238014439697,-0.9172074259676448,-0.8746594750057363,-0.8109706710396999,-0.7622116396412856,-0.7453833769570767,-0.7553401722719107,-0.7808058534038306,-0.8056042717033456,-0.8115738545356916,-0.7962325063587249,-0.772155807011249,-0.7489478295917436,-0.7282587348750305,-0.7130820557888321,-0.7061327164619932,-0.6944621107325423,-0.6581128391560032,-0.6105255944338364,-0.5563307226126125,-0.4722258382466636,-0.33100599741334863,-0.11365752527640956,0.15488797620550063,0.37950270423984445,0.5089430950767743,0.572380780926498,0.5928961581303313,0.5830064035710238,0.5662626367310464,0.5796937912927014,0.641969484065922,0.7457513307320714,0.8218923346564565,0.7883176630651394,0.7072854504605843,0.6530840894220505,0.6404627191459521,0.665942633726271,0.7273661827255437,0.8159995159083954,0.8872512109924963,0.8847541680038916,0.8416018000570481,0.8081907421714118,0.7895155237242405,0.7695306506717247,0.7396162739618967,0.6991273448564053,0.6449206510417148,0.5616615903038396,0.4511049128795469,0.3450632690169697,0.27189013397392625,0.2465323442129935,0.2585373450660627,0.2872753376205014,0.31488192441050195,0.3344514624827504,0.3371084629244482,0.3116808069286163,0.25154075055379493,0.16728641478614695,0.06070144687088559,-0.0734590600330638,-0.22243726374311212,-0.3637558636093897,-0.4626176083414421,-0.5115994510619574,-0.5284988472853979,-0.5392118721846314,-0.5439131134988678,-0.5233445687186616,-0.4885961721272759,-0.465173000944884,-0.46670924961450805,-0.4949140493507987,-0.5435698281629907,-0.6051163642459494,-0.6702139969485708,-0.735778915065352,-0.7980037470582926,-0.8296620451317587,-0.7515710523047371,-0.5556270377542933,-0.39179694409039345,-0.2999337224295506,-0.254254279907052,-0.2396773976518416,-0.2545720939397277,-0.3064764709867817,-0.4134301708863054,-0.5595658244214335,-0.5653949557023118,-0.4372922702543208,-0.3575129047704587,-0.3347763473263636,-0.3475039339653676,-0.3853560452720031,-0.44577620128542655,-0.5234843547531298,-0.5888851504757193,-0.5597728712435258,-0.3217888164668798,0.07229424021382776,0.41523436460598684
