0.8848135127303917,0.781259297206943,0.7120763562726399,0.6728489127400678,0.6460857504737431,0.6138913812660491,0.5472030624090567,0.4122680485293781,0.2094458956859665,0.022093372990142475,-0.05253703874765928,-0.012116089521460642,0.11248030324263468,0.2943764972914858,0.47775319453707793,0.618932028659682,0.6996658942456734,0.7191708305481387,0.6740646941839538,0.5649732442616509,0.3929738590323788,0.1851722109533086,-0.01466634952910022,-0.1835969966916318,-0.3233178449912375,-0.44676453758717466,-0.5628843642037255,-0.6654912030202146,-0.7373803038941205,-0.767382259714175,-0.7610503784339596,-0.7346479710767458,-0.7176413600491471,-0.7413728111924398,-0.8102862278303493,-0.86769321690243,-0.8307826807362075,-0.7296226480176017,-0.6368393570989181,-0.5729460404432736,-0.5248739005271803,-0.4686194501158657,-0.36738725138819045,-0.20543802922857557,-0.011605603382950466,0.15060614371326217,0.2660471085929984,0.3502862061307755,0.4244749893501408,0.5124985826985716,0.6324249109234326,0.6502109378559765,0.4567437566547124,0.29124081363778703,0.16918819145403385,0.04705778723822889,-0.08719751407001276,-0.23069632709097715,-0.36609723273469186,-0.45975167635917713,-0.488115189342082,-0.46338130448296677,-0.4243936229868778,-0.400800641563227,-0.40912098459814056,-0.46207144049035104,-0.5795970520818629,-0.7747976979498252,-0.9368216576972783,-0.840050360663843,-0.6217393948374699,-0.4365739008959121,-0.3005504217131995,-0.19897821898027407,-0.1149274047752162,-0.03485541787030258,0.04931777703448936,0.1442733074351919,0.26142348923754233,0.4188020586977706,0.6189194446958478,0.8081251035968727,0.9184722075398467,0.9601629363995301,0.9732720251811492,0.9753609832683113,0.9709630651684278,0.963248784440092,0.9555378933263918,0.9507487309688865,0.9487512578449124,0.9478138726516628,0.9448317297778973,0.9345829173806813,0.9046788634914327,0.8187236431594475,0.6007439356674309,0.255132556823591,-0.037815375732195886,-0.20199236515453892,-0.27249799224192256,-0.29156875036582575,-0.293782051569655,-0.30135562388392645,-0.31995212015775054,-0.34391472173628823,-0.3605102653295947,-0.3663450188916937,-0.3901874088918262,-0.46039976550165296,-0.5816817747027847,-0.7222753365873441,-0.7944100848827532,-0.8268414457812401,-0.8896804936433013,-0.9495121807016661,-0.9752886231158774,-0.9815713536560925,-0.9822290133056552,-0.9807802048950623,-0.9791153775535528,-0.9787199103484211,-0.9797632835763619,-0.9817231948631494,-0.9829474703594956,-0.9826068844127069,-0.9803518396282809,-0.9755583507720481,-0.9646012425288251,-0.9339389403821968,-0.8202696977213418,-0.20832790380472355,0.674045735929626,0.8671460939899909,0.9049982803592851,0.9068028279605742,0.8909771342320304,0.8567852351405698,0.8099541939241834,0.778700720169876,0.787882165124113,0.8025274590340487,0.794564139677299,0.8023212862482981,0.8378540771827274,0.8849286158482793,0.9245657269525487,0.9482783529690642,0.9597193321643381,0.965359840227812,0.9689897630997566,0.9707346798948779,0.9592892321834954,0.8679894022211834,0.5113915439963902,0.012568936428594388,-0.31572697436483066,-0.5464428913795925,-0.7745149865398053,-0.9042468139519126,-0.7452379276656419,-0.547823904251487,-0.42957010499030296,-0.37445704766259563,-0.36996529097987557,-0.41889345554844926,-0.5437924379852549,-0.7542481261300952,-0.8530710836308466,-0.7491899390624632,-0.6574485771213585,-0.6088612885474666,-0.5843179478677277,-0.5742423309410635,-0.5747323342231146,-0.5804581364588041,-0.5859637441448087,-0.5892390917402656,-0.5865822692354525,-0.5548108672619898,-0.43667985338542786,-0.10686386077644804,0.422817916030754,0.7222195378302994,0.7974746554756904,0.7864802555260162,0.7196293944997068,0.5716649344844693,0.28530188674148876,-0.11918892418480896,-0.4780935485577463,-0.7092915248114436,-0.8394479513672369,-0.9059255515039255,-0.9369282183688582,-0.9496234110426814,-0.9523745159258021,-0.9472124036339219,-0.934078206935748,-0.9115884605719033,-0.8756404010760105,-0.8220694200605161,-0.749923166428146,-0.6647474696011177,-0.5757177848209174,-0.5000293572769358,-0.4504050114763142,-0.4336939682751957,-0.4250471749655896,-0.3858835217123815,-0.30494061078299955,-0.19798173681654435,-0.057150537887689395,0.11977688748178665,0.25321720041998513,0.29929964278371507,0.32098902170207655,0.3554073518806691,0.41571164402117333,0.49609068251850086,0.5858342228059563,0.6688283023994659,0.7381980153666873,0.7921679915572515,0.8335286425399885,0.8628817139778775,0.8777236690480001,0.8766287385315864,0.8589387404717899,0.8237612455809357,0.7694373411154817,0.7024609751565596,0.6442385072446869,0.6174945045209052,0.6436248788032768,0.7347942226057511,0.7886813231811972,0.6649467039548701,0.5367402713103389,0.4703279963028996,0.45736633465923726,0.48130714568033367,0.5321852540821514,0.6027826234102367,0.6853610721465988,0.7653707889948929,0.8128901046999228,0.7890894980019951,0.6919980079161692,0.5622614367850971,0.4517215974685245,0.4039879633371891,0.4435429670273303,0.5529739404013968,0.6764568842166587,0.7732766406878167,0.8325324699791262,0.8579241909948678,0.8565171270247809,0.8302564247347052,0.7780846301164203,0.692410567352321,0.5720289155174748,0.43853184031700415,0.33153738648723097,0.2676955067941129,0.21892545033548688,0.13199637513408802,-0.06805323704685834,-0.3153596690529987,-0.33179143006755124,-0.2462528174251883,-0.1410166990152151,-0.05475844719588213,-0.016170243077021883,-0.044022640069444036,-0.14520806242814774,-0.3048395547181851,-0.4894263209271811,-0.6566398715678344,-0.7826220588012998,-0.8582284952119765,-0.8908937604366215,-0.9034822397023479,-0.9086290300653102,-0.9103719875603831,-0.910399639166521,-0.9125633570764305,-0.9182519998484999,-0.9230508471281064,-0.9209119612119719,-0.9066921259959972,-0.878121686611749,-0.8404386578944041,-0.7953811098139905,-0.7323566932093856,-0.649277820405991,-0.5603795205968312,-0.4792608689785781,-0.41191240482569874,-0.3499158469319066,-0.2858057409841318,-0.21821403524255842,-0.1613701597737755,-0.12272470626171825,-0.10170457289262269,-0.09396997922279512,-0.08528807912724982,-0.043167747278867276,0.09270050858711061,0.3391021647221988,0.5618063442356106,0.6399765592172539,0.5863643532616949,0.4973358809383112,0.4303919223268132,0.3884596141475174,0.3623340446181854,0.3548514145183907,0.37018322202774584,0.41875020683967246,0.5145575210972383,0.655930802294546,0.789635960544398,0.8572050286474772,0.8680335255710072,0.8498255844343758,0.804472894532193,0.7267626940399232,0.6362118604659365,0.5659974377432547,0.5340363350857141,0.5282276823330854,0.5121567806231233,0.4708039820788751,0.42636589684695253,0.3971099608219966,0.382839718438666,0.36969196027316864,0.32898530871383835,0.23360940586734064,0.076537709022837,-0.1400808196828877,-0.40123552661831113,-0.641137670070827,-0.7872741674826473,-0.8497518295266199,-0.8615100871993264,-0.8462911790438298,-0.8382061174978335,-0.8600368231310592,-0.9056665475772016,-0.933679638312912,-0.9153025598812523,-0.8797358882614701,-0.862130942504668,-0.8672357063796146,-0.8876120950991281,-0.9116457488952381,-0.9290473417441435,-0.9324346486578188,-0.9166591878805114,-0.8790369798877177,-0.8151682502836433,-0.7130003750465668,-0.56446988184003,-0.38337516556666196,-0.18800004149234256,0.030705413700389643,0.27428740594460815,0.4474590565869985,0.5339250994904803,0.5979020241737072,0.669247456557887,0.7532019006166599,0.8370488057568858,0.9017860270751535,0.9380342768064034,0.9506181057193879,0.9462688325738355,0.9266218218337466,0.8845010832472939,0.7988600053740201,0.6346426132091345,0.3679512231192585,0.0558045623617335,-0.22230383764522835,-0.43632272426346264,-0.5822927375257848,-0.675106011275041,-0.7331909635077974,-0.7734209826687819,-0.8069380330382575,-0.8391600822590705,-0.8763750613090681,-0.9169964363060021,-0.6523372668729631,0.412038305702719,0.725783282142678,0.8341725652581352,0.8880749311011371,0.9210938113970846,0.945147304839355,0.9632370837758183,0.971937345070995,0.9638833301377536,0.9356265158291548,0.8901099122924674,0.8253251464527054,0.7240226682989569,0.5505043734718855,0.2776955541057495,-0.05147305200814384,-0.32843338053955684,-0.4974082960248054,-0.5844252575577471,-0.6290325028382354,-0.6500891909882656,-0.6691298479634198,-0.7063287011078669,-0.7681376209050064,-0.8377799826220931,-0.8959250169100638,-0.9339466263968603,-0.9545297416521857,-0.9636638501448219,-0.9658650857795656,-0.9617323887868818,-0.9449007405306094,-0.8878828400261846,-0.710646628112154,-0.35688794449812966,-0.06612006357702188,-0.001767037714525843,-0.10488170830186722,-0.26943916010382635,-0.4368806499472683,-0.5865492757347204,-0.6723346273567629,-0.6516571694466488,-0.486609030051419,-0.20114359245402855,-0.009937976056953866,-0.0047746226231615875,-0.1515785995475375,-0.3796400801796827,-0.5739922340778933,-0.6961950329101498,-0.7649309268471401,-0.7965889842801124,-0.8044047025281901,-0.7963941653282001,-0.7745155550247799,-0.7445897974022024,-0.7196221356428046,-0.7191635093101868,-0.7662515070408276,-0.8642516761000987,-0.9508277167169383,-0.9084968598798381,-0.7561217941246313,-0.6025198186381115,-0.4847642310319155,-0.39412758893762984,-0.3103884076966068,-0.21074868078433792,-0.07518948340014533,0.11016038955404912,0.3294135155016703,0.5249841809068965,0.615825353134636,0.5643543934538972,0.44693086210730537,0.3432183447500919,0.2764908144764151,0.2488671572284653,0.267587112698797,0.3552385977152481,0.4864174602852987,0.49263808809254395,0.4540636046759059,0.4420494905782983,0.4476947248304242,0.4654346885303834,0.4951785936458637,0.5397532166714936,0.6099786309734817,0.7153296881235841,0.7943885175259429,0.6904889874959816,0.5100486404115704,0.41888219366141666,0.4266237279472478,0.5065277819161216,0.6180125956168447,0.7206530242994871,0.7952080488732368,0.8435135491229258,0.8739008195832715,0.8920680097557379,0.8936381396534315,0.8703776615258946,0.81999558970415,0.7548748293616543,0.6964432972995349,0.6569647508363867,0.6297502264548043,0.5680146329708744,0.2892289859862117,-0.2710397302431902,-0.5649443613831434,-0.6737489156882343,-0.7194245255303248,-0.7478857509590138,-0.7778077219008117,-0.8169004601601189,-0.8608933538110402,-0.8969755807096879,-0.9087571555930102,-0.8927642995685307,-0.8611270243237361,-0.8267071585231901,-0.799183481475834,-0.778356554395149,-0.752575772774392,-0.7034953881919536,-0.6015863933553237,-0.39028454842365,-0.0021944555668112244,0.4411887923396802,0.7084024713527998,0.8223563450099557,0.8595024947656617,0.8509542035691295,0.801274181763021,0.7130086973669665,0.5921151227832637,0.4441810103898654,0.270143464236999,0.06976857622577448,-0.11121137098537938,-0.18385100961469866,-0.1597582810546088,-0.10457974532296564,-0.040104153817219865,0.020414225543264403,0.05353830406187355,0.0568340210569685,0.056702989802313274,0.07883947596635336,0.1316434145206826,0.21132100258261988,0.3137909712740458,0.3963314921242624,0.4240594318659845,0.40805549728621354,0.3733145606409782,0.34062000088335664,0.3228556851210289,0.33217319221309954,0.38013323279650724,0.47416516451922175,0.553045694316365,0.40573524489004525,0.2150186536852539,0.09869134951761442,0.02296243507194841,-0.04232463906695384,-0.11961621808236686,-0.23613248032066397,-0.4013493670130499,-0.5261401023688033,-0.5719016362464617,-0.5985200698872422,-0.6128659336804038,-0.6032760477027457,-0.5693534799451548,-0.5251572145469439,-0.4982826593313729,-0.5123608101579478,-0.583308923789681,-0.7054598561204857,-0.7843656547607067,-0.7313276188101467,-0.6362420796813507,-0.5663944154289368,-0.5335343223372854,-0.5403508194978979,-0.589464834805972,-0.6822284401268146,-0.7816091051900672,-0.7575293969448892,-0.6279819532026317,-0.533990905598447,-0.5067989558030664,-0.5276147816577632,-0.5758944853420276,-0.5824159091297765,-0.19524925753047,0.5715937940687199,0.7629857789398273,0.8196348845193897,0.844674175688758,0.8556563217404167,0.8602852947095208,0.8601543351929797,0.8539325209755405,0.8324908327602558,0.7685037269223486,0.5836244659958673,0.12791162817495147,-0.4365130935240126,-0.7301043521791946,-0.8403580046119912,-0.8809271294850475,-0.8917022377879275,-0.8812404287680919,-0.848921059085245,-0.789743842761229,-0.691629751022442,-0.5485901431704228,-0.3654319960499411,-0.19193160668910758,-0.08320036906997574,-0.04544764389205544,-0.06608131323921838,-0.12000611279310579,-0.1911862720392065,-0.2744839230181163,-0.36247336409143915,-0.443009124690921,-0.4885060306900012,-0.476125611755371,-0.40062334116082454,-0.27764558356617985,-0.14844273524645626,-0.05145473835281016,-0.012041928878733557,-0.07927238642336101,-0.19602699421224423,-0.2068113428270823,-0.21145860347949702,-0.23320508611710947,-0.2957541184488078,-0.4250746487507604,-0.5555228799750346,-0.6338079455993975,-0.7193734497423258,-0.7843276442123832,-0.8036677633125231,-0.7828237066481977,-0.7112307959252292,-0.4785102410648349,0.212423763988287,0.753481449156202,0.8802730211343942,0.9064657382337317,0.9053953452592346,0.8952726672802737,0.8862083863611715,0.8849304864883363,0.89509146025394,0.9154901098346432,0.9381665559418522,0.9485320814079627,0.918753495827198,0.7563752181366551,0.28003423370200103,-0.21540435273101766,-0.47205640425169937,-0.6388804828443082,-0.7945304568845446,-0.9177839768174906,-0.936311754940049,-0.8929529406708189,-0.8639856535926717,-0.8652999062984498,-0.8867887326739019,-0.9124767635127932,-0.9252657624827109,-0.8983840719332781,-0.767785968547108,-0.4789566252442763,-0.1880348505797802,-0.05479631895970526,-0.062054863603890335,-0.1485786691172455,-0.2703918189377634,-0.4089571081951859,-0.5469213483650415,-0.6726180170892413,-0.7712018628253228,-0.8277913401000268,-0.8426044292419208,-0.827810368523288,-0.7964781758726643,-0.7578695219151977,-0.7158360847253294,-0.6747767063271415,-0.6363573140428316,-0.5923175578698306,-0.5325759505928052,-0.45591119636124905,-0.3769798041658343,-0.31383578659848327,-0.2698743786854764,-0.23843998473289174,-0.2177389653120855,-0.2192547686126254,-0.24581250969352406,-0.2757979190939753,-0.28785743515789075,-0.2588529904171922,-0.13975811027935317,0.17369878452380821,0.5293059343614737,0.6576626583314307,0.6687516448024685,0.635410293772077,0.5931503903679117,0.5745596434023789,0.5969556513259389,0.6475620603577418,0.6837653724232665,0.6798397508603409,0.6643483646254911,0.6691474797420772,0.7026086425378328,0.7623074847387342,0.8441520358751731,0.9310006074723184,0.9779522782041837,0.9332862989099512,0.818213481314194,0.7070911694759283,0.635688612421657,0.6034219773382907,0.5962712829436512,0.5943983607897152,0.5744735320220049,0.5138207776022279,0.3937990539050026,0.20803161819336174,-0.02954980884052294,-0.29349463572614687,-0.5439936265337662,-0.7320733801716377,-0.7540926049053547,-0.5871786473457794,-0.39451284545094034,-0.2665223339892551,-0.2101653686434029,-0.22081181181484769,-0.3274403875470079,-0.5812189837612031,-0.75747372035677,-0.6766890371490778,-0.5907184189805622,-0.5395137923181814,-0.5143845538618751,-0.5065069577740671,-0.5144127618508507,-0.5453209988163408,-0.6036463385493288,-0.6719330156483531,-0.7170448120732741,-0.7483400827688655,-0.7886264880440642,-0.8248851923865028,-0.8409566982937154,-0.84150718570429,-0.8350307779752757,-0.8269192204466466,-0.8068431271660473,-0.7358387833198091,-0.6015079967708763,-0.4676430185192989,-0.38097891701591396,-0.3540355430222877,-0.3909268917273836,-0.5051032186327227,-0.4898706218606449,-0.23215130603867706,-0.08226786693564071,0.00610688353569735,0.06344411976525344,0.09578701811419152,0.08801531427055781,-0.00842485145473672,-0.28305853118226615,-0.6900762737760078,-0.8717883711892943,-0.8974923998490787,-0.8870179859817433,-0.8506175025723632,-0.7692972078759995,-0.6304003281155565,-0.4405198589500059,-0.25881591306701407,-0.13160697887645065,-0.08435107820633558,-0.0841048619062234,-0.06303663562029425,0.028274256323608825,0.18119871419477082,0.33522915499571454,0.4434834543691243,0.5114742679173256,0.566759036143654,0.6325195540511608,0.7190710241290094,0.8194771939626411,0.9061728566630648,0.9558889618221877,0.9732529430749598,0.9748666821702084,0.9706400750755184,0.9651881507684995,0.9624222501427732,0.9639995715869384,0.9675247797649128,0.9685388098515972,0.962132202676256,0.9355408777084099,0.7927351744393123,-0.5121799500457566,-0.9468392357397531,-0.9792880311222875,-0.9840351218867437,-0.9845657319872918,-0.9845085750643641,-0.9836820066559446,-0.9804169701889641,-0.9724839407716543,-0.9581303424838681,-0.9358711459934422,-0.898607556273881,-0.8143323536233527,-0.45869484495509255,0.6318883734343061,0.9259982544595674,0.9637055154947022,0.9682046823812716,0.9613599514066125,0.9400740728708512,0.8792428857758866,0.6539190589275768,-0.10813276830556247,-0.7089940574384557,-0.8703293915791136,-0.921991749205116,-0.9439818090169474,-0.955086242551201,-0.9603051027033901,-0.9601534448247389,-0.9553191218332082,-0.9507961610719113,-0.9529245925537652,-0.9632210636879303,-0.9712529155046161,-0.9304132122589229,-0.6834821783716784,-0.19600666785685816,0.12523512167809067,0.2504732844021761,0.28243439862787867,0.26947086169435436,0.22432424189836736,0.13901602095121945,-0.03558289961946321,-0.3965407083699902,-0.6979497298138725,-0.7303579641399769,-0.7039636488996431,-0.6340020809044827,-0.4936852975453892,-0.3098235530570965,-0.15465448248458827,-0.06580090330198857,-0.0001974847868723962,0.09786037245212131,0.23619103066567512,0.37952903561413076,0.4892648396435882,0.5600885815974043,0.6034655125487596,0.6281808244318821,0.6285204288540993,0.5971952154845699,0.5361207432516345,0.45522159875346435,0.36541509903312513,0.28452880148184356,0.21751339332153613,0.1654664601974889,0.1269450106075789,0.09808292644330993,0.0708368713334807,0.040310259486110465,0.00014615386605019575,-0.046588654907000024,-0.09104165714075968,-0.1253121058371535,-0.14690205272266546,-0.1593025629523455,-0.17984995565030942,-0.22881847341336264,-0.3435248350007361,-0.5885171823811325,-0.6798947311148611,-0.5093734485481479,-0.416903779563713,-0.3733756889509147,-0.27753619443735794,0.20899125074845196,0.7977934121796808,0.9107840776828802,0.9389191036362864,0.9471996346707909,0.9428804882746971,0.9216495948641124,0.8720126679862765,0.7943993502383551,0.714738247903759,0.6666307418818537,0.6444261460112874,0.47707287589535863,0.14621719844342573,-0.05335201607206801,-0.16629775724224347,-0.24514526756223923,-0.30437454475058007,-0.34232654347122143,-0.3587064578498895,-0.36144011132245896,-0.3528871490644239,-0.3254032625280073,-0.2637000566742838,-0.15053877365049187,0.017242384704722735,0.19568664380756365,0.3186780738932457,0.36767466153702355,0.33123966346844397,0.1419191034373921,-0.2152061579527866,-0.5060117953035387,-0.650200092423444,-0.7089061411276929,-0.7125520806638435,-0.6297083506926129,-0.3591271305880096,0.18270868161310388,0.6408622823564368,0.8048333511506662,0.8354193450075785,0.8304062407776054,0.8192901599412403,0.8121097644942614,0.8179975243845795,0.8441439647780224,0.886185657981417,0.920508942693116,0.9179977230941971,0.8657745879255664,0.7495703116397621,0.5426153639733592,0.22324945287674552,-0.15963195492452995,-0.43536930536755986,-0.5765435819429037,-0.6502375306208419,-0.6927152594095755,-0.7195400646421826,-0.7373880578923928,-0.7523931746233791,-0.7708865299501488,-0.7874226854254766,-0.7957508229470563,-0.8021137254951309,-0.8227422649613448,-0.856359524180711,-0.8860135460486113,-0.899623678408123,-0.8949630397242432,-0.8670858599043183,-0.8012240495690194,-0.6906293528964312,-0.5490893061651639,-0.3604957438034134,0.01977336538112473,0.72720478399699,0.9076559037524359,0.8640045931809605,0.8132249164312505,0.7748756711026464,0.7531250710704359,0.7502263829978806,0.7680701990143286,0.8093056691539982,0.8716054672743537,0.9298874366410289,0.944331996277872,0.8937200363651097,0.7836871837337729,0.607706016343701,0.3308610296075093,-0.06062153912835791,-0.44058446699140535,-0.6801964805364092,-0.8034504111933752,-0.8671626695647864,-0.9023124739669217,-0.9213651905326393,-0.9286521726481476,-0.9245983720562834,-0.903082214386888,-0.8650790821510461,-0.8356489233651753,-0.8307443907797901,-0.827707064071477,-0.7985539699004245,-0.7620631421459777,-0.748364079699313,-0.7581278822928693,-0.7585480552623062,-0.7251960326107975,-0.6523850983608573,-0.5522205614563066,-0.44251198951622717,-0.3403121366458804,-0.24316444017728234,-0.11950648827450071,0.1368350229881927,0.7365684328873856,0.892709707425204,0.8007654693088375,0.7590654047112038,0.7522110370528653,0.7614044203136303,0.7654518421652019,0.7406748507601016,0.6673986274206857,0.5402521547685599,0.34719354887980114,0.09679283175663166,-0.1478435534813782,-0.33693566604863956,-0.46349057331744564,-0.5257214194914909,-0.5328131234019295,-0.4992675976890014,-0.44423748014510195,-0.3818306527926665,-0.3247548582496816,-0.2669443934700157,-0.19562784378570436,-0.10467872931836603,0.005134277161483588,0.11603499418783957,0.20514604221413982,0.2549488237822972,0.25518521718409076,0.19638021836109001,0.06982986847436382,-0.11913823802244676,-0.3261126525173203,-0.492604590196629,-0.604772542873414,-0.67446736222526,-0.714457186380341,-0.7352594350701445,-0.7504234654143964,-0.7708504745403758,-0.802243643545838,-0.8416808076860887,-0.8812488194358723,-0.9127568133886178,-0.9317547159919359,-0.9397087058993961,-0.9336394186997423,-0.9062195381558857,-0.8581683740204292,-0.8041210939413906,-0.7664006247718584,-0.7548085210872704,-0.7700892312466033,-0.8057106411908946,-0.849015049428078,-0.881275139950142,-0.8922864238911523,-0.8796932635233639,-0.8229397045480983,-0.6469579507912062,-0.24198530402809282,0.20123406597041388,0.4501112229014606,0.5613544967795029,0.5973268060785268,0.5858850920784865,0.5425646282907228,0.4943904988498727,0.46863721425308114,0.47652605804267484,0.5160119196489044,0.5718660468342701,0.6183897407155518,0.6477578504547411,0.6790879102357457,0.7302943080916107,0.8043137163684997,0.8809291659957194,0.9364069250334054,0.9638609867348703,0.9713481740583949,0.9676091676266744,0.956125136597031,0.9398444690928724,0.9244243118646988,0.9201758364027887,0.9357972561709202,0.9678295838262029,0.9833399458914305,0.9191887645953092,0.7532759510069956,0.5575489575055879,0.39093276847836195,0.25119363966929814,0.11325478847256715,-0.03502592908663806,-0.17861995830358823,-0.2858546317288304,-0.3466639294587987,-0.37447938877356973,-0.390517427296002,-0.4111144182403313,-0.4347639252256217,-0.470045346268363,-0.5290688758750189,-0.6166979700900511,-0.7192843709038452,-0.8017403694564447,-0.8467322839533719,-0.8668981054572709,-0.8786820796143835,-0.8921528454711499,-0.911604001296014,-0.9311316900792341,-0.9407640487770988,-0.9351771767583026,-0.9189040713920775,-0.9016648746178483,-0.8942951619109827,-0.9008534183420028,-0.9145717866899569,-0.9198707600501957,-0.8362855993838394,0.7688813106832502,0.9644350117037007,0.980615527677695,0.9850227974996028,0.9854154096412371,0.9824085128472586,0.9746353414197991,0.9575749064312323,0.9191389016873641,0.8256333374773002,0.6050932860710271,0.2540194690539436,-0.025745399013005283,-0.13969871499348394,-0.1234893534671845,-0.003304548866385623,0.2031534577569691,0.4189975058449989,0.5531027429525807,0.6095414562771189,0.6344567993320043,0.6667007605239311,0.7292616478275369,0.8239165712372214,0.9102048491589968,0.878816791305915,0.6884651891612946,0.4657791111311118,0.28442662312139605,0.13264052004585877,-0.024412601224218556,-0.22636199078672525,-0.4974474142525364,-0.7707938537190138,-0.9209814111770068,-0.9644661116388311,-0.9714351158457354,-0.9708724109357683,-0.9673432399096056,-0.958366716969085,-0.9426209050230068,-0.9224827440179099,-0.903579581476691,-0.8902879860463823,-0.8810626978270314,-0.861294394597231,-0.8184516467141306,-0.7666899668862824,-0.7330226076610683,-0.7253958617294849,-0.7267164212958399,-0.7101772779043947,-0.6760305005874976,-0.6395458925032415,-0.6122850535487756,-0.6020686196154865,-0.6128577796676615,-0.6405222538031142,-0.6762812750732078,-0.7103278018276218,-0.7357463200172392,-0.7507320123664466,-0.7540202971048828,-0.7462673982538183,-0.7324804073460236,-0.7196896175029813,-0.7211887339298345,-0.7550135452283806,-0.8232921665958735,-0.8419353529939214,-0.7170185539349493,-0.5576213420735169,-0.4457378953939881,-0.3711449688945839,-0.3046920615985121,-0.20986287519272606,-0.024344763356336518,0.3258133798628339,0.6388799006288343,0.7848362080424566,0.8640733019933209,0.9137885230364547,0.9445065230371924,0.9604367772368378,0.9662149125918689,0.9655617517389576,0.9600643105266018,0.9523961608554268,0.945118981709529,0.9397877872158757,0.9341445700984378,0.9200923011623282,0.8786611247939751,0.7605602496582451,0.4524873632222407,-0.039653319298292425,-0.3936137701995247,-0.566289095346127,-0.6547873808021718,-0.7083981162507775,-0.7442152692518845,-0.7728325685748976,-0.794437175085282,-0.7992014655274406,-0.7763254483929507,-0.7218747271875523,-0.6313942089162237,-0.5009953812209689,-0.34900044383761525,-0.20737895155559047,-0.10415892282253426,-0.05297039628258917,-0.042768299497440904,-0.04413512967506245,-0.01225547102923343,0.06863464085522711,0.18644108428391282,0.29450993307068457,0.36199478606315655,0.3886541969250876,0.3926475430164545,0.4035305508317627,0.4560436642578545,0.5768553947123302,0.6928060263891538,0.6490192473226535,0.5342811244614682,0.44888523180894213,0.4032181628289705,0.3908536819408159,0.40448438729136377,0.44263402998143747,0.5128043929191672,0.6171081626948279,0.6950186524211892,0.6155911004164669,0.4702990047467366,0.37995277274192013,0.3327941425937611,0.268397598751279,0.18229030766903354,0.1166787438723383,0.07761534876275274,0.05839082823657219,0.05152978577476558,0.04861286936540936,0.03821864848950345,-0.05171855370612236,-0.23683974005778116,-0.25392246754017844,-0.3071020283478415,-0.3977214337302273,-0.5221619664966825,-0.6533146505031424,-0.7420424500892925,-0.7554705609205605,-0.6887706143262218,-0.5549935561802104,-0.39913293445200265,-0.27904003347304895,-0.20201034521725375,-0.1438219832856928,-0.07692685592384141,0.026427826102518728,0.1776519549094892,0.32323382954778357,0.3511016633615529,0.3011270255151569,0.22274101579280206,0.09786300120018766,-0.10983401589276696,-0.3839761089841026,-0.6151139588688033,-0.74030341613804,-0.7931230604950407,-0.8203450719432528,-0.8377141411288327,-0.8456625549536613,-0.8485808866881949,-0.8457722770414641,-0.8280436993383511,-0.7912020128630703,-0.7393887224878408,-0.6780496772044579,-0.6073845178620915,-0.5262646033655688,-0.43956298771117086,-0.3570355207075617,-0.2890079029255683,-0.22426417639830096,-0.13415692606263394,0.003823730250840692,0.16845090784374617,0.34194518623522174,0.5389552024600704,0.7212890325706277,0.8180226993668469,0.8558289335927366,0.8807968071189616,0.9045591809914867,0.9246542904744727,0.93957624471799,0.9448473728649975,0.9414474360315106,0.9375466616949129,0.9385633479833387,0.9434046329426338,0.9474169234797639,0.9417885712018308,0.9200242913372456,0.886149638577864,0.8547071994540776,0.8330302069291928,0.8177791799774854,0.7918773663583896,0.7281383041486128,0.6037875126593791,0.43513149238541987,0.2581132310726286,0.08668159744813102,-0.058052459406712824,-0.14933091171945603,-0.18884379082594646,-0.21760915658436816,-0.26900393490415053,-0.361836133806666,-0.48849722015242675,-0.5653199278879558,-0.5320801621820577,-0.4688804083571292,-0.4280652861374066,-0.41837446833579117,-0.4359295109914992,-0.4751675500781075,-0.528861156525639,-0.5841864388176115,-0.6304600623899536,-0.6743662499370152,-0.7404809503429479,-0.8480177892708491,-0.9505748902907531,-0.9118810489577193,-0.776187141751697,-0.6616971645906901,-0.5876787693792265,-0.5442079877266649,-0.5261633333908842,-0.5386715898675931,-0.5915444933885581,-0.6838812728314589,-0.7911759277525524,-0.8772928505112695,-0.9278632960172192,-0.9495329379251026,-0.9523418232288753,-0.9366364027552109,-0.8874922802952867,-0.7382391056747536,-0.2518956060342275,0.4951876414527129,0.797954956266952,0.8816095598693396,0.9043967453971605,0.9043705503276502,0.894079733794348,0.8806880878694228,0.8693415432316784,0.8665829487291336,0.8731053532680018,0.8822317692343064,0.8912724409278651,0.9013631231053217,0.9135226203182291,0.9297121529255769,0.9506349103618762,0.9722129199391586,0.9847748511877121,0.9794561245372154,0.960315399515351,0.9381025219280869,0.9158294001602948,0.8893344765445284,0.858091302065759,0.8298496253490075,0.8124735832969335,0.808703091813077,0.8144006476981382,0.8206707451708001,0.8030859586175331,0.5853611857110753,-0.4370110479280323,-0.7907140868348,-0.8733021428391141,-0.9101198870393361,-0.9307021941163737,-0.941124117198172,-0.9423808167721938,-0.9346435066437363,-0.9174631364591106,-0.8897885502227552,-0.8547357356229162,-0.8223013292353958,-0.8057520778459891,-0.8149239378931293,-0.8493938212878008,-0.8912258255545149,-0.9167661196331187,-0.9231574240030179,-0.923575932820842,-0.9257021614198768,-0.9304920962913823,-0.9357268760459757,-0.9400101043462507,-0.9439905439800568,-0.9483657528680836,-0.95347406303334,-0.9599888014898067,-0.9682101338275215,-0.9711204429777602,-0.9298235624877281,-0.7603218556277154,-0.5112480068233036,-0.33357769909575774,-0.2377159085923767,-0.1800858508054961,-0.12557915633692432,-0.0413664325033322,0.12559145023788781,0.42923498580094893,0.6897072887801237,0.6043330958601449,0.4151132865726255,0.2775908364371695,0.19735161162078088,0.15318167923751283,0.13071031128191749,0.12093163036444374,0.11681103212791548,0.11354388014166414,0.11184547482132849,0.11634557987674528,0.13264544146751853,0.1526940235808549,0.12521514213848603,-0.02305954647198164,-0.179772719002961,-0.25585303933128556,-0.2700403826303411,-0.2463642513770227,-0.21494268685733345,-0.1993437538235287,-0.21029719934863303,-0.2578400861935213,-0.32666334421431165,-0.37639070236623473,-0.3618185523525392,-0.26745693251054065,-0.10441208533777975,0.08156973445886696,0.2578315097024066,0.41994303464608124,0.5762504871872742,0.7098273899546242,0.7807973659511213,0.8107229655869119,0.838684775543717,0.8711682570603697,0.8979948582013142,0.9104653605303479,0.9121219871653131,0.9114914862759652,0.9157867398996311,0.9291251974350743,0.9518993547868434,0.9785622347282338,0.9915787302755441,0.9697643675659386,0.9118464235656188,0.8338664311589697,0.7454966057124195,0.6336644912719804,0.4507692242115413,0.14930057285178522,-0.1797326325628164,-0.4167695024978968,-0.5587740810625911,-0.6386003513202848,-0.6879986395318549,-0.7320005216752118,-0.7839282049432642,-0.8361658783390304,-0.8662927402548541,-0.8623303371601849,-0.8549957308735231,-0.8892691526028507,-0.9544588586511721,-0.9319679525689578,-0.8563961463075446,-0.8094969634147048,-0.798903574026556,-0.8293714272944832,-0.9070777023689465,-0.973043127753683,-0.8414904972085057,-0.6122030297427183,-0.46718377381203,-0.3999975882254146,-0.386896162399854,-0.4211846554017497,-0.5082523245375938,-0.6517541538810699,-0.7960595108752743,-0.8316075923946782,-0.7935100116281211,-0.7549468433103087,-0.728084116266793,-0.6982338136206235,-0.6524037899612992,-0.586231520833784,-0.5196066925763937,-0.47331053395479394,-0.45153397486909547,-0.43854005895124293,-0.4065701901901394,-0.3393274441474838,-0.2290773288208763,-0.07047986275260375,0.11890297475957806,0.3015257934916296,0.4245331271026433,0.4846061829964446,0.49957363201098465,0.4758022638496937,0.4151417313450192,0.35160179543119197,0.31994769336568973,0.31962527138926905,0.33355481148014965,0.31551827122752923,0.18611072302300266,-0.08220146700806044,-0.2671686049748747,-0.27423345315482733,-0.17765298872875282,-0.020574597044650988,0.165871145844007,0.3588185968221077,0.5329420202224657,0.6492401699190757,0.6766397628359907,0.6273181545336666,0.5273993634224864,0.4522042797910287,0.4664639907714921,0.5226419363637905,0.5565775408213874,0.5825750138249901,0.6184307034634688,0.667711233083234,0.7349512953880236,0.8132546710946115,0.8629761510425625,0.8444761052442843,0.7802668543981879,0.7219789097237204,0.6862784474834361,0.6560026969002416,0.6240742704980421,0.6383470965780479,0.7016110024511446,0.738390998154129,0.686519134507826,0.5541415963972267,0.36775210085444865,0.1355745637091853,-0.14908389115412202,-0.4700369522410625,-0.7362552138628066,-0.881401918500148,-0.9434596193879626,-0.9654860244538925,-0.9686208011228431,-0.9652540527487803,-0.96035887227326,-0.9499827514221014,-0.9203087003832057,-0.8533743686694815,-0.7514973785507434,-0.6525931991563828,-0.5995217956163789,-0.6077764977730744,-0.6773975801828654,-0.792419049109756,-0.9038876854937641,-0.9548884126529223,-0.9196814492868808,-0.7498760146753372,-0.3504898915213077,0.1057791827735179,0.3728458939181444,0.5124177785179612,0.6160726213607332,0.7198454092155445,0.8140944068057048,0.8801929264590165,0.917028086994117,0.9337591307534836,0.9370752032463195,0.9281557128925256,0.9070447098983612,0.8860370924339096,0.8831262855534866,0.8951131974330033,0.8990548144961709,0.8749865325872779,0.8150493654338983,0.7192791018639338,0.5816087352576027,0.38880446000202423,0.13758744624315297,-0.16413008335307142,-0.4876687258889581,-0.6872967708616078,-0.6610098566795265,-0.5075035984917138,-0.22429913490728917,0.04650188034147206,0.147647509101934,0.14825067075853496,0.08962095707274406,-0.02775151332261257,-0.19512812765436421,-0.3879559906369537,-0.5810416098850495,-0.7228664797035074,-0.7490262712111606,-0.6779673753830692,-0.5996023776537227,-0.5552118520040606,-0.5389733660852504,-0.5413873783752744,-0.5593077611804955,-0.5913633601598708,-0.6331383877767978,-0.6774809679400986,-0.7173221983154008,-0.7444907497548461,-0.7543013600951268,-0.7512321455804618,-0.7537727472865035,-0.7821040841134589,-0.8377648392135354,-0.8782509134400104,-0.8488306989938355,-0.7723119367004415,-0.7053917469863898,-0.6661436300879611,-0.6559023732717023,-0.6709000778467388,-0.7071336515808936,-0.7550272934069164,-0.8031663328366971,-0.8393220653805397,-0.852697435012225,-0.8332714017111646,-0.7677403681587393,-0.6675260970875495,-0.5659821782476482,-0.4971699491195927,-0.48344920384239604,-0.5374129329972032,-0.5969493214959728,-0.4877939381088714,-0.29569615804437316,-0.14007306431641092,0.004681995201355799,0.19086025520596767,0.4421940111702227,0.6719685605428585,0.7816655137648438,0.8259669790351217,0.856642729677061,0.8833957252778799,0.9046439086928918,0.9185670454255463,0.9239927688653671,0.9214255409270518,0.910795024437259,0.8909123672237635,0.8591799551355783,0.8148505266692666,0.7607282716472198,0.705441823252565,0.652988038541993,0.6072339755713193,0.582837774733587,0.5846758744947375,0.6039902773450662,0.6251744779728391,0.6389331553156914,0.6366725710567264,0.6119886528455041,0.5608564011711951,0.491596129231621,0.42539221559024154,0.3727863977853182,0.33395541207428164,0.31459097162829963,0.32417411412127317,0.37568951445923765,0.5101623988744023,0.5951276769548504,0.282240046389503,0.13195534364678838,0.07009707792986383,0.04304331468366796,0.03504605694641449,0.043550519235815134,0.07303500426993897,0.13199666404031526,0.2351837340682228,0.3887001374209138,0.5389818957154361,0.6282484307776668,0.6598911916041854,0.6648041379524258,0.6681821067476661,0.6879011374296138,0.7218094210775465,0.33729104524185655,-0.19799558974403786,-0.326995510752332,-0.36584476249431724,-0.37379297268323214,-0.36635090131110704,-0.35023285727042586,-0.3307447971331773,-0.30795936689491543,-0.27545938571646716,-0.22699926030765588,-0.15503900759819975,-0.04321024975020765,0.1441242269859894,0.4612667580788586,0.7891402061687653,0.9004709676460891,0.8930190097709717,0.816593133303918,0.6648418566371355,0.48157952537715126,0.3205821295503635,0.1917244492071495,0.08446659119055354,-0.009377865122692886,-0.09339565346610555,-0.1728896919881067,-0.2508377032912011,-0.3296216538808369,-0.4106660414147937,-0.49982467133492076,-0.6038904872719859,-0.7204105574724603,-0.8197535190051085,-0.8668190984733929,-0.8641459557271408,-0.8341390633273926,-0.7813972099330693,-0.6930073969229648,-0.5687554862989961,-0.44634528213165037,-0.3566200565035297,-0.30176224133493484,-0.2759656887147384,-0.2694709318175843,-0.2779559894899587,-0.2916204640291444,-0.298827220187443,-0.30091707497682313,-0.3085323325299984,-0.3325983196372197,-0.32889472907897227,-0.2614969390966403,-0.16898172076550058,-0.06462152929283371,0.0445558616888414,0.13883276066064612,0.16904612840894395,0.10661930028210179,0.05063689909516404,0.04512795375149853,0.08818337997031972,0.18198132714495605,0.32357592625575876,0.48086472597829666,0.6178036684815938,0.7256713783020844,0.7888444254431622,0.7846568711677716,0.7064797550637915,0.5921911999911971,0.4846404169289507,0.4000132853305683,0.3361099417501002,0.28400925403547334,0.22754864643619685,0.1458826518247754,0.017393227185988926,-0.1739242843274115,-0.4120950589711907,-0.6448856147004547,-0.8214746243198828,-0.8680983017231613,-0.7062276960559021,-0.5156758548713838,-0.40645993177560963,-0.3613629985395762,-0.35308408857110984,-0.373925050978584,-0.4298536349991978,-0.5450661558610101,-0.7572647431963117,-0.8839294514370702,-0.7039805357580341,-0.5974099630633207,-0.6195163360097333,-0.7107309670782017,-0.8047874317210295,-0.8602062777698041,-0.8774534144840016,-0.8680093672022124,-0.8399648986569376,-0.8046798843437997,-0.7728704568625284,-0.7447831039776172,-0.7185919603581541,-0.6989348288153315,-0.6958136186529784,-0.7183233316793771,-0.769526640208229,-0.8358177525734297,-0.8832575021797167,-0.8884366171966355,-0.8650833667437623,-0.832771391185711,-0.8038509203640843,-0.7856854514418311,-0.784685155607638,-0.7969196080718676,-0.8206627191888579,-0.8571586816326392,-0.8999606606771375,-0.9329707843044143,-0.9481754060745232,-0.9523398107200483,-0.9545308335336086,-0.9575685674651637,-0.9525552774242259,-0.7958505590412297,0.8217799862641034,0.9610466759205336,0.9821970992275063,0.9894938031953785,0.9921356027579759,0.9927746019887634,0.9926300770640709,0.9926381706380056,0.9936374048653672,0.995294590346685,0.9961469048534772,0.9941883864139087,0.9880258871897798,0.9755092403364586,0.9479738812587442,0.8802727490870869,0.7282300909095083,0.48901219817457126,0.2939518268818247,0.30395960797267074,0.536537005152766,0.7901493025585548,0.9120184873874031,0.9576453615887176,0.9787130064282682,0.9908848871817736,0.9946926248025098,0.9844388745227474,0.9459696069774245,0.8404340562924276,0.5683507653441211,0.0102152760672519,-0.5651037253307656,-0.8422413988675064,-0.9343610292527006,-0.9607480225486016,-0.9670796680931183,-0.9681518317166932,-0.9680103612366987,-0.9678203575047966,-0.9678777617545051,-0.9687589922386709,-0.9710565685231755,-0.9743100024433371,-0.9772749530526739,-0.9796803962558884,-0.9824541985543135,-0.9842105266783873,-0.9804232708198645,-0.967700681219644,-0.9488519628538028,-0.931066059553336,-0.9207940315236979,-0.9213959870278141,-0.9324823323052073,-0.9490797137597895,-0.963939977791965,-0.9740334949377034,-0.9795085336253185,-0.9746478017102312,-0.9508956864178775,-0.907254193229817,-0.8555093321333059,-0.8144673879100804,-0.8002723495265148,-0.8248775745055612,-0.8880261053824356,-0.9235662475914884,-0.7872021114637507,-0.5488093312648498,-0.33537137316171817,-0.1468318704388619,0.039350829656537696,0.23421833548925236,0.43827205881463377,0.6396790859107916,0.8063195007230107,0.9103752828143503,0.9592917202206533,0.9792060741825487,0.9869773473721563,0.9885004505023693,0.9831482875012223,0.9682802777530061,0.9434211436017141,0.911415712633008,0.87865186614496,0.846697281833922,0.8002140659281652,0.6959343738351805,0.5075085790006142,0.3147270176100475,0.16901426704203656,0.05026826391407069,-0.04812616219858492,-0.12814410816436944,-0.20548673007340676,-0.291556418788341,-0.3915619811811961,-0.4862228652336038,-0.5387428569557796,-0.5055316134356365,-0.33104060706993904,0.0085482174291764,0.361901121434069,0.5828955079817261,0.6960072463175574,0.7549549145381205,0.7873220819920324,0.801160393207658,0.7933805270783574,0.755285750895594,0.6728610995925288,0.5072978666005209,0.1999288879199905,-0.1998586404513105,-0.4937028281270116,-0.6541462948252698,-0.7426655083352781,-0.796500268916959,-0.8304603106836731,-0.8500980261139811,-0.8591827593028581,-0.8623047993566703,-0.864470496460548,-0.8679707209276702,-0.8729491295852178,-0.8754068106155551,-0.8678639187562704,-0.8519569410257137,-0.8364478911882981,-0.8303774088222022,-0.8316108291580722,-0.8292990939849246,-0.8166502775675186,-0.7938654249656819,-0.759425550333438,-0.6978560120304305,-0.5690406381196078,-0.3098420528750871,0.06312090820579183,0.38470640127583156,0.5759318783184184,0.6796683927744815,0.7387516842390113,0.7726380928104979,0.7887524383586575,0.7883335404350462,0.7718949122002832,0.748917422790396,0.7375806137268209,0.7555562153646577,0.7823160114885988,0.6533006025646076,0.3908436907010192,0.23212080930487558,0.16401505708891478,0.1541717651000377,0.2130514852129279,0.34947704948988595,0.18571926396008087,0.08595108388536961,0.05769787829244912,0.09986678205443358,0.3440645980036277,0.4509391359211887,0.33695344699808155,0.2920793198563721,0.2723557481006076,0.2685185735566664,0.2784718253671636,0.29787990762535005,0.313325242785731,0.30555210707093,0.2591463006065709,0.17908163601316984,0.09503027889067996,0.02673114479633148,-0.036349239650939835,-0.11103293875779967,-0.18529511363603876,-0.217590206127612,-0.1962523970815215,-0.13538908730796087,-0.055772433639667,0.03113611070076692,0.12107973849490522,0.20851682946759637,0.28154908960203007,0.3240052630040351,0.3133414718021144,0.22270511030640688,0.033659843629274884,-0.2142418871959931,-0.43757800310099876,-0.6091228350449475,-0.7344050442947623,-0.8134546028733606,-0.8489106676550475,-0.8529554744901592,-0.8304731477259458,-0.7874111875727619,-0.7346659006140185,-0.6796780683717959,-0.6207896835317731,-0.5446289616502166,-0.40589187130698023,-0.04075710580021752,0.7154697048081532,0.9079305868805094,0.8254766225429289,0.7159463097161178,0.6054117953910575,0.5040528458794485,0.41811489759571685,0.3497186569176984,0.30300880552765447,0.2802885690025091,0.28221536936074654,0.30423235423953043,0.3277181367112558,0.31574976525489046,0.2000710230131318,-0.0342079939954475,-0.25168525059593244,-0.36573287780882874,-0.3783525685481067,-0.3154309889110021,-0.1834643554892193,-0.020774642542298036,0.10231603556325393,0.15880567856288597,0.15689601543101844,0.11529904223988043,0.03957253331057235,-0.06741212743132736,-0.14310022902053252,-0.1106221198092067,-0.04974196036019277,-0.017780064013003423,-0.028354284281834233,-0.0845201596452823,-0.17595578979935064,-0.26541926743833566,-0.28840624776259943,-0.2181702788839184,-0.08083770091121024,0.06981910943463805,0.16934807227980925,0.18895656999601784,0.13069577074087163,-0.009757281178258083,-0.21066889676853262,-0.3995200251771164,-0.5255009740681783,-0.592317152677685,-0.6307294380006744,-0.660046447576686,-0.6823354329825958,-0.6897378474241659,-0.6863945832751767,-0.6748887231747782,-0.6514393882562852,-0.6156958802996235,-0.5752196688738511,-0.5352884654271384,-0.4973456927200006,-0.44981770616140504,-0.3920879177049199,-0.32768179840421247,-0.25229151917952325,-0.1686698511142664,-0.07922074457059869,0.024810070393407827,0.1596767411221763,0.32266959636148035,0.4797611512936814,0.6077662867557003,0.7034187214287397,0.7661052124847759,0.7992331368548244,0.8121193088356322,0.807667779458652,0.7862244890418942,0.7479910064511291,0.6917929236477477,0.6131438063559727,0.4944952332148419,0.2904309009761724,-0.0669570443354384,-0.49560566266899814,-0.7547515917407381,-0.8538198602885284,-0.8886658550578492,-0.895788329351717,-0.8722757825378434,-0.8101733751165974,-0.7277910241864165,-0.6570073901035344,-0.609748472098205,-0.5800809781004576,-0.5542536306725389,-0.5196744830968927,-0.47027897839397637,-0.4273186947586706,-0.4233796419590855,-0.4583496390048586,-0.5044389511167623,-0.5230648440096797,-0.48292556457069663,-0.36992413683880904,-0.20171847923524164,-0.03527157887047587,0.057620610109751315,-0.0003237290326746726,-0.24345303587062184,-0.5118603165087247,-0.6403034989667865,-0.66832756441809,-0.6717067720705021,-0.7026109969028083,-0.5669665425668502,-0.09217856715912359,0.13033655654198442,0.28369981842401837,0.41369373162893236,0.5159633617505253,0.5941733247334696,0.658397146145938,0.7149330353554493,0.7638660759005496,0.8032533878274425,0.8334413712226327,0.8575983538581642,0.8825290459685524,0.9151400330547247,0.9522865118135678,0.9756020977493098,0.9775698306244024,0.9698595197262698,0.9616971181066912,0.9531604900425459,0.9297952655179789,0.7592004098329921,-0.41503649046505614,-0.8035052296078272,-0.8122695109184137,-0.7789048922594417,-0.7557738501493055,-0.748922152768716,-0.7465095098327905,-0.7324511857938217,-0.7018341440905421,-0.663303831807143,-0.6319128547915822,-0.6233540234542022,-0.6499392315951005,-0.7191399716646403,-0.8164804494585581,-0.8885155307923861,-0.895920633386928,-0.8647939610308744,-0.8352977994551316,-0.8205512540252577,-0.817579384138128,-0.8177779252075695,-0.8140825842179615,-0.8014910037318247,-0.7763157326211421,-0.7406000805548457,-0.6965847106795854,-0.6343055154160964,-0.545380628111132,-0.4356961844471463,-0.32257933821834794,-0.22649255282202133,-0.16109949838854434,-0.12383422161532419,-0.10460157223879243,-0.08336411455006505,-0.037759280345660916,0.03304700902655233,0.08651424891162113,0.11238552656036134,0.1383876503005033,0.18641076572480578,0.2620905115412054,0.29928293153905683,0.28362558105563496,0.28633487688354514,0.3222108510832282,0.40580322253833795,0.5778686511511777,0.7687373682909299,0.5791068572313718,0.35643749768348554,0.25379465166637005,0.21634535598173527,0.2071198670810458,0.21466392817073707,0.23908468011929224,0.2829535905246489,0.3545153149631864,0.4655705415815138,0.6298982358897721,0.8188084232956289,0.9406122138534929,0.9618483405926912,0.9236742041650096,0.8588323105199257,0.7781345275528166,0.691727073607549,0.6283112808131507,0.622427032823926,0.7005497929825161,0.8423014802071813,0.8711456181963568,0.7244726991090382,0.5549120936548944,0.3867133973817152,0.18544048746520836,-0.06985779065302494,-0.3247913833343901,-0.46762788999827987,-0.49142433995031104,-0.4625763923733561,-0.42775850490410927,-0.4052609740371317,-0.4048532528501874,-0.43444634266216064,-0.4926948382501784,-0.5642312269608396,-0.6405012384021934,-0.693803723370436,-0.6855062746729933,-0.6255695081085795,-0.5448545347708332,-0.44844383917986497,-0.36836662873983494,-0.3165116321349575,-0.28343063148231595,-0.2613788557918031,-0.25075532427471386,-0.2557719160013065,-0.2843733289089814,-0.36332501957454905,-0.5914728094817437,-0.7372122093460319,-0.444087021044703,-0.37232557713664677,-0.40281632045371635,-0.49747965021899077,-0.6479281601337045,-0.8203429854072097,-0.9424677290428322,-0.98271435941132,-0.9770794762222952,-0.9581626745116909,-0.9280339790066711,-0.8615581535163027,-0.6907882854754223,-0.30012991464327227,0.24318702217404037,0.6253063469945082,0.8161738607032311,0.9097801748409144,0.9551661665501789,0.9674134237097659,0.942897258602618,0.8699650892337843,0.7476215975319858,0.5955797275839774,0.4377780009311149,0.2848395811099752,0.11184943927450101,-0.13755673657714151,-0.1986324431393093,0.033864092362521185,0.3647175359785822,0.6271308530631554,0.7550942758689654,0.804955357400065,0.8218740065678517,0.8260543796303201,0.8257290523715104,0.8219128264546008,0.8123221444142803,0.7919963107645056,0.7475875614085381,0.6314381545558706,0.33425440040312354,-0.056432878844878506,-0.27719731382782775,-0.3524424902106215,-0.3482443051438412,-0.2933929024608157,-0.20622732654994616,-0.10884806335653086,-0.018135111824569786,0.06913484751370275,0.1831613684641293,0.3585005897421035,0.44730881550513163,0.41246218891791847,0.3913213078503096,0.37826498899497146,0.33156948273061376,0.19814388429906152,-0.05223770179975454,-0.35226024988548965,-0.5884020659569115,-0.7392512400560798,-0.8397565274693689,-0.9048852377579106,-0.9381698080293247,-0.9484080973034622,-0.9460942556149857,-0.9381658726646656,-0.9289270905802325,-0.9203246521625434,-0.9118400587522629,-0.903432746791402,-0.8956710785401035,-0.8902497118092163,-0.8889281586621374,-0.8937696674485948,-0.8967812934164747,-0.8754171325737087,-0.8101446679316696,-0.697202952940565,-0.5587262631395193,-0.44006553507923996,-0.39564122463938034,-0.475730087389639,-0.6550089106459781,-0.7757741462946007,-0.8231613058939774,-0.8433436989160458,-0.8432436771905806,-0.8213446104610332,-0.7791629283769954,-0.7225211263903046,-0.6504776140805635,-0.551898139479693,-0.3887383020828967,-0.09849073463529026,0.2482242131737347,0.48626991746782855,0.6349807187285055,0.7460886920351851,0.832424497812044,0.8896144594852511,0.924100347903964,0.9489364039264004,0.9688897578377459,0.9807599189118545,0.9835054767291144,0.9822975558286515,0.9822939908922718,0.9841619292970348,0.9859888360029071,0.9858298851313654,0.9808203185306602,0.9632856175131104,0.9190024196269153,0.8341735895526752,0.7069348452561689,0.5436831682979674,0.35329411491815704,0.13828826136542918,-0.08190860832324996,-0.25926110880723663,-0.2874177883497249,-0.2303659917456241,-0.16446746966237544,-0.09886045356235326,-0.04165266860008059,-0.010465422683708807,-0.011673962748025958,-0.04193280872596614,-0.09062224021360778,-0.1496912202727052,-0.2176544340647995,-0.2951122914164575,-0.3683472646577985,-0.41017740236569833,-0.4324836213669937,-0.4745504662359004,-0.5556537582792895,-0.6703114330267428,-0.7776589268008426,-0.8001219760129791,-0.7612401722666252,-0.7318173305897824,-0.7334895277657149,-0.7590174311480881,-0.7931309869467497,-0.8162757056353304,-0.8242224382277965,-0.8276634932965684,-0.8361620278316843,-0.8508380147099057,-0.8701227248098374,-0.8888067200736423,-0.8947759904192764,-0.8733523342965378,-0.816112260058172,-0.7285984852249521,-0.6335330021742597,-0.5552003074180288,-0.5151052786329381,-0.5324942950704319,-0.6163413411447444,-0.7254447430546552,-0.7535829756355434,-0.6747738971398674,-0.5695130455916632,-0.4694549533586301,-0.3630880075140972,-0.23536607277407756,-0.08364817380396183,0.07723344397232475,0.21514586534613503,0.3190039986856907,0.39634757963976897,0.4631056081025575,0.5236367889398847,0.5748595244409439,0.6137647852956042,0.6329189592181029,0.6282458770018826,0.5985959458968813,0.5518818452345812,0.5045442915921353,0.4806707911003561,0.5098485480002387,0.633656723241898,0.8099516136205142,0.9259309320678966,0.9719095906843949,0.986775871816789,0.9904526860378813,0.9903444342519754,0.989234140943846,0.9887505399441902,0.9892852935165791,0.9882535370388483,0.977538933537982,0.951926061683241,0.9248815509983795,0.9091949760239402,0.8972143003377983,0.8737746060459981,0.8235818449007809,0.7181122062984997,0.5052176723737772,0.12567152606937732,-0.33204653829977526,-0.6211499832792818,-0.7390368757170243,-0.7745076301107614,-0.7603974583239497,-0.7114926096278786,-0.6458946024954179,-0.5804980411653342,-0.5291499660901257,-0.5049861986252663,-0.5133350471488284,-0.5310093345601865,-0.5326037021297598,-0.5561345337707733,-0.6309265063294768,-0.7294657894352492,-0.7987111881096991,-0.8247063908942466,-0.8369794044067458,-0.8624984957695907,-0.9048727189580462,-0.936520729264048,-0.9320084481189548,-0.9050780201408315,-0.8777265018566095,-0.858065558025339,-0.8464340294753817,-0.8444105451066729,-0.8525278835493089,-0.8684761162003147,-0.8880723387643504,-0.8972590350512025,-0.8404574148023641,-0.6333068876022319,-0.3693801224913539,-0.2127593188713256,-0.16868277132826132,-0.2052133105795976,-0.30587760223539096,-0.4445301210063085,-0.5450631789520172,-0.5629232200878196,-0.49464705033959433,-0.3766318124710389,-0.26973910907179127,-0.19944065617486312,-0.16100571643583503,-0.1398941716333882,-0.12385419586397908,-0.10485041555466552,-0.09179484562547013,-0.09566444448849404,-0.11805347558920533,-0.12750899194721577,-0.11457377996097966,-0.09500385252250404,-0.08076829638206416,-0.07513468021001134,-0.07789142040429192,-0.08072062093415991,-0.05805681546687682,0.13131728478812418,0.4785024594314543,0.43624651873153153,0.5045150673356719,0.6536784601550089,0.8118957468433149,0.7646518645133676,0.5841721779861738,0.4385649779377001,0.3483304422158365,0.3034506022117816,0.2993981658067875,0.3357395725890884,0.41444051659231684,0.5314907576860529,0.6246791554039329,0.502062780947615,0.11074142897569125,-0.29193798257353726,-0.5188197548600932,-0.6342144784971772,-0.7176854515391407,-0.7897736344359897,-0.8433480529532642,-0.8695867542151724,-0.8735635289311251,-0.8690500388649747,-0.8661758740526725,-0.8678987891089545,-0.8726767831895019,-0.8796903015592901,-0.8855723740001299,-0.8855935540810735,-0.8731726534187945,-0.8404684046732823,-0.7752966645208724,-0.6413271751221599,-0.32803173942240765,0.28521572814236534,0.7452782785509429,0.8990176716444214,0.9472208673644766,0.9645044975848734,0.9712297304220789,0.9738541734224591,0.9744604003695396,0.9735410101962038,0.9704970606418881,0.9634284043051987,0.9490794742818097,0.9223827012989045,0.876176153947893,0.7998442021736145,0.6791479895846846,0.5030515580395886,0.2799333725696514,0.033351468869802406,-0.20993037483841614,-0.4102796031650965,-0.5391467243087998,-0.6001332073472518,-0.6057085584232811,-0.5779241453949634,-0.5494170880332085,-0.5708246888383487,-0.6588444140615394,-0.768572880437551,-0.8492026206496116,-0.8932070899587133,-0.912803010387829,-0.9203729597721986,-0.9254748874795398,-0.9322970322667368,-0.9416581326319542,-0.9520231183148439,-0.9587340312135425,-0.9578187050752249,-0.9510099651349386,-0.9424399084612102,-0.9344955235629652,-0.9285621732945649,-0.9233158020849801,-0.9167133396396471,-0.902415791422236,-0.8550804600151288,-0.7635050502491193,-0.6530220204339439,-0.5579095236521743,-0.492417629157989,-0.4571346661747227,-0.44736169317119306,-0.45548320328043185,-0.47313560030885715,-0.49319354781048724,-0.5067453958169957,-0.5156074980744759,-0.5288672029010937,-0.5533758230638636,-0.5819935647207728,-0.6049657007943152,-0.6167548716441786,-0.619388862096188,-0.6197476672534303,-0.6190630318723301,-0.6047299415738491,-0.5586601479482746,-0.4932096821482835,-0.43265977658262894,-0.38377701122040564,-0.3471741531821728,-0.33119394968017823,-0.3392163243607777,-0.36811576800874074,-0.39987681040024387,-0.32439448542235066,0.24808150885439048,0.6685312082069463,0.8293824425601376,0.9100132542056097,0.9495632742662958,0.9669360885757687,0.970640002412487,0.9609832447067813,0.9284162031690355,0.8640325497808354,0.7794375440420351,0.7021284312707976,0.6462949071027363,0.6039652403347961,0.5595779148956697,0.4886666359581727,0.35062239504282505,0.09948246704069542,-0.25010208942600165,-0.5701260578983891,-0.7706154039043203,-0.8386823568077978,-0.7710393239055707,-0.6244716247152923,-0.483545770253621,-0.3845144209226145,-0.3335319113348187,-0.33467742817437013,-0.3491839796815354,-0.34498563794456333,-0.3430944602791067,-0.3537119014545156,-0.3722296218746998,-0.38755835619312384,-0.3942044887432203,-0.39382179855566884,-0.38047911656314654,-0.34297796841787576,-0.24459310849433838,-0.02932293911078159,0.2943532221413104,0.5933185331181103,0.7808107391155692,0.8755624190791542,0.9168328654920996,0.9343949775313882,0.9465965963361004,0.9558365652582835,0.9451093862177482,0.8839136550904282,0.7666176915314121,0.6438106346530792,0.5566865532613038,0.5061151735776283,0.4866535276561475,0.5039831464775814,0.5721076486323057,0.7008344968239558,0.8312454200347547,0.8194767106810927,0.7190051103961362,0.6592625372654063,0.6594847143376645,0.7067109633793939,0.7753433070923017,0.828383745536414,0.8329661223221559,0.7680020740653262,0.6668517064058962,0.5860061111472145,0.5360048415213671,0.5007232025966907,0.46674009540586997,0.4291588727380076,0.39315531678586557,0.3732981999466928,0.3724799869758343,0.3818534641989093,0.39223904598975584,0.4205483816148066,0.5020367324276906,0.607823341755245,0.6843270510571079,0.7350055149763943,0.7603717463929814,0.7696053798592297,0.7762433081377277,0.7830350393935017,0.7817865605168182,0.7635688052580034,0.7113568879325964,0.5899199340255844,0.3398227096986571,-0.038325702092708074,-0.38632309553211647,-0.6115909043307737,-0.7513089909096007,-0.8441282579417697,-0.9058355834272649,-0.9436693572836752,-0.964794960907546,-0.975583441455115,-0.9802021327475913,-0.9809228642110138,-0.9781062360649143,-0.9706580176905205,-0.9517808754435184,-0.8821463287244533,-0.33764778426877523,0.7618333770390009,0.910292513376528,0.9249865496244487,0.90017552560316,0.8158833486190389,0.5922625442129305,0.2059061528091275,-0.10090939402550884,-0.23119088567625748,-0.26203436190506885,-0.2464932982602772,-0.2000365366132885,-0.13674403358516693,-0.06916217613290918,-0.014111608923624628,0.013782015408427484,0.012636137891610992,-0.009979531203789863,-0.05537124446098047,-0.14946872901094682,-0.3692140092965449,-0.4190783957735912,-0.3262552156231999,-0.2897992333640255,-0.28527344496681145,-0.30367828914650347,-0.34097822346253603,-0.38317448266664916,-0.3903368570724545,-0.30127143314551086,-0.07845071653313948,0.23503317270720597,0.5142282181854966,0.6879494278521682,0.7783436567144276,0.8216165260690628,0.8376902455018936,0.8364174682602572,0.8206199020927434,0.7924683232815184,0.755834156779882,0.7106887356073656,0.5725964271405786,0.12688549951448624,-0.19841860863930094,-0.33632209637058275,-0.40826737995259715,-0.4557235135835114,-0.49472421574633074,-0.5323001490430185,-0.5750158942002751,-0.6235552827181182,-0.6653442249749026,-0.7024993401106598,-0.7514895916051847,-0.8075128592288272,-0.8480440383383747,-0.8742546653164935,-0.9007657375449295,-0.9302212438915533,-0.9510988398755226,-0.9328903951306017,-0.8483631831373165,-0.7271687031510031,-0.6311542256754565,-0.5782289912214809,-0.5553017270402001,-0.5462452365458308,-0.5448275892031726,-0.5498635527344602,-0.5533083138771069,-0.5371261912305912,-0.47420224204874334,-0.35839152322662493,-0.22580502208044806,-0.11900427506112826,-0.051078818791080775,-0.021703510222299178,-0.036971447424449314,-0.09554289340793146,-0.17595583837568707,-0.2750569510012763,-0.4336472631467177,-0.679947468939376,-0.6395256634537012,-0.3871312840492371,-0.2306976171225064,-0.13865400680520898,-0.07752687113432122,-0.030438661323794993,0.012476385936475017,0.06009962894090752,0.12081643627441102,0.2063884419442492,0.3349449134432716,0.5211015009972219,0.736590876715011,0.8867846121561096,0.9359572340100439,0.9392286018370479,0.9362242676014645,0.9368209405783716,0.9373145184474271,0.9347529487253167,0.9283848166692411,0.9197509488071448,0.9096276875331932,0.896693467638866,0.8792229881311915,0.854885319810273,0.8230607628099178,0.7914677968513384,0.775052494776187,0.7784109707711258,0.7889073644295308,0.7916049206300156,0.7699353074825628,0.6943491912258933,0.4983455046536948,0.09401233315821195,-0.38228667712555214,-0.6689407194192973,-0.8018543850022185,-0.8669622367270076,-0.9017459935784109,-0.9202850000948758,-0.9275989105982568,-0.921642726990557,-0.8883502263922646,-0.777160806426273,-0.44915012604400334,0.11997180214216283,0.528751538022796,0.7043432311089843,0.7720800025347587,0.7956538787235928,0.795246135265049,0.7771421632025948,0.7450224611909266,0.6980700520253463,0.6183391356276914,0.3945700512095706,-0.29582047100271114,-0.7473933330702014,-0.8323395329121779,-0.8413626025281857,-0.8361364362832256,-0.8386165144040337,-0.8435636245760062,-0.8028733682368906,-0.6956771029314791,-0.5867107415572722,-0.5169365955628447,-0.4916801327305683,-0.512228855244801,-0.5735586139047675,-0.6529802501118938,-0.7186690003197653,-0.7533055770591207,-0.7578036070731224,-0.7423725215216593,-0.716356247768887,-0.6885363976018988,-0.66755958471625,-0.6546268071476269,-0.6288133651793395,-0.500064832989208,-0.20678360559895848,0.05167592782395631,0.2109451440811106,0.30625588510324575,0.3515223246552913,0.3642960714196138,0.3513884686632384,0.33175853613910306,0.351382102298952,0.4491689409002264,0.5975504631427899,0.725491576578272,0.8036089808466086,0.8442197637482596,0.8639465156008557,0.8734498915846938,0.8740310170314937,0.8637075159982883,0.8471020378519322,0.8396623586317334,0.8553449142120597,0.8819982541153182,0.8886005236449852,0.8711065181027619,0.8457666314970754,0.8192497762713742,0.7813844963112339,0.7043846231933285,0.5216445033896773,0.1638476461615997,-0.21488204451948326,-0.4354448466807522,-0.5437467915638946,-0.5996112705512546,-0.6293964369071585,-0.6477927007242108,-0.6667898073445754,-0.6943346607821144,-0.7357636352367938,-0.7935934674903036,-0.8543430755079441,-0.8970570867916959,-0.9123846373655843,-0.908844222377552,-0.8971384369476462,-0.8799281896562025,-0.8555395769547808,-0.8324933168184062,-0.834085655550241,-0.880314313545286,-0.9443067306838265,-0.9361162156584699,-0.8506236664042561,-0.7750020951193398,-0.7417936690535766,-0.7413894233045377,-0.7579098654020439,-0.7777871825003217,-0.7953685737676767,-0.8139692436929896,-0.8330555253709722,-0.8259359677557945,-0.6579777670824069,-0.016878233906318017,0.5458487847288681,0.74777150614504,0.8249882978133701,0.8620486554810102,0.8804021600543452,0.8579094098307359,0.6887192999753299,0.32359508043614227,0.03716022407252312,-0.04290980523870117,0.02664607263693714,0.18207002278525775,0.4097636289014192,0.6576421072362431,0.8233055332244817,0.8986060749760156,0.9277240941555082,0.936632858471487,0.9370228752288973,0.9343331131105164,0.9315338643090785,0.9307761903728037,0.9321347469990994,0.9327592053755938,0.925289160853544,0.9012882415635604,0.8520171291500716,0.7437684094013339,0.5163093953081467,0.2033568364223112,-0.0390128841902631,-0.16894508964480737,-0.22428487826993063,-0.24748257411235386,-0.26440195105606606,-0.2865679908251935,-0.3096243141063192,-0.3228827876572302,-0.3263761889611902,-0.32193812357917495,-0.3081188214603508,-0.2858939603022694,-0.2573028995026912,-0.2311847324993603,-0.21609968624218995,-0.2207288566269355,-0.25174860085311335,-0.30458463487515186,-0.28553808610718584,0.02998637576619873,0.2285792175302104,0.34500570447138235,0.431264449297185,0.5040378530150402,0.5729939707133956,0.6434150058050695,0.7082800633021313,0.7472879405915365,0.7196006531165191,0.5665017673210596,0.07293332917204565,-0.6625471123581227,-0.9066279137624,-0.9612039880538511,-0.9770290348873235,-0.9822852129641474,-0.9846231064691633,-0.987327007351549,-0.9905928869147667,-0.9915677383474043,-0.9888575229749346,-0.9836664492756567,-0.9764937883691903,-0.9644566510698187,-0.9425035955004666,-0.9018677196626184,-0.8328762988555988,-0.7334079394554918,-0.6312072193829297,-0.5732608394124046,-0.5668640230080564,-0.5934526330471642,-0.6332894790377283,-0.669914809194391,-0.6865134433145158,-0.6693671294661607,-0.6176185185276994,-0.5476660994663944,-0.47495554101154885,-0.3865128952940601,-0.26003810717054254,-0.08634827767906862,0.12211656762308197,0.3464431361836791,0.5271927049548945,0.5865872875276547,0.5580141402268448,0.5172301413391851,0.4942131146966125,0.501853688308443,0.5464720548300674,0.6248167045845047,0.6956525424664125,0.7216980483787923,0.731626082036486,0.7531020040952896,0.7839246766301631,0.8144034373625506,0.8349318316767009,0.8417386416748467,0.8328161117287196,0.6760837337041897,0.3264424525243616,0.14866105531951318,0.08542086628027326,0.06594073431741576,0.06816578017349324,0.08561766367748257,0.11472671942079594,0.15329965626775055,0.1952462180904163,0.2300734457354647,0.2502992026150677,0.24716426676386014,0.2130556916908054,0.15554588873506267,0.11313460421647534,0.09340777041870513,0.07832816384545839,0.05268300389124712,0.017041467366153296,-0.022857759026498392,-0.06253096257970533,-0.10936727196881398,-0.18141946380253024,-0.31231342560260256,-0.5602741946718856,-0.8477465718751951,-0.7630369832910759,-0.590809025631045,-0.48592542514273807,-0.4318023088794937,-0.4171051920684147,-0.4405909791858841,-0.4904445861746817,-0.5436309448991953,-0.5757240229897792,-0.5776452977804756,-0.56139605709362,-0.5558348943099494,-0.5839453119150125,-0.6561866602777626,-0.7541033581068807,-0.7911290480316856,-0.6961041916468712,-0.5453916434421562,-0.4001133608964053,-0.23671367701081183,0.011144826810180872,0.3780366597285058,0.6966822510701721,0.8534301103633438,0.9163414400452579,0.940865894435308,0.9489642164982123,0.9498804789990818,0.9466075730153178,0.9378719965665903,0.92031236195452,0.8849063939524318,0.8100509576685996,0.6451501334980421,0.31884413884336826,-0.09187556987430594,-0.3547296859393342,-0.44803751662588864,-0.44395142985336716,-0.3972063141793151,-0.3468750665437579,-0.33081796088804416,-0.3652638100801472,-0.4096732167964422,-0.41406271112923126,-0.3898513151489728,-0.35362196076790275,-0.3097793685340956,-0.2604029989062079,-0.2039574891881684,-0.14708791757671189,-0.09131778399137952,-0.03191796643145402,0.027094623362660455,0.08270175365914352,0.12650286899409818,0.14101636225487346,0.11648375220609954,0.06449376610122284,-0.00833740136752095,-0.10487129769916936,-0.23019888635415361,-0.3876637463308465,-0.5611277175955598,-0.6811081181172001,-0.7166392889153858,-0.7163417659252768,-0.7129491224866321,-0.7105319304696427,-0.7083406943814258,-0.7070523883388307,-0.708568088580193,-0.7172192060484898,-0.7336537021762765,-0.7565266286690255,-0.7798151121335265,-0.7980370854997867,-0.8051128557774266,-0.8054067135964617,-0.80805735901419,-0.8100878522294026,-0.797373055206612,-0.7564479493761878,-0.6702990874604862,-0.5141776824056085,-0.29091630553482517,-0.08815362419747805,0.02459363013588853,0.06145008340767305,0.05383012817341465,0.038739298564509764,0.05784484653633077,0.16135294094957386,0.3066058980023508,0.39610837816367883,0.4244459553470883,0.4408084769039762,0.48842534916277464,0.5801863944078126,0.694376984464541,0.7910837925628511,0.8417453642408133,0.8258755595626501,0.7085572670683477,0.4309394345886859,0.058466619546245324,-0.20262551750189803,-0.297264289214554,-0.24971509792158036,-0.06487166357376506,0.19281598935854477,0.4065773296946166,0.5446830920053305,0.6179103989261404,0.6147260150685806,0.519902364503014,0.3633329832951333,0.2084503206027272,0.08334047924858862,-0.023273067418607817,-0.1564692972105714,-0.38820778186666804,-0.41585497177861247,-0.2967061941980635,-0.2257574334842446,-0.18306626883078306,-0.1581559655797512,-0.15332654412382998,-0.1904447100738959,-0.4207460385662934,-0.41121045482792407,-0.19619221966154204,-0.14035430609292554,-0.11857487462200822,-0.1128038474187117,-0.12287786375261302,-0.16276570199786683,-0.26448945230263116,-0.10936755786133195,0.035259222148585866,0.16516424571998253,0.3370415802754648,0.5292347088146189,0.6845924755652218,0.780886736342652,0.8298630834913906,0.8474782705220822,0.8410754289540294,0.8106566162856346,0.7535136487894573,0.6723835266296989,0.5894576003837303,0.5364429262311237,0.5076410385431515,0.4345324538140504,0.247522454792689,-0.02062323290976504,-0.27895385221594204,-0.4698177075701395,-0.5965555902783041,-0.6803744316072388,-0.7399970215348213,-0.787511483747483,-0.8252664425226565,-0.8459806762016984,-0.8441722545806911,-0.8379048898980564,-0.8563059429173996,-0.9069637836555984,-0.9633692576991945,-0.9780942408578727,-0.9351423827640051,-0.8664816059689796,-0.7992310507755132,-0.7357558917148229,-0.6596193320108067,-0.5586296984399639,-0.44154534597399286,-0.3397741440486875,-0.2784008602496372,-0.2595989163797324,-0.2638123026188124,-0.27603129421754674,-0.2891328916871031,-0.3082779082319493,-0.34380591095331803,-0.4179334343753637,-0.577218099385532,-0.8186086978546994,-0.6983187883723512,-0.4826484090342119,-0.39484060255797354,-0.3898262568341774,-0.45237560601882676,-0.5826956100938714,-0.6940201335617311,-0.6317505925106833,-0.5121315266006665,-0.40396683869963274,-0.24508886840268912,0.040531455679315556,0.38659116552324885,0.6207098341555939,0.7489118360847676,0.8345326004034418,0.8994488956705533,0.9337669562039276,0.9336778872555181,0.9142512718904777,0.89259078547669,0.8816896342777448,0.8915806373482089,0.9276450047409501,0.9684786552816956,0.9771008078845087,0.9487308277776467,0.886088598833913,0.7334595877003763,0.3618690345238836,-0.08624535790351043,-0.28420514035077565,-0.2899646404407918,-0.19444723502899117,-0.024176148753131652,0.23876982136234803,0.6014294577074986,0.8785648443814367,0.9213138241953028,0.8918459178759218,0.8757015864512618,0.8813889597743637,0.9019875282518756,0.9265366154959122,0.9385176060991849,0.9396162552381754,0.9563941104362832,0.9793603228336809,0.9844324105507071,0.970506896666336,0.9437166226729029,0.9067140042426947,0.8571211940294781,0.7890343919105136,0.6865178365420671,0.5014891755312259,0.0746072872829339,-0.6323125335422393,-0.929408085253365,-0.9757608472913121,-0.9818325500214038,-0.9832209000229808,-0.9826520708609282,-0.9795690042901322,-0.974734871599884,-0.9695879599776543,-0.9654388080804964,-0.9625355248513503,-0.9601094952337718,-0.9572564674261871,-0.9533072521907804,-0.9478150225086793,-0.9414649123932625,-0.9360978242906257,-0.9348781946320538,-0.9415496168089913,-0.9538759791470863,-0.9655806643067552,-0.9710385778940868,-0.9696860700979631,-0.9650946868157197,-0.9606215541004015,-0.9579198156335281,-0.9572251015897231,-0.9583131295746264,-0.9608513244438471,-0.9600373812645434,-0.9411734023476747,-0.8834640999863559,-0.776448568136911,-0.6357508867505964,-0.49432050100038666,-0.38349729862682164,-0.3199478871971012,-0.30661537308296205,-0.3487473695228565,-0.47626624067469825,-0.20026051499385653,-0.010353069874099534,0.05355182346394213,0.09068223836798088,0.12755882005493266,0.18006228794696943,0.2588216645654133,0.36109204724097616,0.4711174239835567,0.5565423234488918,0.5885177402080458,0.5734995059418816,0.5211709438362891,0.42377551058075424,0.3224296556264153,0.240104416549694,0.17684667166399684,0.12987969231182134,0.0962616274796657,0.08094859148740674,0.09107595824946442,0.13392382725056837,0.21009575645969691,0.29779429586531025,0.37912881503772355,0.4574092708475714,0.5576890382628962,0.6260192917020663,0.5571178508737293,0.4921001615748171,0.4931011415420674,0.5422818841511226,0.6067163006289723,0.6696092012601167,0.7390608449883422,0.8342904014432385,0.9437716292528612,0.9955931876340334,0.9610335949838879,0.9057705005490347,0.8688696418075292,0.8514292584517713,0.8479695267637684,0.8544142788758364,0.8651538329106504,0.8623120668815214,0.830080671863036,0.7692020264997812,0.6788734890647516,0.5422299585628264,0.35057776829951637,0.12748621768377283,-0.08137071807289527,-0.2507388108975608,-0.3761530409618733,-0.4540997909777735,-0.4604311537886516,-0.3405079297976951,0.024122028817657737,0.5602254229115511,0.8445220544360149,0.932931162634514,0.9572356609847067,0.9535410414430192,0.9231612149195535,0.8508710404283081,0.7181097191872566,0.5435097277520459,0.3848356689529653,0.25386084982987184,0.0625218617473223,-0.28121834744119417,-0.5734090601331557,-0.6952968578469453,-0.7513974292652403,-0.7927346330241719,-0.823406758967038,-0.8213897892397457,-0.7543236911782284,-0.5940367281141066,-0.39612773966389847,-0.2557902872261535,-0.1880773777988497,-0.17419720017112805,-0.19755341663815879,-0.1964350137997996,-0.10753471971577624,-0.023691288364038724,0.02392789577572642,0.04422874778273988,0.047127530741307724,0.0334939449111032,-0.004432543295309316,-0.08313481133625267,-0.21167720808132184,-0.34649839649265,-0.43467875646850707,-0.48827059241806114,-0.5255580894948052,-0.5264683790893941,-0.4726425116341179,-0.38880815649958733,-0.31710056931653147,-0.2802005054167006,-0.28193503680254284,-0.33201829194699056,-0.43710877053180125,-0.5402379653256292,-0.559735788749555,-0.5330642637025443,-0.5056237243998404,-0.49090669908125956,-0.48918563957944383,-0.5001140601134169,-0.528273297286507,-0.5694279464776059,-0.555787225668803,-0.355832577044856,-0.17169844387881228,-0.1072158298838376,-0.120615461659062,-0.18941614965426387,-0.3013550180149514,-0.41908494746594616,-0.4977071056130927,-0.5457136322053989,-0.5941961794332198,-0.6512929492790739,-0.6832818904535647,-0.6566329706051053,-0.6057445631613348,-0.5912933115976771,-0.6394017852629342,-0.7318700330594301,-0.8162989274300448,-0.8583610036016005,-0.8713507743344385,-0.8802188433170354,-0.8920497319333636,-0.9004940058633746,-0.902486069811734,-0.9011497301269401,-0.9016912572644764,-0.9107307877877845,-0.9302754862276226,-0.9418632510274786,-0.9071485020065403,-0.7811489959945902,-0.5031616256637831,-0.036333092796815146,0.43235256203548555,0.6930450066513497,0.7992655131769524,0.8373866986711137,0.8520002295986183,0.8665610980239237,0.8898800152037508,0.9163120525954709,0.938929333593881,0.9548759738316364,0.9622207039751832,0.957882725213677,0.9390389575607363,0.9023499300201088,0.8461600081338083,0.7747528758913044,0.7073941208638502,0.6719681172561682,0.6748296122591203,0.7026488696106789,0.7504560457082916,0.8268331951651396,0.9077573527552165,0.8334918213684452,0.5820510651664732,0.3838687890011706,0.2653965872275895,0.18333835846187538,0.10892839721331021,0.0237995123443708,-0.08943102308818636,-0.24929235050879273,-0.4412742878558966,-0.5715910775472007,-0.6237521384724197,-0.6525395601169379,-0.6754281240949341,-0.6886812564024154,-0.6908907159738873,-0.6856623123481658,-0.677796647367453,-0.6743075290481302,-0.6788835878379993,-0.68901189015333,-0.695502642417534,-0.6879114716569134,-0.6566056342840769,-0.6038776121068671,-0.5534936240563506,-0.5313648997423626,-0.5543579992048041,-0.6425611905456521,-0.8047618236377752,-0.9392162670296763,-0.9111914062265559,-0.8368271153205525,-0.8120364019700906,-0.8442773329424318,-0.9003389595480591,-0.9015998765776999,-0.8099798400361709,-0.6920282341236436,-0.608151451523877,-0.5738978417658629,-0.5771793044540273,-0.5959729402997817,-0.6143691916747326,-0.6330278157074183,-0.6586975951679496,-0.7048000757647095,-0.7940046787964717,-0.8737857459547785,-0.6766722205291692,-0.42575229879481596,-0.29405219441698843,-0.22886472623298365,-0.19534817812855595,-0.17704906282514168,-0.16360100741099096,-0.14272546803864183,-0.0884899478284406,0.05675968421138054,0.3714638349155181,0.7262217971752968,0.8951286500937978,0.9514693735088442,0.9706122818156996,0.9771914643383569,0.9792166601878384,0.979298765890536,0.9784053420621532,0.9766253477915084,0.9732830777296924,0.9675043413845427,0.9572519319403866,0.9385499178779968,0.9043662765734187,0.842509607039276,0.7298193037475592,0.5184272051716895,0.15271069659698036,-0.29195181732627057,-0.6129648547267944,-0.7592091468052558,-0.7995365686523196,-0.7987362081696199,-0.7907130066632221,-0.7904323832008312,-0.8008487707361671,-0.8185332042589353,-0.8376183826504696,-0.8541715228197236,-0.8653070697012016,-0.8712534724172956,-0.8730303411959667,-0.8717841533876063,-0.8685955087970986,-0.8618699023841878,-0.8496102947922566,-0.8290389339511699,-0.8002486767177984,-0.7649825495490535,-0.7271188976990214,-0.691538085234709,-0.6586637702504783,-0.6074580238984829,-0.3423141209336393,0.3601956734112967,0.5348294863832512,0.5386369624176043,0.47376195889127515,0.3575561045977336,0.25167990562033077,0.2213952269643238,0.2639404185519438,0.3142790994906361,0.36460992653704133,0.43684339754693957,0.5490387254643875,0.6873661822453115,0.7925595934200624,0.8286969996331792,0.8016246657141607,0.6885533575038717,0.3812973665348758,-0.18863309266922593,-0.5745684792501105,-0.6785223947908225,-0.665491769133141,-0.6095478585816264,-0.5424085117027689,-0.4781891380929561,-0.42575989883705984,-0.40089031222758714,-0.36902274425318105,-0.06219570731241632,-0.020623868858363318,-0.038194113391990726,-0.06639724356913165,-0.09897738643385338,-0.13621923419557055,-0.1770491680517167,-0.21528035795677067,-0.24159524323752943,-0.24663591717540737,-0.2290016899197465,-0.1753564356740165,-0.07915537147898573,-0.008024074553707515,0.009163331853462705,-0.02265620680079431,-0.09835952694089109,-0.20178057753161696,-0.31431112756065116,-0.4053238131724391,-0.4394949779246932,-0.37668466259917494,-0.1510154778586148,0.34676504494052185,0.8223966258969794,0.9602417667957905,0.981904260553195,0.9761761700268928,0.9543800313172183,0.9124284122228492,0.8483467745650147,0.7742394760154769,0.712328117116037,0.6762786098238258,0.6485704076861794,0.496432056694432,0.06077650965306922,-0.31491558916270257,-0.509976803289378,-0.5991854713922956,-0.6447026261570405,-0.6850874830434296,-0.7301860705261468,-0.7678240292874611,-0.789576411906664,-0.7945154785122217,-0.7909917146427007,-0.7877118473799839,-0.7937473024875996,-0.8125051467242587,-0.8400858753358873,-0.8654535951523286,-0.8771996222994466,-0.87364681199055,-0.861982841675378,-0.8491512443092235,-0.8350869864652315,-0.8145616781578356,-0.7857722143534568,-0.7511221695893437,-0.7127248074846622,-0.6730249256362973,-0.638241177045442,-0.6178017064464555,-0.6157384732653666,-0.6288518255075266,-0.6436421940819171,-0.6355751952894884,-0.5768289907621735,-0.45855869819886796,-0.32416445664743665,-0.22615455192393014,-0.17286029802195294,-0.15046818324349057,-0.1440890003424254,-0.0646753523215013,0.019130571065408948,0.06005372770397446,0.09172003913298621,0.1175942376631475,0.14015417388369572,0.16349319690806538,0.19344140516848937,0.24303775542072892,0.32887705036407106,0.4704412251969981,0.6566096995176108,0.8079410086943035,0.8886745312790817,0.9270834053148648,0.9482678864407557,0.961877952375881,0.9703921326176834,0.9749294440940619,0.9770595264233107,0.9785625063536576,0.9803315633014108,0.9814130438569341,0.9788554315475657,0.9656206426560952,0.9294635176090372,0.850375227298288,0.6765467365567875,0.15241616359671648,-0.5530691356352264,-0.6911943243160578,-0.7083338697079803,-0.7102911334779506,-0.7136727257518307,-0.7234442043177827,-0.7380155068157787,-0.7533596575941042,-0.7642798262896223,-0.7631000506816011,-0.7471501209774636,-0.7168663670612083,-0.6765557909550057,-0.6401356941167229,-0.6295257437580162,-0.6752726390514425,-0.7480782255432823,-0.5475155546146552,-0.311583546414552,-0.19617944056669412,-0.13917454911826968,-0.10952233136024811,-0.09204796939910453,-0.0823511201634528,-0.08267652031209033,-0.10074960987323062,-0.1481405549250765,-0.28275025729524067,-0.28288706342357633,-0.09852379851727104,-0.08649495123851537,-0.1287505205578513,-0.20535024955129122,-0.3141238762658624,-0.44092965113445004,-0.5621188605284057,-0.6557606112714458,-0.7143451515500199,-0.7394516377566598,-0.7340287056721758,-0.699562170384584,-0.6339299409850264,-0.5272519621674779,-0.37500102825400955,-0.19265882407202986,-0.012754826809218307,0.1446608414788874,0.2940709514058848,0.4623009464139105,0.6479511698863096,0.583926247017447,0.16693009977498507,-0.13834551376803167,-0.35024691112745165,-0.525440704891834,-0.6806025915179914,-0.8062212310878779,-0.8824793143471171,-0.9014908689412315,-0.8843939599510728,-0.859174571239067,-0.8372149338408575,-0.8208843970323088,-0.8103040502049541,-0.7999301208755601,-0.7738586303351742,-0.6962905339340532,-0.4682527397097432,0.06758561898605009,0.5733291821233697,0.7687586143660972,0.8290774592083731,0.8476833218077874,0.8605111052746919,0.8853544359708224,0.9202557800367013,0.9432734742910944,0.947042109570186,0.9437322279563335
