0.9403710994517626,0.9323464730872638,0.9044340767490924,0.8346349542977345,0.7123243923869925,0.561709153755394,0.41928578312012366,0.2901474851137025,0.14511458093376178,-0.010723390406350602,-0.008807355305316154,0.09381850685739158,0.2531659965311006,0.4691434325483614,0.6907469795764603,0.8235385489501046,0.8668696949371482,0.8458719934705992,0.7568319884654624,0.6243509680336518,0.4750767002429045,0.3092641344640071,0.11193383752939089,-0.12383850471325482,-0.38584403256663846,-0.6408429166574392,-0.843680839706179,-0.9527994130406778,-0.9659657532289162,-0.9294947113600595,-0.891357463265372,-0.8671513974647241,-0.8490038591353064,-0.8216837499961601,-0.7784261943691956,-0.7229743623044029,-0.6658463000460354,-0.625011691979393,-0.6232803935393592,-0.6807767884623565,-0.8026339280133611,-0.9350072606152953,-0.9558485258881035,-0.8572757589638625,-0.7388169606788585,-0.64612459374652,-0.5777768793596084,-0.5163411207245195,-0.44426395321746115,-0.33562209291483186,-0.1641609990255782,0.07489363428845841,0.33689963113363725,0.5229721698850578,0.5995788081500923,0.5734120252295569,0.46100465479321256,0.32756464148568837,0.23141097867504917,0.1766851038041317,0.15711292273342498,0.1659520108160231,0.205893907260339,0.28461121430764363,0.3988148040782856,0.5184439973841825,0.6073268132698244,0.6747945714439371,0.7442897287974832,0.817071600995793,0.842923235459115,0.8139390386859421,0.7702946321433944,0.7322386918592991,0.6978488782375133,0.6729784163252835,0.6661414360709793,0.688632798469081,0.7329411290334554,0.7696255515545702,0.7782797195177306,0.7639172874424413,0.7372528219534608,0.7095249029838522,0.6876728211703906,0.6671377694869364,0.6365053926327522,0.5849595755975993,0.49866267252492547,0.3792654935736706,0.2524353948399815,0.1458384293143733,0.06328501328427429,-0.0035040917201697858,-0.0665795571696896,-0.14011707769651022,-0.225714644394081,-0.2697399438505765,-0.24320162407234436,-0.19307260386620048,-0.15026204580628474,-0.12824923562803894,-0.12801953897397803,-0.14477268272771832,-0.1754898155326962,-0.2049957967687217,-0.19348089890440193,-0.14889978162633982,-0.11018945852840124,-0.0916739439053314,-0.09978264816976679,-0.14624009298843926,-0.2507322887331249,-0.4165805282817774,-0.5890476104558435,-0.6934984046395852,-0.7329338766324072,-0.7396012449050933,-0.7396359487816577,-0.7455837196259488,-0.758737774458905,-0.7777765585685211,-0.8011244015232976,-0.8296158505447728,-0.8588338152727804,-0.8837289244165254,-0.884819330088814,-0.8158233344243281,-0.5482145975555738,0.0734973811845798,0.623862619258511,0.8348561617231464,0.8985664536327498,0.9159342244580388,0.9212552923813291,0.9266035739252305,0.9327362756039332,0.9345839651730368,0.9331818701777174,0.9352792411833598,0.9336926083448789,0.9167003773656572,0.8889896050458724,0.8487512477527942,0.7824060794789908,0.6809395589532535,0.5589842508971676,0.4470157782431318,0.37506427701931755,0.3774381917480175,0.49924343036944296,0.6114896745763936,0.6405300130390778,0.6908929789093863,0.7704828955416887,0.8600852219956496,0.9081386614184114,0.8550012369937923,0.7006239892135009,0.49400029089594794,0.27939301565708835,0.08087504425278687,-0.0811188179097734,-0.20358313752569082,-0.29881147480228787,-0.3818186503054098,-0.46834508824452376,-0.5776544503283326,-0.7366645252801928,-0.9047505261444604,-0.803669361448501,-0.5624616842112727,-0.41093961380461874,-0.3319717640113306,-0.29431626575934433,-0.28126112830329864,-0.2826810422854116,-0.2951948037602299,-0.32364621897518603,-0.37783492833391286,-0.4562630131595287,-0.4994918071359419,-0.4834308557699835,-0.46831580323735905,-0.47700541907934746,-0.4993261282364919,-0.5097576764891786,-0.4918831349495535,-0.44413347595790825,-0.3678934586653023,-0.27506012243486483,-0.1823116174629394,-0.11181694341564745,-0.09167814441644108,-0.14030772144967266,-0.24282019630142393,-0.3623911248721433,-0.4590821477299215,-0.5342943465249692,-0.6069764835971471,-0.697569091424133,-0.812663822780687,-0.9258204432892527,-0.9829609607113446,-0.9615040040875381,-0.8922236388585185,-0.8102173334421618,-0.7343733301964472,-0.6714576561662454,-0.6202210760350393,-0.5746456781233261,-0.531598003769076,-0.49074433161442654,-0.4561931826183254,-0.4313312120982753,-0.41652904997858836,-0.4131158119870816,-0.42265407757592494,-0.4199159705883386,-0.26994013497506375,-0.012076139494329256,0.15719815287192693,0.3033468830725289,0.4747861821767623,0.670705309111368,0.8388283695394539,0.9351873995341095,0.973546349023381,0.9846202082340082,0.9862282452366274,0.98625088873415,0.9867704130236296,0.9871318310435808,0.9867261172507121,0.9859438886303226,0.9846365441484365,0.9820571329917801,0.9769860763050887,0.9672295139800996,0.9495793329081269,0.92060131996458,0.8792304300039554,0.8299682922930298,0.7831230039044275,0.7455594234626111,0.7116922876837893,0.6546986588796188,0.5498545790920462,0.3760340377379982,0.11867193564571653,-0.17785532360965922,-0.41552714380160805,-0.5708304208802887,-0.6777302631468826,-0.7584517054772151,-0.8162847428935318,-0.8496979837612482,-0.8616205720914036,-0.8538667430080167,-0.8309765121994466,-0.7979018283171248,-0.7617258102339032,-0.7377494558607208,-0.745953450635311,-0.7980973282298136,-0.8776542027405195,-0.8946900522267969,-0.7881680113885786,-0.6588649056382344,-0.577621091978168,-0.5488310291432414,-0.5671690437255498,-0.6282173792022887,-0.7240223492897633,-0.837693382063571,-0.9341381033081395,-0.9777627162340253,-0.9629531483706381,-0.9148616813722086,-0.8658416684404259,-0.831627168325751,-0.811295992019637,-0.807479289706362,-0.8273819503016105,-0.8661994187690061,-0.892359856620278,-0.8813361657733053,-0.8386430747979856,-0.7627048206597239,-0.6472055817771256,-0.48939815519805996,-0.2970319478454007,-0.10478487837973713,0.005509711306527832,0.009730499696280053,-0.039126188976980406,-0.08724847696923915,-0.08593186947289982,-0.020144229226061117,0.09236715553435666,0.20482417591058114,0.27367798556443956,0.2936989177865168,0.28889933047799987,0.2851306589429259,0.3046784477824543,0.3614893629309448,0.47542659111743973,0.6306198760234901,0.7455888146325149,0.8180594753265897,0.8913005040169941,0.9537556419285214,0.9762875506116956,0.9625892395545492,0.9437579390453681,0.9421234870092121,0.9612464152449542,0.9852249953784024,0.9744711592384475,0.8869323708056005,0.7352525228588176,0.5722525889387132,0.42082398225386924,0.2654529429728818,0.07281809248120417,-0.19489722441506188,-0.5387581146484186,-0.8312555130048728,-0.8638450959609832,-0.6870622049189382,-0.5176515710192572,-0.42837814613551883,-0.41402517788882603,-0.4725658110539962,-0.5312718341503619,-0.38098036413664943,-0.26883045264503,-0.2515725016716132,-0.29888985729930145,-0.39056241135384057,-0.48909221080169263,-0.5210252966627512,-0.454362143544388,-0.3700017533835879,-0.3705267532832978,-0.4765190253041108,-0.615911021050246,-0.7126880557671785,-0.7360767372671574,-0.6796439055949832,-0.513789705446403,-0.15138006410583046,0.4103044147848561,0.8087372179157004,0.9443276383640029,0.9515319739562613,0.898650324068747,0.8071796093806992,0.6354199547991568,0.17041465080702242,-0.5353060734393946,-0.8166480308640856,-0.8901030724918468,-0.9109572934916148,-0.9179220972316501,-0.922305768442022,-0.9234489110727673,-0.9175222048294976,-0.8942184683757762,-0.808855254927211,-0.565858888443348,-0.17504615625139405,0.15597172435360493,0.35351670780535965,0.4599909586914964,0.5165207681797725,0.5460690026158003,0.5566670327298336,0.5412403298460174,0.48687667271392154,0.38636067533609425,0.24385313858547597,0.07750451869036315,-0.09903840359402341,-0.2845654013063782,-0.4614020061149125,-0.5602684803737128,-0.5617670510319558,-0.5211603851426536,-0.4851364385556547,-0.49333690944668146,-0.6021504697402393,-0.5295085601702113,-0.20487020674926748,-0.07777658677471919,-0.001442716775134091,0.07891192306758443,0.1861892773099692,0.3344567769288338,0.5295987350587626,0.7443114340925022,0.8416692633833696,0.7072543181914993,0.49784444934147976,0.3335008757749562,0.2166766869440693,0.11659918071284402,0.006799975657862009,-0.13366575029678598,-0.2941379319060706,-0.4454948040148936,-0.5581706578959197,-0.6173602922431235,-0.6281337067515289,-0.5989172039178629,-0.5388092344849905,-0.4670069405830025,-0.40866406895754676,-0.3736491835605306,-0.3746097529851106,-0.4156292002033321,-0.48414877793732686,-0.5427676986707528,-0.5539787607800153,-0.5119478817723551,-0.4332916746375853,-0.33482830622061005,-0.21648462820814401,-0.06306482052505524,0.1891564848313888,0.6540849407070257,0.8916734243429294,0.7108510103392818,0.5877048327034041,0.5473574648312295,0.5665738365620178,0.6129026125684557,0.6396438826581169,0.5991685504811499,0.4803058852599191,0.35564088426538115,0.30109803155065185,0.3240796581333507,0.40098995480666483,0.5023835072717008,0.585358759722475,0.6223232996247833,0.6020952854024487,0.5078155748040971,0.31184816822710615,0.03476335124747745,-0.23026695310590353,-0.4363084764362783,-0.592086067992789,-0.7062900923357355,-0.7761782058005979,-0.7966628282462136,-0.7726713815358558,-0.7305362488644409,-0.7137000024813046,-0.7486347959397104,-0.7976126472988107,-0.8139121936098427,-0.7966052551322358,-0.7550958915460287,-0.6276646163926647,-0.0783865223190696,0.726398944583534,0.908122331727106,0.92659066280939,0.911199134332403,0.8888647026484103,0.8615173591451608,0.8227426686123674,0.7737578001276025,0.7305953527374968,0.7108783791118315,0.7096735489352433,0.6962352741548132,0.6459914126301605,0.5625535289916292,0.4722013643429816,0.39165836816574745,0.3274518398749339,0.2804935900863417,0.2573740363777636,0.23726775846656792,0.19876090946245134,0.16331593622891097,0.13604604959221345,0.10735933136747704,0.07679278920784818,0.037611748827135506,-0.014358618918779669,-0.07914560478180287,-0.1568342282311685,-0.23143778848197066,-0.2769180281217791,-0.27160974165292645,-0.2244737393922498,-0.14260247827654765,-0.04868193358717799,0.011083479170320744,0.037838539871343814,0.058779057074983584,0.09812071917485034,0.16599332061795066,0.25604311881028097,0.35043482104626,0.4147738282891136,0.3822105723649825,0.10984064377796546,-0.3693958567414912,-0.7094866142242399,-0.8443614534432675,-0.8824343874017193,-0.8959397426349192,-0.9122662635080375,-0.9327753961955118,-0.9483773224679798,-0.955991335345749,-0.9591472323422677,-0.961807751069512,-0.9627166291327577,-0.9471065276504701,-0.8897316535179104,-0.7795847623240725,-0.6358433548792898,-0.47975454654938066,-0.32025052972819296,-0.15170530606997093,0.04784647073438948,0.3310820008672072,0.7569063044225665,0.8400801312156673,0.6251943449425083,0.5058044964992665,0.4670262717070418,0.48519361027971636,0.548947241154148,0.6465255803230214,0.7604016967629117,0.8665355712480057,0.9402002026273166,0.9664891132111123,0.9479735254564116,0.9025838621358306,0.851251275428906,0.8124505172794783,0.7982702782345354,0.8073668825240823,0.830225603543781,0.8609375541168338,0.9040145605730764,0.9502706544007845,0.8761188619970915,0.5733960077749738,0.2853061876383415,0.08013306265022122,-0.10657570899602145,-0.33346561420380827,-0.6004269316688398,-0.8003009356048274,-0.8777345598793596,-0.8964854594384444,-0.90073178545352,-0.9048139847421118,-0.9121116071395986,-0.9207118907357859,-0.9265204594397772,-0.9274918265038345,-0.9239942918109574,-0.9150609299871177,-0.8977241887350011,-0.8698267270595071,-0.836249193446355,-0.8136139255453811,-0.8141395142900703,-0.818982856626691,-0.7838957550994718,-0.7163179093370383,-0.6644856123940125,-0.6487521545945778,-0.6643774771855969,-0.7007208576065322,-0.7450868338210346,-0.7765173899876424,-0.7643202433946039,-0.6584629578416777,-0.41950093391992815,-0.09597567669357332,0.20967933522600044,0.45388529588124704,0.6357233299127479,0.760548520255364,0.8165591305174921,0.73487071346946,0.45571963564935863,0.08144258090967689,-0.23498779453344143,-0.4684997327324235,-0.6356715733920215,-0.7421148925758893,-0.78959579970785,-0.784918865873489,-0.7378346764511962,-0.6582976933709543,-0.5540040320790129,-0.4136664633457044,-0.16490927492749988,0.2362083257626102,0.32841239849470477,0.267883594184785,0.19405612010885315,0.1486235779835656,0.16792728011561162,0.28288388682722815,0.44955905491101306,0.5749083089871126,0.6562570598516008,0.7163422126130813,0.7563774898233969,0.7686324891461794,0.7491119592800992,0.7065610130244666,0.6715219409270157,0.688184855897826,0.7612056350340562,0.8342796894254725,0.8677899165922666,0.8763535343536887,0.8749434328852507,0.871012810911903,0.8688011811351075,0.8728208093850465,0.8832714556959859,0.8993782808440366,0.9189914102907368,0.9382021694436248,0.951112893735528,0.9499748466741113,0.9253931225841525,0.8798185209308989,0.8363286989600599,0.8209034023081875,0.8420056072172405,0.8867729963698874,0.9203991176611749,0.8929197918599676,0.7700561428206121,0.5353476233976281,0.1401492598570324,-0.36811379195895566,-0.707651684330811,-0.8296881057180313,-0.8569538916275917,-0.8494928259896083,-0.833763045437565,-0.8195655473087575,-0.8087193270833759,-0.8021929160453136,-0.8018474327023564,-0.8061458038608201,-0.8092544333838079,-0.8008749538476608,-0.7715352787885323,-0.7361013527301651,-0.7286439724358531,-0.7710486902045592,-0.8093002664201719,-0.6995826760531947,-0.5499200121714705,-0.4786061162267284,-0.48117961222161215,-0.5332478115821007,-0.6135487783635025,-0.7022412929043976,-0.7830700394279676,-0.8426023030196756,-0.8766958939471965,-0.880492030503769,-0.8523369668903733,-0.8062357665649722,-0.7776553461923983,-0.7872016614942401,-0.8168107838871589,-0.8221864121014038,-0.7630881967923788,-0.6496085355796183,-0.5353456817844731,-0.4574864674149765,-0.4251082926854914,-0.43779398770146555,-0.4773611941957516,-0.5009813468701448,-0.44545864113034234,-0.32035128954234837,-0.184083666031607,-0.05350624534126746,0.06921800433217888,0.17554382377772848,0.26139487722453253,0.3301976135653896,0.3843919688307934,0.42273288751483795,0.4469390020195218,0.45922152949726047,0.4783388108534229,0.5234353769055897,0.6004023235831989,0.688695745708125,0.7672346446102991,0.8196805793044347,0.8421625561339896,0.833888549607094,0.8068469987175382,0.7723248585391395,0.7335098424593823,0.6937312751526354,0.6636428869547021,0.6572640869574562,0.6862331984196619,0.7598921370581095,0.8634574076637902,0.9263968430014295,0.9214454784586196,0.902888162502793,0.8991192543928658,0.9077510153977524,0.9211055003981009,0.9333167196859984,0.9369514144810166,0.9225868109892751,0.8652067165280821,0.6820383894528611,0.3068734507992009,-0.0443499929689687,-0.25184241040902333,-0.3737469656045883,-0.47046640892207436,-0.5790848740091197,-0.7152776809009638,-0.859399948696371,-0.9530860620997044,-0.97420868915251,-0.9520641429233734,-0.9016086788182112,-0.783017739972645,-0.44234990335751156,0.06944352731085424,0.22249607788017006,0.085878976935196,-0.12491464364053845,-0.28823509589512825,-0.3894440847901979,-0.4531399391544573,-0.5002424596286883,-0.5499431774098774,-0.6363297658386652,-0.797521154253508,-0.8193538629675455,-0.479015935429019,-0.23879742585697328,-0.10683754896281954,-0.02398909240130038,0.043930000448779635,0.1206642380477399,0.21547852614286586,0.3086987917373903,0.33231630844812826,0.21702167641882944,-0.04556828644001994,-0.3128945147818524,-0.42021799696343276,-0.3921558162808443,-0.3160541256791188,-0.23014181033882072,-0.14375905128063476,-0.06428238257493095,0.006192334052532695,0.06636178270819888,0.11151609315533674,0.17429529828790502,0.30638013634332084,0.485859221975609,0.5864640284565659,0.5691311051861443,0.45310933928268626,0.34908568979490123,0.3183860076081724,0.33272201118160105,0.3571217871312151,0.371323172115277,0.36948366468506694,0.35346639075029224,0.3176677578734823,0.24564938822957083,0.12138020502690054,-0.04613051064586481,-0.19850281472203296,-0.2923478892205648,-0.3323396117147013,-0.335550510828182,-0.3117687452116156,-0.2516823734522808,-0.1332892888821851,0.006622721242022743,0.10308577148932624,0.16141334639664875,0.21205770045739622,0.2696753988818303,0.3314665810348133,0.3858457402398801,0.43054337269137194,0.4417688241126107,0.35668405465684155,0.2108447301069722,0.08672223721616588,-0.023736232400760685,-0.15652279403782218,-0.35716848264540285,-0.5603897448156608,-0.5804634316999935,-0.5438596448382408,-0.5398809780380074,-0.5815420890258995,-0.6713424556650897,-0.7982605003155008,-0.90959603207216,-0.9515187722193655,-0.9432408303040906,-0.9279357701286645,-0.9210036754968136,-0.922940707548538,-0.932907196398169,-0.9473619208089848,-0.9614835578787818,-0.9707358289480702,-0.9668367267413116,-0.9225936139402836,-0.7319092393169496,-0.08612229613191581,0.5863558221473191,0.8184591347875203,0.8974886332474278,0.9308065589699891,0.9472809172573508,0.9568300266361784,0.9628153135720122,0.9668410517228295,0.9684498200643705,0.96636053132587,0.9599157465980055,0.9504592203964173,0.9404161551903467,0.9301625760583847,0.9205061992051555,0.9164516647588691,0.9207954966772438,0.9262405008352034,0.90756961851854,0.8045447814083431,0.4594870211159208,-0.20081813669556228,-0.6483362605070958,-0.8241235451170067,-0.8987414325432718,-0.9337358455528685,-0.9444828343424556,-0.9340957267681007,-0.9080345073651278,-0.8701822723512067,-0.8047656851181656,-0.6558898734591403,-0.2396554750060887,0.48760038954357166,0.8253809337158625,0.903380493192313,0.911850008952404,0.8832969636852798,0.7925933210618296,0.508147476858614,-0.18076687532117183,-0.6883242816921945,-0.844870673352563,-0.8877535067870697,-0.8912900839353682,-0.8743428342115448,-0.8464761263822264,-0.8198938504601702,-0.8026530975766791,-0.795713049999891,-0.7943675094304161,-0.7908225644178859,-0.7763851009393051,-0.7428986390828022,-0.6837487886101287,-0.5922724398127889,-0.47235779134797035,-0.3377757810642374,-0.19879687855319758,-0.0750849346668354,-0.019080690481610922,-0.05712779439581015,-0.15386337993352062,-0.27263666270498343,-0.3979156442134204,-0.5219626953595606,-0.6353700175174716,-0.730815486474686,-0.8059352265403023,-0.8630696580693387,-0.9038320051532561,-0.9260497737751252,-0.9293625203675058,-0.9180714792876191,-0.9050289607210323,-0.9014572586953926,-0.9017682103733315,-0.9051381849991506,-0.9064288574266592,-0.853620313970158,-0.7340866205759046,-0.6332958259257189,-0.5999601784956834,-0.6449002975150686,-0.7814371179169257,-0.9385186633948182,-0.8002146737740076,-0.5587522354203878,-0.4133861748458544,-0.33052342120448835,-0.27982766008891397,-0.24467984888888095,-0.2126266607675211,-0.16710521581709073,-0.07856182942742855,0.10203596259789646,0.4203729585296974,0.713946303537473,0.8351380901187382,0.877667496988935,0.8999705769318866,0.9164271668290195,0.9320023548256053,0.9465656865027396,0.955932081290687,0.956821475418492,0.9498679345142856,0.93688489492799,0.9207365460807079,0.9038249029261538,0.8907129389771753,0.8870495542640016,0.8979278156483307,0.9227836004291313,0.95127131096355,0.9623303162585478,0.9406910271594926,0.8975887041757433,0.8575674524048463,0.8250125145242112,0.766655507472677,0.62298996385188,0.4083383667953833,0.19226304428814214,-0.015245598597836507,-0.2022106102818728,-0.3059833986565961,-0.3296445552993161,-0.31453939621924043,-0.23899614460201035,0.03232333481199734,0.5179882251868049,0.8084508393892339,0.9163023056316448,0.9589738711182635,0.9735094862801666,0.969444187824447,0.949957890728424,0.9100217285245432,0.8197377259646251,0.5541686831691065,-0.09606849535116786,-0.6258653676028871,-0.8054216766165921,-0.8425203347864514,-0.8292160072118899,-0.8161609190538953,-0.8329322674596069,-0.8803674836120909,-0.9295262202103839,-0.9492116282155703,-0.942692281931012,-0.9367324316363794,-0.9436522666645932,-0.9554513592599907,-0.9578871018066842,-0.9420492152767297,-0.9037587472009664,-0.8454737808113372,-0.7827539593511592,-0.731261843208584,-0.696049071549633,-0.6680928119192973,-0.6294909316444915,-0.548067332391921,-0.31297067571752585,0.294073186686484,0.7054039617781881,0.7742387272472038,0.746954698593447,0.6656253231429407,0.5107256879020605,0.252198253403724,-0.06596304873460047,-0.3138230935223827,-0.4479707620113523,-0.5164765717747832,-0.566503424678269,-0.617659229156194,-0.6591179022620686,-0.6645400615568189,-0.6038049764689918,-0.4715312707322148,-0.3317079260995675,-0.2453453701477894,-0.20422285306555124,-0.1666258021005066,-0.09849839530917825,-0.0024016744008236246,0.08666500280381811,0.15187523257214042,0.2102770216914902,0.27068139706653316,0.3430255705243666,0.42215838508236425,0.49094691619712777,0.5348123973816642,0.5594032130265127,0.5918005127927903,0.6476507136776158,0.7023472656072433,0.6500295937336515,0.48849536659293125,0.36803863836546347,0.32236789522154147,0.3218048283802257,0.33877941243168846,0.34345164147849894,0.30566070817460855,0.2238829636448902,0.12461486294112274,0.038854338968266476,-0.026717674447649838,-0.08422641788282774,-0.14629398016556774,-0.21531427619683274,-0.2811104940167429,-0.34783804346456526,-0.43150639656769746,-0.544420372170372,-0.6754800730695099,-0.778675825346563,-0.8235273167348333,-0.811295024586437,-0.7837775651365159,-0.7215122245344885,-0.5615078331019863,-0.42943066101922656,-0.37529652143508696,-0.36978176786691624,-0.3868721945750281,-0.40652144294060205,-0.40869940907106683,-0.3823453495960656,-0.35033446276181396,-0.36197289676302563,-0.42988231790209785,-0.49494084532816635,-0.5258000830741363,-0.5327975928636927,-0.5339488379855886,-0.5464590627937688,-0.5595322557254875,-0.5460185027820473,-0.5096433052501468,-0.48246368684193713,-0.4815244360292737,-0.49576001416793286,-0.4940955538425612,-0.4557181269616346,-0.3818389510709029,-0.2829979894719101,-0.17279015245193,-0.04347482916005367,0.12907565697570142,0.3490495195456275,0.5695972297882562,0.7325629291723722,0.8333999384291394,0.8946778049754808,0.9334176664842069,0.9578845878737622,0.9710532159355044,0.9700363511421832,0.944213732260466,0.8783152556699199,0.7645422081680917,0.6239881026159613,0.4878561493466399,0.36741095961634235,0.26804072299139287,0.1935014920018992,0.14363481355175556,0.11712730363080692,0.10765448782774258,0.10601851062467853,0.10192334954568703,0.08179990358841015,-0.011966999364761999,-0.26398884362056,-0.2749485790712913,-0.2960884305330128,-0.3388802627289984,-0.39792024552426336,-0.47290595102184724,-0.5612522593898569,-0.6513079986386824,-0.7236516106439979,-0.7662567839504334,-0.7807672626213875,-0.7777577391609857,-0.7677320905201052,-0.7583970671801631,-0.7586782694854908,-0.7738279456974073,-0.8005318589713099,-0.8281241962696899,-0.8505043241946695,-0.8679035910033781,-0.857666075490188,-0.7663958865589996,-0.608944363165225,-0.4703809423401394,-0.3771770864174286,-0.3112890982327378,-0.24357821404963056,-0.15059821914228927,-0.021327420215338528,0.14327570990879218,0.3390585404057202,0.5361970703830033,0.6659319612194536,0.6784297533551701,0.5887498355078529,0.48245323286938485,0.4406025269610859,0.4773709482179902,0.541820753601036,0.5939690239881382,0.6268409450995647,0.6354146191450585,0.6050019337950691,0.49606670819560433,0.23610336918947863,-0.17008431968585663,-0.5008659501118358,-0.6664569942572193,-0.7355258468936737,-0.7564235839884187,-0.7503975318111392,-0.7293610251765165,-0.6911400228748097,-0.6222570211644772,-0.5095502709472779,-0.3562262497221468,-0.2206349979648031,-0.1870593958811671,-0.2834435586717062,-0.4681961133717746,-0.6581878204677513,-0.7957138369106852,-0.8765162270986762,-0.924756972395448,-0.9559562632228047,-0.9731832837729556,-0.9710380856064958,-0.9239516814850248,-0.6077388931063235,0.7026834285780115,0.9582714252866332,0.9879870067104833,0.9946926580628394,0.9969281241833469,0.9976796152026701,0.9973719679956452,0.9957020455889977,0.9920351176461726,0.9856154933982854,0.9756337487436759,0.9602746871334537,0.9373754585385703,0.9093202295556311,0.8870318362934165,0.871649781191467,0.8492515163897082,0.8035543841689967,0.7268454396968873,0.6064077234793026,0.43268109452152287,0.17758795601203473,-0.18039574171811903,-0.5377757638242803,-0.7109138447591158,-0.7613759466052968,-0.7813107909462736,-0.7960002762330912,-0.8021367355804402,-0.7993069350246025,-0.796952921109938,-0.8090627813872737,-0.845680770999842,-0.904910965135928,-0.9613365796474707,-0.9715843808061296,-0.919896690525026,-0.8354862184390407,-0.7445636215997128,-0.6447153117677568,-0.5117865099899032,-0.31728447494892975,-0.06971525822031781,0.14438149003479653,0.22588015918424556,0.12261675826051796,-0.15743827695082915,-0.4717292586113177,-0.6809061577667496,-0.7978901669794226,-0.8605645585893008,-0.8941264941339956,-0.9128279159418732,-0.9230618835975787,-0.9263543080595519,-0.9246249880205675,-0.9181839009129281,-0.9048067235486928,-0.8827374687001046,-0.8571897724276932,-0.8324610777910545,-0.809899527310178,-0.7758772496034602,-0.6633874398977254,-0.30400083656317395,0.23205761468351957,0.6093155448477043,0.8128902633295837,0.9124832593911635,0.9508820328746976,0.9574325963048768,0.9518156540277699,0.9432208849534381,0.9348699096168724,0.928706551449166,0.9287648826376391,0.9380871257614506,0.9501169114494435,0.9331060890826331,0.8374935304364747,0.6575466999747056,0.43644694710091125,0.1985347103477096,-0.07032955476684606,-0.3706705897443854,-0.5756545274043586,-0.6322719635659915,-0.6512772097199483,-0.6643733322409512,-0.5974433522266839,-0.48945116604254885,-0.4170918516922626,-0.3845864985297435,-0.3830693070540631,-0.39960727250913836,-0.41400823248329527,-0.4098924269817801,-0.3783920575449285,-0.32246269829436225,-0.25109367779649805,-0.18786174466932232,-0.14284012767834867,-0.12145453339330657,-0.12720438945929785,-0.16761373824591447,-0.24383707742211694,-0.3400337867039495,-0.437294993524017,-0.5263566071736042,-0.6033789800094604,-0.6620815142739838,-0.6949435595809732,-0.705831401431207,-0.711356919664644,-0.7265756423649525,-0.755132748624029,-0.8009374824599632,-0.8592313011784779,-0.9046599760589515,-0.8935630368961968,-0.8331664666547692,-0.7748367067756964,-0.7384037305237847,-0.717603221380522,-0.699311010349647,-0.6678402177158954,-0.6070002049419853,-0.5130339808432528,-0.40014650750600733,-0.29710073939116904,-0.2228231210144998,-0.181942377481302,-0.17725872150378805,-0.2072783535677896,-0.2692036652352108,-0.36330032084108116,-0.49394799845855736,-0.6585178839341338,-0.8108703839459435,-0.8762776583097337,-0.8701697981808023,-0.8328013503734575,-0.7390478556187083,-0.5594382078459407,-0.32438600568023684,-0.09682666029620009,0.09552152872159118,0.26369912903286713,0.43409105700142925,0.5599537035775128,0.4883937523783419,0.35448383865091865,0.2711952620637235,0.2301514700123759,0.2177729201889529,0.22920457938858388,0.26709376595581047,0.3417394461469577,0.47188601102604183,0.6783313447630429,0.9116390371458074,0.9563849195389899,0.8445248751091764,0.7559269615979927,0.7284855670851133,0.7517471903168494,0.8118135473818892,0.8989580575876401,0.9739675327829993,0.9010837294433459,0.6541899109206927,0.40838052618658705,0.21187550012874112,0.03396747983874601,-0.14176299808008472,-0.3012968486817771,-0.42450571003685206,-0.5101627984052876,-0.5760390337674344,-0.6552730125390763,-0.7802318595826695,-0.8747532810436904,-0.8036791325206948,-0.7114760250109617,-0.6590422357197177,-0.5948595813410045,-0.34643166865955743,0.5681439303214251,0.8799644246353193,0.9025119437668694,0.904992987383812,0.9086237755463711,0.9135071706677392,0.9092289154857349,0.863069635599755,0.7081342686364734,0.4456657461766551,0.1840844264577903,-0.03932343573709163,-0.24521265439650972,-0.44147870426737246,-0.6207535098984409,-0.7647659071859574,-0.8605626736331847,-0.9111332752286951,-0.9344651561959245,-0.9363243827159965,-0.9090509116583233,-0.8553766642097126,-0.7913296159306273,-0.7343261646792574,-0.6986364503440581,-0.693102447662522,-0.7182667284924391,-0.7650293856826288,-0.8205230074521885,-0.8735428532881877,-0.9172020842223563,-0.9465445676628168,-0.9552817227661462,-0.9454025581549733,-0.9284641068344994,-0.9175075702655482,-0.9123892509805599,-0.9007094854941249,-0.8787594964724746,-0.8537390560435577,-0.826871434228649,-0.7923494368712236,-0.7404563180933657,-0.6579220345818453,-0.5239070355452916,-0.3126429175013072,0.024160905589975294,0.45721509797416854,0.7630893535191966,0.883382615541612,0.9228562733007919,0.935207367271213,0.9373782223940392,0.9342849539200161,0.9288862113431486,0.9255414775341103,0.9288422996487072,0.9422055603456025,0.9575618134687408,0.959929681716828,0.9497405552271356,0.9381248086336128,0.9296794731805127,0.9219832772170368,0.9086599479270285,0.8813380780099168,0.8287459292103297,0.7299092941939165,0.5724398872054031,0.37725188319166336,0.19384133451017904,0.05141545764381897,-0.056743087801006536,-0.1578338354205873,-0.24648657156719514,-0.25584247123812465,-0.22316635792665274,-0.22859843731786025,-0.2922430976229511,-0.4009799198037118,-0.507013380775509,-0.5696311106120561,-0.587065486197824,-0.5889853021448747,-0.597512677573966,-0.6221086636731106,-0.6562890765107379,-0.6845950248617878,-0.6920554202528614,-0.6791167484067717,-0.6593969234709723,-0.6419753963091632,-0.6228557423372083,-0.5872368137133324,-0.5037657551146837,-0.31706147645782723,-0.01755596602007206,0.27354935069028946,0.46923293908181307,0.5738723784343861,0.5998594749054538,0.5542597087440551,0.4332332010230529,0.2339373256239794,-0.002518407910851761,-0.18562557814099698,-0.3056812956163912,-0.4024109529952,-0.5036109031336593,-0.6327812266792744,-0.7751706566804657,-0.8255486993599868,-0.7698827697172865,-0.7009979843151071,-0.6481841101110964,-0.6089138410050046,-0.5779147558078401,-0.5506359636337609,-0.5335025059856512,-0.5188952568872565,-0.48997632438636796,-0.42253289767059765,-0.3063260450184158,-0.1698370733987793,-0.056282042682247346,0.028449231552977412,0.10004722563355466,0.1679546984673036,0.23962900654619057,0.32580182508377753,0.432671023727018,0.5666387156019929,0.6979798731609486,0.7914414941194424,0.8424882197693134,0.8620146213890925,0.8607060174431945,0.8377310449664849,0.7938408086392668,0.7323899653134697,0.655112733117444,0.5693564635340372,0.450931194068332,0.2764178467117668,0.11338271105676971,0.014384992945062808,-0.014535001275204903,0.02798729667503869,0.15348413860121798,0.36217130466952224,0.6064249017545101,0.792165414108698,0.8887391875479446,0.928109155911102,0.9379289105403914,0.9253507799013198,0.8788053973905852,0.7636117649389762,0.4947539572391892,-0.0618815765338496,-0.527164088268422,-0.6186734493039086,-0.5893624974908581,-0.49888752708117917,-0.3319180867330452,-0.08495501909435679,0.1736891997945549,0.3801740680690739,0.5341019735397221,0.6564712968999176,0.7553127998423068,0.8279082340131244,0.8708271476423228,0.8824397767999108,0.8668606964080063,0.8322595422526967,0.7848288224792703,0.7140120102292065,0.5705694254013285,0.24784984201878407,-0.216580351518779,-0.527920613106448,-0.6410259683330349,-0.656461788731298,-0.6534272243342935,-0.6800042516549701,-0.7457942083025807,-0.8248429808127636,-0.8848740603735452,-0.9201508086729929,-0.9383539666765708,-0.9475319438476386,-0.9532623250611798,-0.9588912523781731,-0.9651606150769055,-0.9701584176915191,-0.9716737545153759,-0.9678937710514022,-0.9563468780536168,-0.9330257806428406,-0.8932858606903437,-0.8325879658533962,-0.7563211048840944,-0.68521511836123,-0.6356317511043329,-0.5601617997509275,-0.35570079703179786,-0.200359398137425,-0.16313541816842828,-0.19192199976677493,-0.26275350351259474,-0.3812351438108185,-0.5142364145296663,-0.5586685472439492,-0.5142326254473638,-0.4740187780564222,-0.47017116607675813,-0.5028007763138531,-0.5674838598587023,-0.6630233878602476,-0.7776401593494244,-0.8688116199870455,-0.8997536984543829,-0.8866232951974363,-0.8425808426274868,-0.7276764325881917,-0.4280818075853801,0.06855205264551975,0.44758290843404613,0.6330770668651065,0.7174339093859798,0.7327424898079817,0.6489855375213419,0.4841873395198791,0.37396948381088685,0.38459780201114074,0.5060339597535197,0.6926604573625359,0.8541056364227755,0.9398313657931262,0.9734528672515645,0.9858457078540244,0.9909069341824945,0.9936202752717973,0.9954453238393792,0.9962842769442581,0.9954361243226195,0.9925249741098611,0.9874165454116804,0.9759327753052961,0.9348454907974056,0.7537982667191157,0.003920606306213792,-0.7404173280014924,-0.9181054681376666,-0.9609590772350383,-0.9739929448220261,-0.9757854720529653,-0.969526908899136,-0.9532478623782105,-0.923166027132484,-0.8801450289027625,-0.8357024090387758,-0.803667569264084,-0.7893392471487785,-0.7950213802820599,-0.824041954632133,-0.8680988970235876,-0.8952869923417989,-0.8787951064671052,-0.8396564191707877,-0.8143309080145588,-0.8180099654837508,-0.8474836897726462,-0.8874311457743428,-0.9148596723943648,-0.9169145949920893,-0.8946762717785275,-0.8491468535445484,-0.7767682772331677,-0.6873536761218824,-0.6030150190672747,-0.5513637459200618,-0.5542195814603164,-0.6242417342472183,-0.7573744663386442,-0.9028524336495235,-0.9409748348686849,-0.8316774215955959,-0.6895369496296703,-0.5936886425891994,-0.5597583564066547,-0.5925831697378595,-0.7202746435139024,-0.9071608869574809,-0.6618925618447633,-0.43384466661487264,-0.3967447914917133,-0.43435173882283984,-0.2810129847617574,-0.13141557636313558,-0.06915281364060513,-0.048377448777867225,-0.04809786120088692,-0.059945213563237294,-0.04367463815306753,0.05464235465706828,0.14713997501386755,0.2566529445959303,0.4066601515837732,0.5977482914120048,0.7244905110025363,0.6761584096434992,0.5746967049736807,0.5003597807167472,0.4545780913495153,0.427868855719705,0.40562191527198793,0.36471745322933874,0.2907898553788256,0.21299528720316907,0.16152818682107736,0.1413070800301191,0.13998745916556896,0.1414793388846425,0.13797205916873923,0.12502777332923415,0.1058563430628731,0.08399458990674055,0.055839251997202126,0.011767088968266358,-0.06860283270172539,-0.24720461883666547,-0.690319872985748,-0.6640662496450571,-0.41600371237203887,-0.30324934747454446,-0.24211185281190317,-0.204265748386418,-0.18149176429505537,-0.16985658567423498,-0.15936542947698762,-0.12778044922991655,-0.05038795208767298,0.055668185151842395,0.11854190666148504,0.10912149206945096,0.06066405293774062,0.003680656673070759,-0.05205705332921954,-0.11648928618465998,-0.21187313914945372,-0.3072336157671067,-0.18169693733760933,-0.060572112130022795,0.0029246883022107538,0.03309563992314897,0.045353639822196236,0.06601290201613713,0.1515550802010349,0.3491287107054369,0.517232712882486,0.5646607138962865,0.5575561122735008,0.5346684970274677,0.5156576285511831,0.5152129900834087,0.5507593228501092,0.6444808500448799,0.8006798985473473,0.9132762566135046,0.8784790700446862,0.818970102246229,0.797731042274605,0.8091920870912802,0.8421310060893341,0.8903357598934878,0.9291370288436804,0.9298517410706704,0.9057342387877604,0.8815535170148466,0.8613712204002976,0.8396825015662855,0.8075257483698067,0.7582445651990507,0.6918963356318163,0.6140596244392716,0.5419884429634135,0.48168806149585996,0.4307913831233716,0.3796100408853196,0.3204379797894484,0.25717227280726307,0.1994452178829238,0.15262487121416915,0.11778073933350122,0.08778814038269685,0.04496781426033838,-0.04057845677242657,-0.169165515856732,-0.29443624944430846,-0.4061612543012355,-0.5076298634706149,-0.6074583628060896,-0.7066684107849215,-0.7936295890761117,-0.8492862841397115,-0.871835929961403,-0.8777702462957419,-0.8813449139208842,-0.892127444092432,-0.9135166654319647,-0.9410935013865855,-0.9621161235720913,-0.9710577437046375,-0.9693534608829477,-0.9574408528054991,-0.9352182580986385,-0.907460274295263,-0.882875308084319,-0.8689967782079747,-0.8645823220282016,-0.8604735381968167,-0.8451100166661321,-0.7965466740160434,-0.6332960300064109,-0.055162622498370395,0.6707457354043731,0.8841583164423663,0.9327656301194159,0.9374423727972483,0.9159098897892416,0.8653232421168555,0.7897436618936968,0.7182533165671906,0.6760257301327467,0.6500409030694598,0.5976325812488684,0.42838197910614956,-0.016559766109028852,-0.4929236618106899,-0.7157965827399889,-0.8044092573871572,-0.8403385313998047,-0.8518115597192593,-0.8461869470921153,-0.8230066470974324,-0.7877455748520918,-0.7538053941115661,-0.7284975056355675,-0.7017545620015689,-0.6356853178549541,-0.46082487841632724,-0.08498735353024585,0.4210758022011694,0.7387404436040439,0.8746606106916568,0.8962137816935735,0.8129946460639464,0.7139852844928056,0.6830188265217184,0.7232784304677313,0.8024794968375498,0.8766902107817958,0.9120822081562917,0.9075600701362713,0.8826330462721492,0.8567489290057891,0.842915869278232,0.8459457403267611,0.8600815004553308,0.8714829361452737,0.8702773487539126,0.851404205987545,0.8111816029340008,0.7529428252195648,0.679196944596593,0.583156376706915,0.44581241440023384,0.23535606342960236,-0.06411043065930443,-0.37783834426774,-0.5946989377196291,-0.7008627105163934,-0.7137170328907063,-0.5678875857063272,0.06278813506472938,0.696686521641585,0.8033785397131089,0.7176211542497496,0.5391656264190413,0.35927081735565597,0.23107245613067467,0.15866058962086008,0.1363667666075972,0.16122410392065362,0.24499681810878135,0.4199854122351084,0.7056923762501506,0.8958510857505315,0.8703166486924928,0.8243909440470576,0.813217058007768,0.8172113010875616,0.806950247387817,0.7494648300175009,0.5421496096944213,-0.10325971731187089,-0.7211898364831987,-0.8969160089611541,-0.9452450941364363,-0.9624400604302235,-0.9702056157844012,-0.9752266887706096,-0.979512268217719,-0.9824031149863668,-0.9825750311045125,-0.9795190896935929,-0.9738955440422831,-0.9674948476974917,-0.9608900482493712,-0.9544419869836782,-0.9476979990875691,-0.9410344512141935,-0.9370994611517703,-0.9425282565191145,-0.9594652401971433,-0.9697729933026034,-0.9507952973919643,-0.9091233241063138,-0.8655982715928707,-0.8288174103639455,-0.7906288091913279,-0.7097300909458666,-0.47454529031520826,-0.20027910627634057,-0.09866395912031065,-0.08666566425631793,-0.10451774984797814,-0.13562340052463467,-0.17959628175449893,-0.2040731508544359,-0.1747318442510174,-0.11943156621383023,-0.008853642187281581,0.16678206882234162,0.3394394084642765,0.4862936678566609,0.6281502627562096,0.7473847810710181,0.7494861982470975,0.6318840323111582,0.49877372735822584,0.4013952468025534,0.35244270284244106,0.361106742597137,0.426979872951716,0.4672941152702025,0.3893762799359321,0.2681061314057981,0.15319584318429855,0.06036767738799062,-0.0077249237071372835,-0.0537654059306134,-0.08270745518479936,-0.06983429676472196,-0.001466949682062056,0.03381831894415164,0.04940392812296414,0.05001328246637309,0.02854208047513118,-0.02597889608073267,-0.12052625720707252,-0.2417312598077697,-0.3645792896275669,-0.46642575078739823,-0.5143191241618603,-0.4643964096033404,-0.3300382445698913,-0.1533428345195833,0.031610011050825004,0.20289842729705534,0.3391592094112895,0.4286964712341242,0.46289859676851636,0.4552228246938706,0.4331018347604206,0.4294840982370681,0.47441681227156546,0.5984491338569824,0.7544931386425526,0.6555188287773364,0.48046631540651213,0.3869632201456725,0.35141527978172915,0.35593390787972407,0.3985249464240129,0.48300135768643343,0.5862716908210064,0.6324894008760048,0.6125169996563005,0.5793735158138569,0.5546338959713012,0.5354143707365746,0.5163671900212501,0.49357253512962757,0.45947542776958417,0.4021743428891093,0.32433886755233166,0.2493584453158128,0.1997394849172702,0.1833910875368624,0.18998433789016045,0.18740830728582156,0.18347034813939125,0.21119775130893573,0.28819321643108253,0.410337722364285,0.5564119294927642,0.6947245122089486,0.8052919480714974,0.8836308438168277,0.9343921697229876,0.9619243699297328,0.9618294949704381,0.9247199679900031,0.856915663282544,0.7933771606107995,0.7653278934515403,0.7699842206456822,0.7711549589528895,0.730392986723577,0.6099276325610744,0.390767326503307,0.12581599991418982,-0.10746856266245387,-0.2939746642896577,-0.4466220575736829,-0.568821108131089,-0.664959802396126,-0.7396260043396062,-0.792046080790073,-0.8196095260935511,-0.8217547060971284,-0.8050091613107235,-0.7837072506678419,-0.7734149990849183,-0.7877839684922391,-0.8316201513564427,-0.8834577393382544,-0.8898358384952968,-0.842067907502985,-0.7935884142355534,-0.7721937591855913,-0.7763108322632021,-0.7990340055414229,-0.8379094119159215,-0.8915333546941053,-0.9490184526595725,-0.9770415828809698,-0.9303249444528969,-0.8288869747986836,-0.7404589579353351,-0.6961455028638898,-0.7010792782906258,-0.7535808085585809,-0.8259949154528603,-0.870491604878827,-0.8826949152299585,-0.8866421305762845,-0.8942186622711817,-0.9027789305543829,-0.9075439185712871,-0.9020005329632602,-0.8786756483784482,-0.8304850814376404,-0.7580925257922221,-0.662511188428079,-0.5399798612262218,-0.38519443350445476,-0.219542172691205,-0.08299237443404603,0.010566769633879942,0.0732910068213082,0.12694596611723363,0.18746779977350614,0.2791088642945204,0.4230502774178638,0.6117068581167097,0.719263726138568,0.6637036170829296,0.5996087379680172,0.5898876307121352,0.6220556926219672,0.6866017681256604,0.7623708519087067,0.8221802806693067,0.8558311062718003,0.874897667635324,0.8925422405988184,0.9138020672379071,0.9361362408382292,0.9548349802613674,0.9685133600544761,0.9754207361768126,0.9710685672660339,0.9484845391194684,0.9002974366227509,0.8214823700053785,0.7114928376006827,0.5722067648811499,0.3974887247556308,0.20221786615878787,0.03211308125230444,-0.09202947441600345,-0.18568548223174938,-0.2599606220650267,-0.3263898712836386,-0.39600181875362367,-0.47571676285893116,-0.5649556898410797,-0.6540185904450537,-0.732029577773928,-0.7927058854412603,-0.8250275183084926,-0.8115841855641711,-0.7490872681412151,-0.6653242977821902,-0.5936042453956959,-0.5643903632013811,-0.6204056221090889,-0.7858776334962019,-0.9292151055850635,-0.9440682740600917,-0.9190117418289043,-0.9007373218546458,-0.8964779278916688,-0.9049660935048377,-0.919609185314933,-0.928902974533685,-0.9224561249611037,-0.8917140693085313,-0.8303397698934017,-0.7373249504967606,-0.6196773051699416,-0.45766258365629015,-0.17185762381907657,0.32670148186549364,0.7651283214002745,0.9157714310339611,0.9474954944630908,0.9514850039516142,0.9495996639967421,0.942904197273158,0.9155043316271578,0.8254629659382466,0.6529306674219818,0.519732132391379,0.5391093543135407,0.6784517579885487,0.8192097351504964,0.8943081139580094,0.9142175374004042,0.8947683669497396,0.8380584954297077,0.7398025689647637,0.6046931626986226,0.45751355951646416,0.32714629873055295,0.22855022740200512,0.16074487305642893,0.11049594508171072,0.053717233862518955,-0.12731638914734078,-0.2549833240367352,-0.22230408413370858,-0.22436744020677693,-0.2333395952238381,-0.24190591762953062,-0.2540067356482678,-0.2757285176923916,-0.31185549389385075,-0.36045862419108143,-0.4155301539457732,-0.47951698222358563,-0.556402718873691,-0.6379256842267576,-0.7021347780143619,-0.7316706378862591,-0.7337148463023608,-0.7237082729962755,-0.7003158972615757,-0.6650373448133872,-0.6397600167625286,-0.6428110379118653,-0.6793568587447959,-0.739692665693327,-0.7980265668364078,-0.8307384908843055,-0.84263662009693,-0.8463271720917334,-0.8307572728859061,-0.7726780026662035,-0.6718623905675879,-0.5675096597782576,-0.5005825557550412,-0.4920407500936657,-0.5540193749551552,-0.6907599120382363,-0.8313400813228081,-0.8538115219699846,-0.8112781850893549,-0.7753633418968002,-0.7557947741374218,-0.7473588795566131,-0.7529287783310417,-0.774217995531476,-0.8066177879275441,-0.8384978993144583,-0.8550283737757225,-0.8372306471847475,-0.7747070892485686,-0.6649618494698493,-0.5228514226328603,-0.38194179598425354,-0.2669562076385748,-0.18055518132268328,-0.1122140082105995,-0.04784677784662703,0.023978458502154406,0.11490076928314721,0.2365211406329019,0.39002199091080203,0.5449415385230283,0.65626880139945,0.7092069764422156,0.7232823485675162,0.7327091408961012,0.7727962421428846,0.8601053121633859,0.9493806940643039,0.9015727588415083,0.7126198807453485,0.526476814214909,0.39266467319018045,0.30151078968406075,0.23998547110941207,0.1993932394603834,0.17608370964792044,0.16934028776075127,0.18424233407293258,0.22598033230255948,0.2636612679994885,0.16035816728702415,-0.052079803929621304,-0.20499476023609242,-0.1537475687135221,-0.03428236473607704,0.06398648582629562,0.1394833784556526,0.19234868743540479,0.22739078477151298,0.24994122534125862,0.26304227315299333,0.2676428412437935,0.24475349500382007,0.1643609136630959,0.0729275817579258,0.023628811184097778,0.01689578584439389,0.03894728734285075,0.0842308239988112,0.1520663169528506,0.25002559361271937,0.38870594451635376,0.5574811859976904,0.7140572539009712,0.820205886817396,0.8794518543677428,0.9103968768771119,0.9276342087473334,0.9383818883379665,0.9453062209254136,0.946867985662937,0.9380905389155584,0.906965440464235,0.8172666240459602,0.5601731154668337,0.032870542353590486,-0.426552785448862,-0.6376802623029839,-0.7317231122061452,-0.7776140786622253,-0.796237515797,-0.7904152145127122,-0.7567465302416302,-0.6940845605306579,-0.6171246678169977,-0.5640257441465182,-0.5601091740980063,-0.6045607255747132,-0.6865369362381292,-0.7987626372019512,-0.9120090166952235,-0.9620422925247429,-0.9242333006081302,-0.8528506145503711,-0.7935912819146985,-0.762181197494832,-0.7640543368172908,-0.8029642614628304,-0.8710349879294349,-0.9347142745617254,-0.9616824324991012,-0.964807189435563,-0.9667127006615319,-0.9723130251268629,-0.9758698982762642,-0.9695071964751176,-0.9339609619465276,-0.7588591121165159,-0.08377778303681477,0.5121618675797873,0.6988009877977979,0.7590794582126272,0.7757550056446006,0.7711652035671989,0.7712305239203419,0.7923540215716431,0.8219702993975022,0.8025488827288708,0.748636456939248,0.7283678283703215,0.7475783383763925,0.770006831710503,0.7724590596083681,0.7433101210870431,0.6924780501982385,0.6359068110450622,0.5820444689310998,0.5323426597256948,0.4873177668183656,0.47147980866075534,0.4917369396322413,0.4986300651782518,0.43156545259424006,0.2855049011325686,0.09318773296922274,-0.09934873986657637,-0.2598530903593828,-0.37519387438338586,-0.4561796660792371,-0.5117112341668237,-0.5363578811382611,-0.5123583827892907,-0.4071280501032221,-0.20371555042306239,0.06416882047283398,0.30287840356779117,0.46248819753757425,0.568332281486168,0.6481142185394001,0.7104281669811513,0.7157474173991858,0.58264263767561,0.30508438376458064,-0.008917444110968006,-0.24034222014328066,-0.36687268904855097,-0.4186047871562559,-0.41540161354622507,-0.39101303080964755,-0.38212018200466374,-0.4004828365194087,-0.44000685484240093,-0.4901448252287302,-0.5390570514217429,-0.577197168921311,-0.5964234115604808,-0.5833856107973098,-0.47817016617384955,-0.04055183855863758,0.6734886047904997,0.8995073823080331,0.9502926068703574,0.9660334575429317,0.9709942884617146,0.9707428890743781,0.9661896691271196,0.9561469211528243,0.9363285454527404,0.8956114926941708,0.8062589745395982,0.6055118337796328,0.2135407711164045,-0.2685565036429045,-0.5901554629203889,-0.7047831350802026,-0.6620157242000637,-0.4992656900228331,-0.2549521753254769,0.02123818636710804,0.2825449400262527,0.49870443406544807,0.6495895723627393,0.6479917358901234,0.11687492478923088,-0.39830565798560846,-0.6191294265189649,-0.7355654627884728,-0.8072304475041384,-0.8497605789902581,-0.8637063620218663,-0.8476453086540235,-0.802542632072399,-0.7379038603122585,-0.6704628561086402,-0.6088182406598134,-0.5586136736446328,-0.5280412214686827,-0.5279326159088499,-0.5591886820625754,-0.5734065372160245,-0.5107694075597099,-0.4482842462484508,-0.4419888975137581,-0.4688016080610855,-0.5061624935621853,-0.5445651341504709,-0.5814375030326325,-0.6080069400029658,-0.6150913144267103,-0.6041189948306745,-0.5773519214993611,-0.5411864006619059,-0.5039546654404625,-0.4704603380386928,-0.4475244858254097,-0.43980693604911103,-0.45972743242855896,-0.515572023751255,-0.6043663823857673,-0.6866622334081917,-0.7175614721252155,-0.7376783485569661,-0.7735581766421183,-0.8127814236160189,-0.8424995254421555,-0.8637664941334403,-0.8785819350936592,-0.8917482238424244,-0.9054398666518699,-0.9181425393910788,-0.9252750541578931,-0.9236054762567841,-0.911588125342952,-0.8851364984761159,-0.8361070386696967,-0.7611354943251689,-0.6638230306113639,-0.5448457832481299,-0.4251422693185245,-0.332420163351932,-0.27738432664285484,-0.26134195941116073,-0.27895289229713416,-0.3247685421374214,-0.3586588730686318,-0.27683085174864847,0.09782550799403328,0.6129020052632163,0.8411200962580299,0.9104400001819147,0.9345515246478099,0.943790448808609,0.9474282026058327,0.9480139726518205,0.9458792220896848,0.9388189985275739,0.9119432805142856,0.8328698635421558,0.7026483939734599,0.5966789396640529,0.5583137626204535,0.5589093281487728,0.5291621310484085,0.4371920080526622,0.29747505029022653,0.16174530331787715,0.1047452575184914,0.12065595309624819,0.17918469310669963,0.26673966406596616,0.3873568977124475,0.5428502879351096,0.6663385600321564,0.6669981286806939,0.6224876036628028,0.5981169649722126,0.6028243327263856,0.6404688468817984,0.7245472938161244,0.8652430252311523,0.9521088339066596,0.8062671422079238,0.610209358425415,0.4770146310086567,0.38599534239845407,0.3093659887304231,0.22172782944070996,0.09159569489942306,-0.1110603952737329,-0.3411544663316861,-0.4543506535613959,-0.46189132778168607,-0.44289538385026284,-0.4228182388419066,-0.3984747893292381,-0.3610341860987375,-0.3024719474115566,-0.23211786901442566,-0.1693040973758962,-0.13107325704987638,-0.12943426890747423,-0.18058423450785474,-0.34066695972691197,-0.6820494426597773,-0.5537449788177523,-0.37826693951173723,-0.28158946955214315,-0.20933786921509942,-0.1399505962726902,-0.06370674972899605,0.02558930664632399,0.1346351585275693,0.2676740781559579,0.42034295547270933,0.5788788779505404,0.7255385712874287,0.8374171602389019,0.9030080486409766,0.9300375136188075,0.9310940670543485,0.9104749846977266,0.8576243446986012,0.7428371350299571,0.4972589612111747,0.050855898547583295,-0.431337295991196,-0.7111489628017098,-0.8287896407015616,-0.8736039547697677,-0.8908996276742147,-0.8969203853212167,-0.8964063398740276,-0.8924191992482896,-0.8897739074184319,-0.8919702992334408,-0.8995322148974838,-0.9109251517823058,-0.921933249141337,-0.9255456647884194,-0.9116892201867749,-0.8647559785149415,-0.7623519262332652,-0.6056462766008762,-0.4337660608530521,-0.2721282376104358,-0.07814273868814875,0.32135388205544857,0.7849984683195107,0.7607876768026196,0.7341693032141436,0.7369659671693046,0.7524731035413209,0.7690370782107389,0.7857779749036147,0.7961805618973247,0.7949453906204247,0.7771265989955164,0.7404143795693326,0.6697381117598941,0.5562594401094167,0.41075375272349757,0.26077130114870156,0.13298152578833636,0.03953563744397117,-0.022062397528097025,-0.05480563890801241,-0.07144896808086533,-0.08690125076126354,-0.10499071255786545,-0.1290359431560893,-0.1615935990677718,-0.20487587898892298,-0.25414040722538667,-0.29600327023114825,-0.32572358909193677,-0.3466317605250059,-0.3682949032793547,-0.39376700400437836,-0.4286526043531548,-0.46606395019165303,-0.499065094635565,-0.5260736776899555,-0.5686946295404778,-0.6340198887751942,-0.7012568784983784,-0.7460170115488377,-0.7739447826374984,-0.7954494328186734,-0.8291548178105891,-0.8752086172295427,-0.9191190261101544,-0.9530281350255247,-0.9724287793260075,-0.9748715763810339,-0.9526569277538931,-0.882761642029221,-0.7601645503326486,-0.6328075814229531,-0.5411601668552269,-0.4905524231989872,-0.4861974859267815,-0.5506062652680658,-0.7127376005219944,-0.9055801409675793,-0.8919153052289338,-0.7619348592189203,-0.645376798531837,-0.5441175089490855,-0.44540794446661275,-0.33091184195612,-0.14785223843514755,0.27353582880621236,0.871321054522668,0.9551812293031136,0.9226145831538562,0.909468831898107,0.9161667739528279,0.9363141031874717,0.961812395549895,0.9803365545224642,0.9796129953031875,0.9545164876162183,0.9053996261066148,0.8361436899425149,0.7580444770073903,0.6869895596667516,0.6341898986446824,0.5987935093950933,0.569756487962547,0.5308294671552852,0.46080668948413045,0.33648918613605844,0.14476708081559747,-0.10016086702948357,-0.34567717364292105,-0.5200006019861899,-0.602248719443781,-0.643432288064514,-0.6896371804276983,-0.7584808050977241,-0.8387439808258446,-0.8493076757441032,-0.7146567837387613,-0.5447226707620011,-0.41389848026997134,-0.3092132519531244,-0.20726264360813473,-0.08913493079471047,0.05433876525967846,0.2183553050050197,0.38175758091559386,0.5112653722647408,0.570588873154909,0.4956497579278006,0.17772328751794222,-0.26714722060062795,-0.5463122454150616,-0.6870481745906282,-0.7674405966903106,-0.8189297749128456,-0.8554275964875345,-0.8842974403270929,-0.9062937981750665,-0.915935625984038,-0.9057739304554523,-0.8700696779809274,-0.8149312949102828,-0.764927769774606,-0.7471732492758252,-0.7745899450170662,-0.8326648828441132,-0.8847037662724369,-0.919911436393391,-0.9515815630732173,-0.9778343604117119,-0.9823064079716781,-0.959257545114023,-0.9208736969769286,-0.8826019584475983,-0.8501603227247533,-0.8226730388603252,-0.8011657390387198,-0.7740081830364806,-0.7055285235606102,-0.525595333638367,-0.16439652905788738,0.29027503392602866,0.6156059394725553,0.7831934141636745,0.8691318912212792,0.9175164091581047,0.9472136216626977,0.9639053822944589,0.9697249265345302,0.961638103611879,0.9253801491682259,0.8241884086535062,0.6029671111894973,0.3097062635031684,0.11787386310202841,0.05905245516924801,0.07610701076645376,0.11854910877896531,0.1639141793513241,0.19444663420951822,0.19163131367605163,0.17632154046107235,0.18874219737320444,0.23459544581803493,0.30337955135273753,0.3812594993829384,0.46277196255976405,0.553092654844999,0.6478840247067011,0.7380998941119657,0.8098297658669904,0.8526530291412293,0.8695591106279991,0.8617110402367933,0.8376170101397217,0.8093772346816367,0.7810348815610777,0.7396920413526696,0.678896501694799,0.5836735365767394,0.4510776980528979,0.2990008806877189,0.1558398059298164,0.029458769637862946,-0.07844976611152507,-0.16856607600386084,-0.2516066499221533,-0.3385614701075786,-0.4320441032329671,-0.5260425720578585,-0.6043424789681141,-0.6620218018530079,-0.7032184458576649,-0.7316320414289661,-0.737598666450553,-0.7014806701524737,-0.581324111957725,-0.3196031704742842,0.04545435577190793,0.3228454109824681,0.43855244020543177,0.4263720728546407,0.30680139678136376,0.1152138204340466,-0.0826721828038626,-0.22321734022792517,-0.289020379090132,-0.3027203026898473,-0.2973811039421145,-0.3080356902899457,-0.4015855196542822,-0.6373252378363524,-0.26173680170290115,-0.12928902469827855,-0.08495451962827268,-0.06998522977034802,-0.07328608443643037,-0.09250547051952909,-0.1257491690074107,-0.16711823348965874,-0.19751299631380875,-0.15033421264925617,0.1780621475870972,0.6062392582223151,0.7744797457623199,0.8539081009585573,0.900062423851888,0.9264694662489232,0.9392446470245317,0.9416279986732843,0.9327800659777469,0.905576655511182,0.836251975898749,0.6625698664088074,0.31066728295951207,-0.09598182901395949,-0.3662331803844266,-0.5091875910927224,-0.5628753054885319,-0.5195013514435889,-0.3897785657226635,-0.23935819061263133,-0.1034217999711511,0.009023506439020144,0.09684904415999979,0.15177337385720552,0.1768902827282335,0.1959994265190851,0.22858705470560836,0.27666037551858846,0.3276651753744012,0.3604275959585523,0.35881068016384526,0.3171213047219489,0.24145992059761603,0.13680663026110113,0.008917751022940231,-0.11947298492751106,-0.21726141904984744,-0.27954119470436245,-0.31726624475995385,-0.34250656690387693,-0.363045721527233,-0.37847813428044624,-0.384156269435439,-0.3825264269475506,-0.37356897424811936,-0.3635582166650108,-0.36133596028566567,-0.3701792050967072,-0.3871857176058509,-0.4145715131199868,-0.4611400383462989,-0.5303566293958943,-0.6098973486146307,-0.6439967990511984,-0.6344714338973546,-0.6498996550218625,-0.7187100892642329,-0.8230442255270018,-0.8572402190844639,-0.7695070003301657,-0.68631356936579,-0.6577933048281777,-0.6618190064956602,-0.6775133812694774,-0.6967539042822477,-0.7178997486698797,-0.7400643450418133,-0.7571837551346796,-0.7601736820997406,-0.7400451221076003,-0.6855930576130299,-0.5859605860659217,-0.45174424760610205,-0.32611262239998345,-0.24362815479528352,-0.2032804461538002,-0.19414303561998522,-0.21031050899549295,-0.25738247061758723,-0.281988512575037,-0.11963054791371677,-0.026326574607527374,0.01803225244834592,0.04626102303910211,0.06454208622654463,0.07851974595849104,0.08985828638635772,0.10065825924605594,0.11174249139772285,0.1297822337079203,0.17212754999856808,0.25016902463335766,0.3527363953399664,0.46047888433585626,0.5573425962035771,0.6409043454042443,0.714167193030861,0.7839328663836195,0.8456382404427993,0.8808312175343568,0.878696501613463,0.8427082880343739,0.79716206918524,0.7724458336376182,0.7708882121959975,0.7871995237623267,0.8118296559953557,0.8349928966461759,0.8472759992101222,0.846232404282034,0.8350705252693983,0.811539602265494,0.7691225465262426,0.6794455306147924,0.45774857730301044,0.03317650958991517,-0.3507946151450951,-0.5237609360114347,-0.5366128590008385,-0.4386402182760724,-0.2721922789033344,-0.078877129091017,0.12283630648357573,0.34719651496809223,0.5988885362822941,0.7668405643871516,0.7687236182548346,0.6946648822677388,0.6055410982451243,0.5060983937849232,0.37930935344308037,0.2077192564729833,0.002608253070944183,-0.1979034550048142,-0.3767907112802549,-0.5115098768390864,-0.5696484997123519,-0.5118874482532092,-0.38066231990819366,-0.26284969485242005,-0.18975006961351917,-0.15294512244815597,-0.14227800288900266,-0.15515070610021453,-0.20771995578128438,-0.3547776855754862,-0.6403147420683427,-0.6429021160627774,-0.5427999948158024,-0.48997592871144385,-0.43537218149119666,-0.3080893551962881,0.03397958996574315,0.5621778682067256,0.7202701115731817,0.699455809320577,0.6659112784155614,0.6512820991636431,0.6665275498617985,0.7248516506744163,0.8409446455960756,0.8816697121662401,0.5033223420837645,0.17059226667856678,-0.010663592945319211,-0.1269177292313854,-0.218563597519024,-0.306539740394719,-0.4075426065889746,-0.5329428704310278,-0.6914270364127129,-0.8582269777599408,-0.953127429801818,-0.9446616013402087,-0.9039772575492835,-0.8819202226556674,-0.8824570670406804,-0.8949337714245121,-0.9091936868840561,-0.9153144345962385,-0.9044977587283817,-0.8690979066122622,-0.8046937918119296,-0.7242847120570474,-0.6539674585044084,-0.5975562736292949,-0.5372883236391942,-0.45846042358487793,-0.3597414052716341,-0.2754587527996438,-0.2368740372069576,-0.25367226324802117,-0.293222808672964,-0.33665238155562005,-0.37858851917080877,-0.42606590623771956,-0.48191711888573163,-0.5381698405189317,-0.5783969958350327,-0.6021915835227949,-0.6181826718023977,-0.6254198870208363,-0.6125695434305664,-0.572318418386112,-0.5150797840272276,-0.4664083322284423,-0.44342307317928475,-0.45269753060471013,-0.48868992728712235,-0.5339256565516167,-0.5555842633498086,-0.5124778138721555,-0.4291217803691054,-0.35826681811757854,-0.3162919842121562,-0.2998652855866359,-0.3064243150850318,-0.33552327342466615,-0.38590405457217025,-0.44259911349427833,-0.4339110917459445,-0.299170049302093,-0.047654703301038145,0.3332448218599588,0.7089231796060438,0.8973029920472693,0.9603393680059455,0.9778366877763327,0.9804532734637355,0.9774147433575584,0.9705730624927597,0.9590364604282374,0.9406181066288715,0.9131251415713005,0.8756879357944941,0.8254633709453311,0.7489826600738174,0.6334466114746187,0.4866457563831401,0.3345571499791441,0.19604737074475215,0.08071187151993933,-0.006413045680114766,-0.06666147505145473,-0.10438379370781038,-0.12843273622800436,-0.14392997125167337,-0.1576523452662861,-0.18377356147892487,-0.24008956807140822,-0.34859449233852585,-0.4804120343038103,-0.44965259615339565,-0.3334964851358248,-0.24857092132638178,-0.18972416519844496,-0.1429045251158498,-0.09913010402789564,-0.05557003470188079,-0.014070526732970878,0.0238665931401678,0.06031333124048936,0.09497824008923754,0.12600809905635885,0.14285603190892482,0.13512719630258813,0.09340972561639305,0.009762103944094193,-0.12553334325784396,-0.3193307726480938,-0.518062938195004,-0.6405337926362322,-0.6976910466746881,-0.7301353285489156,-0.7489331317116086,-0.7577024617707289,-0.7557623191326674,-0.7424711531895701,-0.7144576744838329,-0.646518757207964,-0.4608410876793038,0.009981397185763333,0.5750476656989072,0.8205807358941662,0.9000941707285977,0.9287800906860932,0.9371296075528971,0.9313357756301689,0.9058561582999929,0.8376105504599685,0.6741313868351224,0.39061446629509394,0.12789669218710192,0.017440236138805385,0.03095631655607488,0.07343709025226831,0.0759939712481209,0.0030233375800408817,-0.16368593929239178,-0.3712106532445961,-0.5346698457563355,-0.6243425560460968,-0.6544393287051969,-0.6451174211345158,-0.6046523523419979,-0.5359486336695253,-0.44709476573768914,-0.358032675933408,-0.29037054790430905,-0.2523545382734515,-0.2433750126254397,-0.2507130282872329,-0.13074806678642767,0.11500457268661517,0.22542922414587765,0.28835040698242115,0.32681302868442696,0.33961197261953596,0.32057125856276625,0.26138703510001043,0.15531408748936257,0.01606825763197591,-0.11414464580241594,-0.17059672737345347,-0.10433930964419108,0.07437487386824852,0.24450759267854255,0.2980969609328383,0.22610762952196445,0.03124478909006868,-0.22834508134207385,-0.45527647070803623,-0.5999309296919182,-0.6748233275965221,-0.7087167864597556,-0.7323871711245743,-0.7570421969497994,-0.767970392158747,-0.7358504465741248,-0.5605111684072019,-0.11648799531446068,0.26893281978634426,0.44599851937526674,0.5405670466662482,0.6326047501623234,0.7559546365444597,0.9012337103695662,0.9871976907346132,0.955864939939993,0.8710391723073788,0.7934385868032082,0.7313036497896535,0.6701970890709233,0.5830782901822945,0.4080984883634626,0.02721660783590702,-0.486875200980956,-0.777757477153318,-0.8855011671812989,-0.9260605134900024,-0.9383045185834029,-0.9322870217568024,-0.91369803392253,-0.8882465468255887,-0.8568385602350622,-0.8179155252595492,-0.7717327104644935,-0.7262464467675227,-0.6953735830689189,-0.6924605423349963,-0.7181968055480085,-0.7607746737144468,-0.8055186553754525,-0.8481222617701163,-0.8849175751461729,-0.9132710435786635,-0.9314591167526461,-0.9402928186645645,-0.9432690389893599,-0.9434538713828572,-0.9423423804528478,-0.9411714949269202,-0.9410815885591056,-0.9418706510300763,-0.9455207858602084,-0.9539701567779459,-0.9663413579682627,-0.9704724984122077,-0.9402172566716702,-0.8209870301873347,-0.4456608504388747,0.3576282312036622,0.8190973080088939,0.9408338660844741,0.9751221159776507,0.9862003452832709,0.989832322913829,0.9905222266578286,0.9897565682163434,0.9876647825221637,0.9832169626784616,0.974079165675056,0.9570710754443356,0.9294096245679583,0.8851637293649257,0.8099273173906344,0.6680729208485584,0.4187073335954335,0.07686665570200372,-0.2770233668851474,-0.5482054357860067,-0.6957992509703942,-0.7702602048939869,-0.8179934152608035,-0.844564608258045,-0.8432464970833832,-0.8090388958181233,-0.743402850293634,-0.6514313377728383,-0.5419151619530745,-0.4290388593974452,-0.3346030392045577,-0.27334131214165497,-0.24754901218521544,-0.2547083200787433,-0.3055299327708015,-0.47236795740078147,-0.9038400107391225,-0.34017948155374744,-0.1717003527315884,-0.11671554976897264,-0.09545807353952349,-0.08897382974002205,-0.09607159049010652,-0.1249673846102332,-0.18092621634675815,-0.23162774056407695,-0.23194033417931798,-0.19643928874064154,-0.15696930314997112,-0.12976873598126562,-0.12912000657134476,-0.16895792629750572,-0.25910467298924167,-0.3727000568538136,-0.45279200884082754,-0.4870076544567867,-0.49576805042247096,-0.49712009791206635,-0.5046488086127773,-0.5243633154005638,-0.5551664737534017,-0.5850789805258939,-0.597496853903316,-0.5900498458885719,-0.5672523447422289,-0.5292537998654504,-0.4738478876602393,-0.40529466272272047,-0.3444397000863781,-0.3124984075973159,-0.3201930477319741,-0.36510656808539715,-0.4371890251874151,-0.49234713229887045,-0.24333238433215132,0.21866783010160032,0.4201778356065092,0.5353212288351096,0.6265004513983989,0.7111822763818704,0.7907367728578409,0.8516755814424274,0.874004883525166,0.8633971425080895,0.8379574439098199,0.7958786530872249,0.7007209788795605,0.4838246876817333,0.12179693390523183,-0.2411675011563031,-0.4857968094804988,-0.6191063251235113,-0.67698440800764,-0.6861629541116387,-0.6626758630285631,-0.6180924345097004,-0.5666807862287291,-0.5249826490157958,-0.5099417001190798,-0.5351988879591473,-0.5975295833302009,-0.660893788030185,-0.6647513194525534,-0.5173108928771241,-0.01689820206819285,0.61653949393892,0.872202953891349,0.9487022902489176,0.9739487601588066,0.97953018875581,0.9753898705493771,0.9663257841676832,0.9564607430270999,0.949675723926425,0.9487934359320952,0.9539013846041654,0.9633746621505455,0.9749622076048061,0.9858949720522188,0.9927959935658793,0.9928506152258855,0.9850269579877553,0.9678761385484581,0.9141850278120786,0.7427909898868351,0.46337972654554604,0.23111185087473102,0.09758154526489533,0.03048961236051058,-0.006798015358941981,-0.0376953078910449,-0.07514814815708885,-0.12636310619584024,-0.20228280668359722,-0.31307993712876014,-0.42760334280511175,-0.4769892118562642,-0.4931909963171899,-0.5190152765398918,-0.5516538414173463,-0.5582621667653228,-0.5099591006051537,-0.4452401338866911,-0.41628520366381083,-0.43166220953573764,-0.486561481770232,-0.5738387821117593,-0.6834341285570573,-0.7942534302694951,-0.8768941890778852,-0.9223846945189395,-0.9454247423763412,-0.9584564860501903,-0.9642782301411204,-0.963265129359293,-0.9565088001287465,-0.9451015081192014,-0.9279559890198736,-0.9017498024686365,-0.8606029200462397,-0.7945632544686575,-0.6883339113140726,-0.5435156730326328,-0.4065838603179393,-0.3266392803859119,-0.3040956082729842,-0.3123515422908,-0.31722212425371316,-0.2915968383675813,-0.23000310437530583,-0.13231336948408176,-0.0010164292497036461,0.1501845465638123,0.307388233846325,0.4602111528161245,0.5855142768121864,0.6677652779050721,0.7228383715475241,0.7680344747014757,0.7990072919059961,0.8089537295500662,0.7964855652992187,0.7671105473186871,0.7341069365886022,0.7081937633615706,0.6956760101960741,0.6935977867006855,0.690882620518992,0.684932629456855,0.6838014883581366,0.6981238310353205,0.7176081234893775,0.7132531980209815,0.6695000510508109,0.6039727794668689,0.541446538535354,0.48344737303425156,0.41892514276814313,0.3222547341484976,0.18186986357967141,0.027500975163056156,-0.09176954875667288,-0.17546723473770315,-0.2512279775519115,-0.3277909274603612,-0.39408247752338366,-0.42044356429105373,-0.3856868548914794,-0.30555487313293567,-0.21991180906197436,-0.13470643657501277,-0.04253455159086722,0.06229966201846185,0.1667161709893925,0.25018667922597837,0.29965362676931795,0.3184658140942789,0.30413863397725854,0.265191884467853,0.20243177965099632,0.10041846203233969,-0.0707271900779731,-0.31832090514301364,-0.5649595720477557,-0.7320391223849794,-0.8276251264347504,-0.8827566488468218,-0.914582487579401,-0.930602873705847,-0.9390835297567925,-0.946985956890336,-0.9559175853508617,-0.9591829192227023,-0.9549302095486932,-0.9513266939378876,-0.9518602451201317,-0.9519103620697144,-0.9504511585859983,-0.9492725007841892,-0.949687906617578,-0.9500622011910244,-0.9485024621580006,-0.9374515348791987,-0.9017914342049482,-0.8222540131516358,-0.7088096054774641,-0.5917215867253072,-0.47469819131121327,-0.2955409029551918,0.1843280757003105,0.49485365452991426,0.543035042278083,0.5777311852413898,0.6405905961733231,0.7512854566596378,0.8945680395492075,0.9130526697681053,0.7320783408716073,0.5681015753962425,0.48569149860072347,0.4740993971485748,0.5372334866895071,0.7153074604253088,0.8920750264802895,0.5084561132515986,0.207887629215513,0.04623360170566314,-0.05802154874563208,-0.1320480725881504,-0.18677123942687343,-0.23076310966166905,-0.2789568192980545,-0.3540199647315034,-0.47994477752887876,-0.6436917146622261,-0.7809538211095325,-0.8581636781781977,-0.891553993010736,-0.9020992491556649,-0.8943830877838332,-0.8484085449110186,-0.689853890113148,-0.2748337702352813,0.28045539151547266,0.6242135446889456,0.7836819748789027,0.8534858719065767,0.8771931175731179,0.8691839362903605,0.8225633284063862,0.6883128684671487,0.27650910457749345,-0.3772141344042137,-0.6061061608712106,-0.45752765295519454,0.3652846554196096,0.9050780285049661,0.9785518817561821,0.9917494379013511,0.9954467444333762,0.9968599672500079,0.9974997860298345,0.9978218537011926,0.997836046003887,0.9973393996665666,0.9957679916575247,0.991277894914511,0.9769066771206428,0.9059718513905528,0.14072155351579194,-0.8258054785372676,-0.9395306271718331,-0.9667018488631474,-0.977314034987239,-0.9824120868574797,-0.9849958252882379,-0.9859627897004396,-0.9859838478399964,-0.9856885268217409,-0.9857405266279221,-0.9860877969853983,-0.9861850563798986,-0.985977747270483,-0.985840399497179,-0.9860536039703205,-0.9865629632572103,-0.9870727542651606,-0.9871625682064197,-0.985713906736203,-0.9811523747712491,-0.9722261799292393,-0.9595707678622367,-0.9456836756177108,-0.9339078569847631,-0.9286403028845,-0.9349139831578952,-0.9500033275724862,-0.9604497989024352,-0.9455611742375672,-0.8927071421425428,-0.8145561013899634,-0.735309026466717,-0.6684118495427611,-0.6139399062680256,-0.5696013507356352,-0.5377753018846034,-0.5110226162766119,-0.46505109402202716,-0.3256149723376288,0.015769626556570493,0.4342210397930052,0.6972237431803605,0.8204367870514665,0.8713585497432634,0.8920908535476545,0.9088588313787517,0.9232402842144888,0.9329092992659798,0.9394452682644974,0.9423157154958743,0.9393759826302491,0.9281518949747406,0.9046656913150699,0.862915552627,0.7987087639550441,0.7214773260260996,0.6460841517549006,0.5813729738418858,0.5209522729412244,0.4616134000451006,0.41365440260620334,0.3946534541465932,0.4246457859730488,0.5245618505450422,0.5970935573699319,0.4434665554932371,0.2903901656715886,0.19616687854221215,0.13864426926732912,0.10517876708798418,0.08595919736085172,0.07620205421267949,0.07243846159159428,0.0723645666425267,0.07959168238863443,0.08914885578918826,0.09486274334547068,0.09176092337694478,0.07553107308897386,0.044481578605716034,0.0012915123150889567,-0.05442155384946031,-0.12746823087272519,-0.22611885977845853,-0.34259914644504424,-0.38679835500716536,-0.09003189068092524,0.32947164109612653,0.5414644358169758,0.6335566375847599,0.6748962060300776,0.6995543356288261,0.7181837644465209,0.7147451992905272,0.625552106848601,0.3886998894993169,0.1536427034152046,0.034647155958870766,-0.004821960760871115,-0.008842258878056558,-0.0037806886636546676,-0.01344949739773699,-0.03974222609083807,-0.060340280150947806,-0.0582408087477062,-0.037196097775349275,-0.003496968002028877,0.0416394603864331,0.1108059771253922,0.21184342899008757,0.30411028048637706,0.3672886425165437,0.4536572527365911,0.5640710508209932,0.6512568188715357,0.6841077587491055,0.6823903866691632,0.6719937244751182,0.6475989380181025,0.603254056929999,0.5424903423923542,0.46262973147448105,0.3526200080891401,0.2311533836723489,0.14250216230455456,0.12712796284838787,0.20211805319641582,0.3664807104713434,0.48074760349037243,0.4965651251481822,0.48050620506982145,0.4480939389483559,0.3967137231751287,0.3471492782463214,0.32472400505329485,0.3373709825192222,0.3775509041826461,0.44562740032737247,0.5491181197102235,0.6919290210040867,0.8268056688606173,0.8459485661441394,0.7922964738035816,0.7691881327945763,0.7921994655735831,0.8340822380423318,0.8716924000235298,0.9009379849951663,0.9235836544755316,0.938529008352068,0.94121503253183,0.8940416399983256,0.6666209727989261,0.23075899667463032,-0.15802897048709028,-0.4260829507667382,-0.6188631038775674,-0.7610040889131527,-0.8606830442503085,-0.9236749091587519,-0.9595594646103348,-0.9774964221395233,-0.9829893943453949,-0.9799099368278484,-0.9715696881826253,-0.9603573848390169,-0.9458319732501923,-0.9244270615789558,-0.8892494820625192,-0.8314723018290614,-0.7424437814314709,-0.6261605101667371,-0.5193425907020899,-0.4738281082737904,-0.4941174001093344,-0.5470614630854492,-0.6017501280829468,-0.6474282632081676,-0.6824222328548152,-0.71002567323885,-0.713525462465784,-0.6695876219609975,-0.5634398536953177,-0.3660449819376788,0.017044966229738223,0.43193442502047236,0.6436417604712059,0.7267555919859829,0.7511790347320634,0.7363258881007116,0.6767207413443639,0.5509151850428952,0.3380568630535777,0.07123895619782517,-0.15165380862852104,-0.29735203901127427,-0.398655706928731,-0.4760184189195988,-0.5202535358950026,-0.4526072485423727,-0.05402931857244757,0.5499798563334541,0.8207137172338662,0.8994631181196427,0.9014028563472345,0.8583015138903183,0.7622849476751636,0.6068698578494489,0.4379649918462764,0.30462221307928544,0.20883151345247988,0.1254343761723618,0.014579728795986924,-0.16788122903178382,-0.3768349664787925,-0.5150958084517605,-0.5854803740998833,-0.6124030440204751,-0.607744453585301,-0.5796976953005987,-0.525014854551383,-0.43073619952806,-0.29283845121195357,-0.1465586532948689,-0.05860682169043064,-0.04673729316330464,-0.0718942815473607,-0.1089416177190373,-0.1553338292724059,-0.2138270637504993,-0.2978606326918958,-0.43111040412123564,-0.5697714289558187,-0.5889364135982431,-0.5745614644402997,-0.5950916775261788,-0.6010966112933558,-0.4225293182727073,-0.1081933382759731,0.15410312710073318,0.36532577890019763,0.5595093863490008,0.7512784138900314,0.9104711176918968,0.9646823301463457,0.8825510864287671,0.7246819281007127,0.5641245662957535,0.43356828281771825,0.33221453278288776,0.24497134797198766,0.14498105821184915,-0.020820228456905163,-0.3224686249243065,-0.5929118440845467,-0.7075724433417311,-0.7839360286232468,-0.8201656581725871,-0.7715661249527265,-0.6605984121053077,-0.5518795577053576,-0.4688181607206417,-0.4081840971270879,-0.3596684761114071,-0.3085423959694497,-0.2468368529527194,-0.18649939930614481,-0.13935083676803303,-0.1030699847084777,-0.07278222111345017,-0.037448989514743965,0.005770780835396297,0.0594919901899724,0.12516588509370624,0.20349144440930003,0.26686372345130155,0.2648035466631466,0.2449366816275181,0.2584404787111904,0.30895619252238643,0.39119325202027133,0.5004545306428279,0.6183625061161365,0.7047758243978408,0.7397205435061982,0.7566068545843841,0.781040436379174,0.7936494341728244,0.7766343024114736,0.7235025137291989,0.6256059650401139,0.47823268735371544,0.27826311633565937,0.04332375497463476,-0.1707627002421434,-0.32344933058681435,-0.424279055660128,-0.5011884203828332,-0.5698063886078376,-0.6319918187109104,-0.6831532262356723,-0.7154577228411683,-0.72138088157486,-0.6920676857708753,-0.623276963039372,-0.5144816501825966,-0.34855587055341447,-0.08603072779195763,0.29149431702650364,0.6874005158708568,0.9258873426749958,0.9906863336681663,0.9817031031403403,0.9580673250276646,0.9336042019640298,0.9026037248849111,0.8460539079295609,0.7229317197728562,0.5012979574902552,0.3247056032188021,0.3996253606434514,0.6513789370038512,0.8319927294296174,0.9082469471361959,0.9321071261815197,0.9284840337920807,0.902052109875622,0.8391649227408161,0.6972896459470301,0.3996757663416199,-0.043684273998142745,-0.41621788323626,-0.6335595768417089,-0.7532865537525076,-0.8167301583846083,-0.8419523575835155,-0.826601638206025,-0.7240150011236544,-0.30212587135537494,0.48284085542856164,0.7838193546541828,0.8533565468970171,0.8721937087281729,0.8623268248347747,0.5194454335806473,-0.059814596116419864,-0.25220719617933957,-0.31378910476196537,-0.34304156240081624,-0.36642729749563907,-0.3957774466685569,-0.4381482535463736,-0.5042406236410886,-0.6082637687369078,-0.7500494989802347,-0.8809931348122482,-0.9299487584729715,-0.9132361639380808,-0.8819009837016413,-0.8503072595119168,-0.8188392259045854,-0.7901642442249116,-0.7583017077010294,-0.7079356618918201,-0.6342707930495818,-0.5480312172128202,-0.45725349902494133,-0.37133158454967946,-0.31166852781441706,-0.2907535796874741,-0.29055618779708553,-0.3035392548207934,-0.32072252377219307,-0.34623638849960087,-0.37207132074855,-0.3789997418728365,-0.3550763652331115,-0.31658662746392285,-0.2746553711627225,-0.22868769636127623,-0.18427178584014242,-0.14840548839330533,-0.1362082327976772,-0.15774705277681664,-0.20956858806423412,-0.27671759801044565,-0.3450706345001032,-0.3992971185947233,-0.4324618431918752,-0.446270607336313,-0.4521260055233193,-0.46090354364729946,-0.47472729619589527,-0.4948542641745435,-0.5210388016023672,-0.5525217741543814,-0.5817181984262323,-0.5998205867854164,-0.6011929440667743,-0.5988433803424039,-0.6077483598206698,-0.636962143308388,-0.6862738038559032,-0.7460100297156821,-0.8020147358076316,-0.8300189283590831,-0.803218580994157,-0.7229474819931471,-0.5892810546024719,-0.40008553411242975,-0.18990187079999743,0.00534697738735082,0.17518089458914785,0.3271739340554831,0.46852058382364414,0.5954854117675249,0.6955847072615173,0.7633510590860961,0.8051346707083334,0.8286353886625822,0.8372918061698432,0.8314566761789093,0.8116936873630722,0.7766305715119161,0.7235874509686678,0.657643851972105,0.5946455195637913,0.5510397491043955,0.5038238643996193,0.3945159680352662,0.291502040629879,0.2498139949723522,0.2570030704415393,0.29970488820652147,0.3641053054666607,0.43802749765587845,0.5179924518097249,0.601969901980892,0.6756719589150413,0.7171984732850131,0.7155456399834752,0.6691923731287136,0.525113329554952,0.31979917666096674,0.1546056641980729,0.039952399956424495,-0.04992606015339626,-0.12323474581937698,-0.14620164589261495,-0.12370619926921911,-0.0891463918865454,-0.05922046702384826,-0.03641207354704831,-0.007400586738714446,0.053243720915590154,0.16065987156229433,0.2536663917525724,0.27121324402243935,0.2278474951389613,0.15703385795937555,0.0873866473565572,0.041191020921050474,0.014111431617825267,-0.004062918170907438,-0.028179749279981407,-0.07896353392126877,-0.17052112130713773,-0.14908895136311576,-0.09575470286736278,-0.055762841324760684,-0.023099289097756076,0.008375254899538507,0.048993691728346604,0.11694020840573917,0.24864242436017697,0.4577045932747716,0.6613059417105474,0.8088506896953378,0.909046457144999,0.9601184617478941,0.9538685957697005,0.890271837242384,0.7868997760961582,0.6770450755159235,0.5946367141783603,0.5574708901721163,0.5709706989166172,0.6343479934994597,0.7244759731687287,0.7809313474717363,0.7223554315201491,0.3966778498464114,-0.36824360969284026,-0.7671318221963921,-0.8711234245994478,-0.9083476383967881,-0.9273804672585292,-0.9402148794266015,-0.9497505860004548,-0.9557743986286156,-0.9585995952600708,-0.9579777554455944,-0.9523721568682941,-0.9395929278092993,-0.9185420517657478,-0.8904777180208147,-0.8587342188574041,-0.826499207232808,-0.7946980411568375,-0.7546040095732935,-0.6946972031249288,-0.6318470366745272,-0.5996019236785732,-0.5931343620864928,-0.5885878104452005,-0.5721584399045764,-0.5654097940455866,-0.5910839774833265,-0.6486039374834925,-0.7288361416650961,-0.822366808294538,-0.9007608724383651,-0.9123031690420089,-0.8224258989581552,-0.6608447479621342,-0.470674018006841,-0.2806917233600032,-0.11252402410767683,0.011300842905597883,0.08925178601912148,0.13681059427550865
