0.12237417990779842,-0.06567573410117827,-0.18592264446629356,-0.21092129497286444,-0.12574908150506883,0.04926313327242578,0.221223411399097,0.3282550188410443,0.3678749477475544,0.3427818791844515,0.2564088538493634,0.1315787479074222,-0.018622433016941106,-0.18994658074827717,-0.3896246899108949,-0.5722746957387875,-0.6620591272475612,-0.616884051817122,-0.35379295728027527,0.2009423340776983,0.6602141939835684,0.8377252280275524,0.8889714522249876,0.8892436522954846,0.8664910667577388,0.8375205246090085,0.8209458363302206,0.8226637227344492,0.8364058300399486,0.8459134298952298,0.8338074081868767,0.7847105761452589,0.6700405639521684,0.4764251959868231,0.27928590604075676,0.1585648565108588,0.11369682662497212,0.12079481132529706,0.14162720544087415,0.13077187192023637,0.05598402862343787,-0.08608785735252612,-0.25982584213175736,-0.4065202930756533,-0.4967192833860771,-0.5332727490924387,-0.5363288260479273,-0.5246049334540256,-0.521248358373877,-0.542962410645149,-0.5844718615401481,-0.6368042345061835,-0.6826449093373274,-0.7153813282404173,-0.7342363606840429,-0.7436881047004675,-0.743682041393451,-0.7420164210725093,-0.75479354748004,-0.7906529689326305,-0.8372580509110037,-0.8759781424703668,-0.8929147202327445,-0.8666418516636574,-0.772248064885902,-0.6414995261410666,-0.5182388974705591,-0.411549106907653,-0.31542252449464814,-0.23091836035172206,-0.1746926105654229,-0.16800934362151085,-0.20697836808832265,-0.2660742560164224,-0.2950003657762035,-0.2860532780577486,-0.2512110275134965,-0.20236011116635422,-0.14345774485590287,-0.06420544872779267,0.03695823407489953,0.1426500806677398,0.22683317093071168,0.2782510478034156,0.3003467492821467,0.30621736951927336,0.3052907182028235,0.3052643639139868,0.31578833123701167,0.3512353291471359,0.41724724423898235,0.45962098963276826,0.453995538726381,0.41861417948167706,0.3511496258770084,0.2221055780270056,0.0853278106340606,0.07770308177972364,0.13480060531644622,0.20273614330208792,0.2605975816264888,0.31508010233812345,0.37437817535225254,0.44531286733613534,0.504074497732867,0.5447569021650824,0.5872506937877833,0.6439256080162443,0.7044137419433423,0.7572343689169249,0.7907256917465769,0.7969316871383557,0.7815760463551799,0.7627086230246781,0.75311463749796,0.7498843501837782,0.748048708484359,0.7444722237715563,0.7390227495825366,0.7287678868576903,0.6983622844913283,0.5948193565568726,0.4036107391044164,0.22562740556787989,0.12884750083278845,0.10856098324736775,0.15001295970127027,0.24328949577546619,0.3589061723963181,0.4228453611368762,0.37985316873369934,0.21366585098753732,-0.0028103372943454634,-0.16305412177054215,-0.25102963485197133,-0.28542055084110124,-0.25760168711311665,-0.222308121746563,-0.22550979556805217,-0.2532804978060415,-0.29472231704074203,-0.34715215034960484,-0.41417638128977524,-0.5118634418155823,-0.6438586830320855,-0.7192731722584055,-0.6100863763049211,-0.44877208890491055,-0.3041185068972281,-0.14991068965004098,0.016638719450182443,0.1551168244939343,0.21335298296005256,0.16325390665966627,0.02278306549143724,-0.14117386157596648,-0.28809141588813253,-0.4068410510698035,-0.48359067682405094,-0.5077015973227447,-0.472198225636926,-0.3630917902767191,-0.2019313340734938,-0.05822255222725787,0.02877947784630388,0.03981156699300472,-0.06846199448288914,-0.371485595803794,-0.7321118743860908,-0.8956408180288428,-0.9347283752236949,-0.9231135180712882,-0.851603383830908,-0.6020776425967068,-0.1265505307835161,0.24852903821563493,0.44775607897564246,0.5672437374966638,0.651720606828957,0.6851706659904041,0.6523975870237206,0.6232410265078197,0.6466363723880674,0.7047934354304713,0.7584943829784113,0.7908822045695318,0.8040648660603911,0.803610434361,0.7913229496540884,0.7633480262543982,0.7078813077848874,0.6042908929274406,0.4544834342953253,0.3190358881916818,0.2633327732973058,0.2972256297341739,0.37294272930877537,0.4409440615676585,0.4791385716334919,0.4393095162907296,0.27459280276710374,0.0793500760953461,-0.06292237262861122,-0.15171774685877074,-0.18913856590787048,-0.17373553954719392,-0.1367613609353549,-0.17247405819778458,-0.33126005843311956,-0.49573516185043326,-0.5901295368816186,-0.6293489227890352,-0.6402393022794144,-0.6386212682367726,-0.6431328383118052,-0.6714373432843963,-0.7275588658997694,-0.7931756781402347,-0.8312140015318411,-0.8336304492719012,-0.8149369613606245,-0.7847515290065428,-0.7524346383914389,-0.7271370352991564,-0.7071509448434491,-0.6595878973599837,-0.5269159783316606,-0.3236772683901877,-0.1624926371200576,-0.11634759395802934,-0.18354254398483155,-0.3634028926334794,-0.586026960770608,-0.7320747433022231,-0.789961025083275,-0.8006057618057836,-0.7930650777702282,-0.7821529906256734,-0.7766079268299277,-0.7773897645551895,-0.777544437884078,-0.7576437804644575,-0.6957412721701682,-0.5681503390004465,-0.36284102341221486,-0.09701161173688604,0.15146706050976563,0.3350902666289424,0.46389495453038826,0.5557973345480869,0.6291628594753825,0.6933906825740647,0.7497124830956419,0.7952542796912345,0.8237336043779125,0.8311186431352365,0.8219265777537116,0.7999116982777469,0.7823154700585397,0.7798491275701923,0.7966285612573839,0.822673075280563,0.8470976459913148,0.8525598790455811,0.8346653813228568,0.8150233630587103,0.8074934974367665,0.8088367078543879,0.8048919182914143,0.783991544672828,0.7469781035538988,0.6941452583418589,0.6156718306181634,0.5032721362687692,0.4052699543717168,0.39983673065861197,0.48957729723296106,0.5948323185658755,0.647280693128493,0.6363178559366033,0.5753285663789647,0.47954640558668377,0.34418672485515583,0.13791559628902295,-0.14485626635993978,-0.3858180778358087,-0.5002296579169211,-0.5402497577096216,-0.5529749287289457,-0.5564235374685913,-0.5574603617914183,-0.5676112293372142,-0.6163285125626646,-0.7239445120746948,-0.8128450958736128,-0.6060453226597383,-0.41300429346669276,-0.3501720949106012,-0.3721636820364942,-0.44434080578680385,-0.5450444156258727,-0.6554682584715122,-0.7515224324792434,-0.8167977579406179,-0.8494974859345328,-0.8604972259958197,-0.8582245706363631,-0.8311249985590328,-0.7715117361098255,-0.7200207020555057,-0.7261898566677782,-0.7823171013455975,-0.8368598329898036,-0.8642628208559132,-0.8720554194816095,-0.8633957370469891,-0.8166961251751046,-0.6406883223440889,-0.0653155571847585,0.57166381309158,0.8081971961307031,0.8872709442483231,0.9137422144606235,0.9144716594217639,0.8929450533937713,0.8454444088749251,0.7725091310894528,0.6953991537811398,0.6327097333302883,0.590964145635798,0.5742568882034791,0.5757568405930034,0.5859092994990529,0.6022063149432979,0.6231547779090872,0.6522159369960312,0.685485943241468,0.7203792812021659,0.7662049534661434,0.8000224131999493,0.8099652174337265,0.8060213584395143,0.7941931862602457,0.7844310253214692,0.7777381256458146,0.7702269089974445,0.7720085639357339,0.7922599864754067,0.8276297852887942,0.8595246994543544,0.8247048076395596,0.6228840499626751,0.3156285010055656,0.07228938851464811,-0.07757016431752936,-0.16025188474249366,-0.19754525158333863,-0.20896925088857687,-0.20976576459229584,-0.2182454857057526,-0.25644782483051354,-0.33764461422993314,-0.43741393683623014,-0.5185992946459723,-0.5617545001352511,-0.5645361729038308,-0.53119886517896,-0.4691867663255105,-0.4028926897033007,-0.3568176185740169,-0.35759663129853736,-0.4081658367791794,-0.4745636243140433,-0.5169693318041709,-0.48022471327998073,-0.2813480567479032,0.07091141518661112,0.2822564446928375,0.2299921364344431,-0.009514321942387908,-0.2744213210920373,-0.44944911125861603,-0.5621740043153635,-0.64967058250006,-0.7136995521042838,-0.7552326534020635,-0.778166862837876,-0.7800402604485961,-0.7563589711075897,-0.7017550439780719,-0.6315912922466327,-0.5684154109435198,-0.5243684057941401,-0.47332928608561026,-0.38659162767925115,-0.2754712988387167,-0.19305211007102294,-0.16756694133688277,-0.21094470699278373,-0.30877369223137274,-0.4115732536697337,-0.4795407245574888,-0.5000838468928341,-0.4804718346643039,-0.43326949814671656,-0.35761262519700443,-0.2513683740976523,-0.11559995761487599,0.03723742050013295,0.2005645005282927,0.35590957238935467,0.4719109015852595,0.5349815425411727,0.5613632442525588,0.5568016805807638,0.526720219496087,0.54936470270317,0.6411357841666816,0.7555462103939209,0.8368452848157674,0.8816558037993396,0.9081806136208086,0.9237806891021333,0.9261923675076222,0.9164101765793483,0.9003039014742813,0.8818171976900954,0.8534520738129816,0.7913155890120169,0.6954548257950418,0.6065400762803449,0.5368278123293796,0.4792507310081416,0.42512887477150885,0.36263392291817076,0.29128397483006996,0.22274479441438513,0.17984185099395486,0.19231774584668224,0.2645029264237799,0.34469100730715,0.34472622556218363,0.1983774258776097,-0.08544623919543906,-0.40089258992917837,-0.6377341056882333,-0.772422348064897,-0.8431480689364265,-0.8707729204656025,-0.8345138355003371,-0.690689963197994,-0.4918998911351505,-0.3509821939158053,-0.29634434779505764,-0.313169141628679,-0.3866558485203061,-0.5267478318632736,-0.7348977556739926,-0.8666868293792518,-0.8482068896943847,-0.8022007181988243,-0.7911682231616703,-0.7977340319949027,-0.764237640008041,-0.6696719197019674,-0.5858753722490083,-0.5831392858903064,-0.6712461083954446,-0.7984191206698249,-0.8801032084058938,-0.8979893405183245,-0.8488408388298834,-0.7292010390598505,-0.5677355175577614,-0.40711399318259495,-0.24513758692394938,-0.05759826667125858,0.15602814434316517,0.35601474967660457,0.49523088422599565,0.5374117663186466,0.4998546141713631,0.45112891287584594,0.43140356093111887,0.45310073267379114,0.5154931152166673,0.6013732497766124,0.6716062422319633,0.704898926449185,0.6999627668027425,0.6911977027547359,0.7127544317848612,0.7582005363767341,0.8034367964671288,0.8357464286273427,0.8525053408334773,0.8581725548696273,0.8522071812583809,0.8301370752686749,0.7823137292417123,0.7106430596065559,0.6288349578315623,0.5520385408079473,0.49475418230092494,0.4735317628606693,0.494589052397768,0.5525160136222373,0.6313001619167548,0.7079867311290475,0.7619101154335391,0.7817422084090914,0.7557161817870962,0.6567197972355677,0.4601220269577223,0.23246065815481365,0.05842624022964617,-0.03135389254712051,-0.053382555920739976,-0.026433714126484535,0.017193387113052485,0.03842172318920464,0.019504909880612913,-0.032786258178152804,-0.10599221114959971,-0.1794416749407593,-0.23719308941692713,-0.27277040157790616,-0.287609504103935,-0.28075098824689293,-0.27736300000076997,-0.32030676612104525,-0.41976947467335013,-0.5017092041914003,-0.5252470187276124,-0.5225275805077673,-0.5147549293862411,-0.5158587023684633,-0.5329507183578117,-0.564650071384616,-0.6090178542303826,-0.6676418560063778,-0.7380658874696308,-0.8031123533353196,-0.8410447245587522,-0.850857496555795,-0.8399348512708485,-0.8148503388631914,-0.7813153387267737,-0.7488802352626291,-0.7129327405848643,-0.6757750467860587,-0.6466126212959988,-0.6468571509726699,-0.6844068279782856,-0.7440645128430246,-0.7930180090727413,-0.8163219751305384,-0.8129886189247179,-0.7864790967825688,-0.7447101160219551,-0.6787392926270834,-0.5541602968500219,-0.3062438363558633,0.04867758286330033,0.32293564744801323,0.4637925337256449,0.5286851278331627,0.554218166079484,0.5640650114558478,0.5748897421661517,0.6009484924590216,0.6370063029808661,0.6698211879686101,0.6910802961354274,0.7004518967351332,0.7013042599397269,0.6920695444758177,0.6737603282972777,0.6541071542413552,0.6589319448103533,0.6898310100675996,0.7303811188328232,0.7582412923912374,0.7630237151513435,0.7356250232110699,0.6974346491847168,0.6694059106451592,0.6582225343479163,0.6779411523127302,0.7290943412312774,0.7847344636252621,0.8168533262668131,0.8133186288395039,0.7634805609150795,0.6690744299854718,0.5515501048115873,0.42991930406823475,0.3079439506450844,0.17975417683075862,0.057315361406009624,-0.0413596462475847,-0.10822251993596302,-0.13317742355014275,-0.12259393926560284,-0.06036987449915532,0.0951566152541904,0.366341402983823,0.6078315953624738,0.692362468648546,0.6378316307249252,0.3998197522050288,-0.017598805259709038,-0.38351575320012243,-0.6050848140478966,-0.7352568212323927,-0.8112183638228965,-0.8458520602526709,-0.8538704591570544,-0.8565809536883839,-0.8679075905041291,-0.8874018647012468,-0.8905103146256781,-0.8040291451599003,-0.5647465074424229,-0.3473279817693201,-0.2840155911712747,-0.3750001823745267,-0.5213435503601993,-0.5865966552045339,-0.5409677688748262,-0.4511426864924769,-0.39516976708990736,-0.41620984572196285,-0.5050774513389676,-0.6115539997899218,-0.6949133367832837,-0.7607081867348969,-0.8144988363064714,-0.8487078411048636,-0.8552638997554906,-0.8371426923755759,-0.8150388996228966,-0.8100593214806343,-0.8165979017969499,-0.8065367044219807,-0.7754957563049126,-0.7198746511946179,-0.5451626277025063,0.0889424975339821,0.7313791992405925,0.8985272153258299,0.9475138017259371,0.9686232094879647,0.9795384540467983,0.9847877970944434,0.9862143752120841,0.9849626739884382,0.9812349464026621,0.9709794525870917,0.9344641433838058,0.8072301882845795,0.5056255666200126,0.21839930056347095,0.16857015380720633,0.2944849448881156,0.47295113658852883,0.6383728824259489,0.779453714510358,0.8904579413413359,0.9417054960537224,0.9197988144544124,0.8563550146942707,0.7888100203900663,0.7214290283456416,0.6166557917479444,0.46137861348850195,0.31971182228800543,0.24171961399955869,0.2148696812709929,0.207368982315704,0.193068307374805,0.15141421485256004,0.06264567353782542,-0.08646138595068524,-0.26999517545329316,-0.4445903453828995,-0.582516552263779,-0.6782496609138841,-0.7374304381103733,-0.7725834137204703,-0.791845093949562,-0.8030553771828651,-0.8138780435425499,-0.8332131468133003,-0.8627877369888394,-0.8923335180443995,-0.9141696253705723,-0.9232262575252723,-0.9180054865639167,-0.8967319856632406,-0.8700179900867681,-0.8556457673304458,-0.8633480129116423,-0.8888510372628707,-0.9163319538034084,-0.9069972965862173,-0.8328637426907957,-0.7285732083529363,-0.6651978761076516,-0.6580134788136848,-0.679175667824439,-0.6903749796562549,-0.6797116509736324,-0.6516654729723268,-0.6106829958736475,-0.5583885837146519,-0.514052984846137,-0.5038819457715519,-0.5270463333950426,-0.5691044795007292,-0.6165444163155361,-0.6544238136696248,-0.6654606206745031,-0.643800181967309,-0.5764108467464905,-0.42539626819467224,-0.14009736564057382,0.24325096923383546,0.558332451944154,0.7327841281442435,0.810100815401009,0.8392667661390957,0.8475022702969598,0.8468859184665551,0.8411406718151945,0.8309709081834196,0.8170390880604462,0.8034733691185929,0.797712594889797,0.816771428551247,0.8640905632172828,0.9243692439826899,0.9548969191929525,0.9538325446982212,0.9506284472198938,0.9430214702480303,0.9332104549391652,0.9329152470120107,0.9440395842383209,0.9543490983415932,0.9453353137059147,0.8919327417050965,0.7758559123132749,0.6121108049448011,0.4483032207893343,0.32994225683520845,0.2685463824843807,0.25358577212621114,0.27063074560212896,0.2869996470931232,0.28019617318045675,0.24782690358714965,0.20367501967367937,0.15432527086702982,0.1098509616951764,0.0638853016259555,-0.015476828577803789,-0.14596506607316215,-0.3063673748647862,-0.45218895886012633,-0.5681244089092989,-0.6420046678351294,-0.6884069626788786,-0.73434768357541,-0.7867600486894546,-0.8336386985993529,-0.8744811463583353,-0.9078094631153172,-0.9320244699583102,-0.9443631794666114,-0.9449996024450256,-0.9371390154143732,-0.9254030352827237,-0.9093533607452179,-0.8718777697293478,-0.780963753318939,-0.622701927831388,-0.4436189515876392,-0.3295774680798759,-0.28687025124601434,-0.2952061415323227,-0.35434254158006334,-0.47124064873120686,-0.6028402069116415,-0.6946973453668808,-0.7341012515672083,-0.7357150603771744,-0.7014304912591082,-0.6273383371337617,-0.508245591564837,-0.3565176319716755,-0.20688514989229237,-0.08202391780660548,0.015617722204688194,0.09417802849965055,0.16055353782160534,0.22903615466518484,0.2901851109011998,0.2579655170926421,0.1842387703005837,0.15818681279265617,0.1620480651358739,0.1758718034296327,0.19363853743654247,0.2194048595900645,0.2653511131639318,0.3579645223005819,0.5092746509265498,0.6715569381107803,0.7774973839023608,0.8320745811072926,0.8599149607031182,0.8733626815876684,0.8739030820989543,0.8574148362510705,0.822989224239687,0.7803499484468887,0.744817414498583,0.7300173912797234,0.7354837710996315,0.7517759142957985,0.7627972752377216,0.7498928672998553,0.6959232712235438,0.5928448787804533,0.47110054926181416,0.36456833167160924,0.27802759115180936,0.20109811453243964,0.1267541629237043,0.06693955987026128,0.02778958066024026,-0.005089561218646715,-0.05215643135072038,-0.13103116151247407,-0.23468719940349622,-0.34743914754668265,-0.4460644403187184,-0.50811130506994,-0.5348393143791744,-0.5454142988492376,-0.5630600300409138,-0.5946196720460755,-0.6408361453808267,-0.6981909668205122,-0.7489034458286565,-0.7580798125490756,-0.7135043314431623,-0.6687502727810646,-0.6650294293681922,-0.686050586434373,-0.7137251180820406,-0.7395193320044134,-0.7613551112949168,-0.7821810979356261,-0.8047430172531326,-0.8310897390758332,-0.8496637881701834,-0.8484087417980631,-0.8221533955281485,-0.7682570234836668,-0.6889923677311345,-0.5998182248443901,-0.5316307161150635,-0.5023362809050902,-0.5053522934833335,-0.5196996565843388,-0.5250173710196498,-0.5069059220607005,-0.46193854541403634,-0.4056882104729252,-0.3529493698591898,-0.31503724161214286,-0.27803134149608133,-0.2232333065750377,-0.13821352056302988,-0.02616716861781342,0.10228906747346429,0.23563099514489924,0.3685737120062981,0.49187615430977577,0.6031178497718567,0.6915049594949891,0.7403835213531621,0.751329179336779,0.7602830001524646,0.8135822404965612,0.8519674580662798,0.8181554059347711,0.7849542737139787,0.7763342233377835,0.7860972013134581,0.8082715759166632,0.8385337621694969,0.8666150062135538,0.8819448817735176,0.8831013249913479,0.8748209929218934,0.8521565412815831,0.8069977721765479,0.7352919807965295,0.6517681328445643,0.5929090024917447,0.5808515595466441,0.5972745267281413,0.5999334841018563,0.5588588641488204,0.47146581848121755,0.34862485824310613,0.22154131487599005,0.12018422021941985,0.06929855394899859,0.07792947316750148,0.14440914874271532,0.23726579681996726,0.3040166723267055,0.2923128040518554,0.19743254964550844,0.04270366080840304,-0.12640097518722734,-0.2739605111613995,-0.38640947592588887,-0.4720129954706524,-0.5430565641682965,-0.6000128238113074,-0.6366012660629263,-0.6456503649848978,-0.6424695189102269,-0.656739909244447,-0.6976210334270679,-0.7447329929985756,-0.7811987927904485,-0.7983934680336281,-0.7888616503739352,-0.7478688876541192,-0.6840673026875785,-0.6338713242793472,-0.632361207915279,-0.6789934489065376,-0.7449251657657917,-0.8032416491379671,-0.837064019387457,-0.831115549092217,-0.7870360024327598,-0.7312430333538282,-0.6968878481859314,-0.6941881740322999,-0.7035393576607198,-0.6931879433813387,-0.6409573441348825,-0.563428127365571,-0.4783883598732206,-0.3834875681144858,-0.26369594160558957,-0.11377522416591278,0.033816145589280144,0.14952038814587626,0.2260765406833302,0.2641778330371345,0.2679711001452436,0.24864798879854935,0.22435412738860527,0.2206129242487278,0.2645324617153051,0.39648073720476396,0.6352156913886786,0.8530021792075992,0.9265278247144254,0.9368575759434312,0.9384748989205012,0.9420122665553186,0.9484066014603532,0.953267073825465,0.9536356599019306,0.9485279705776211,0.9392510129320217,0.921670382841477,0.8871857868110364,0.8210761349476745,0.7129993610968506,0.5745417517932799,0.42062974935944414,0.22608000426213587,-0.01700723599856795,-0.2640826746239543,-0.4762150613285261,-0.6360319039300479,-0.7357492751405811,-0.7804744595660928,-0.7716828750289317,-0.6905821647149757,-0.45012963227376096,0.10092553357671288,0.6252357773133419,0.8301624610096656,0.8941835913302663,0.9099317426526418,0.9015884685640144,0.8693903225141073,0.7996811128013384,0.6630424397177728,0.4242413054755159,0.07256956894922369,-0.3420067584816835,-0.6487371716801855,-0.7658910232122959,-0.798169922574341,-0.8228006306760546,-0.847187311552734,-0.8569201337222818,-0.853795058733847,-0.8490016166686143,-0.8503580167830624,-0.858665812293621,-0.8741352891725537,-0.8925322595942857,-0.9088623220674026,-0.9176804221978428,-0.9098774832938992,-0.884023927672814,-0.8476708358963602,-0.809574761821296,-0.7690624187045983,-0.7140061981932522,-0.6273471492821441,-0.5294900695939,-0.45885879819265507,-0.4399494265681601,-0.46364770583341813,-0.4915856897862721,-0.48095890752775966,-0.394250966418621,-0.2108364036952171,0.02813054875973097,0.24939198539475393,0.4180637596957635,0.5319568255534993,0.5963386490239448,0.617065549336573,0.606416115357088,0.5694046273606372,0.5094609751067594,0.4308837779671307,0.3410026065560133,0.23989101516785039,0.10620315693067842,-0.10043393043066293,-0.3466142329192382,-0.4493530163641079,-0.3849614157869768,-0.241442935381489,-0.048661115626531824,0.2283987868806021,0.5738166143536917,0.8046181153216356,0.8787597579404464,0.8999015559414381,0.9116660910261664,0.9191063267346326,0.9156733680975931,0.8864531699916207,0.7920818409400839,0.6214286394287774,0.48886670420891937,0.466426052541875,0.49956686155964225,0.5238544236158935,0.5159418999902341,0.4488634834724023,0.312366843822268,0.14965017099120523,0.009386994124317458,-0.0996975346972263,-0.1909453697436409,-0.2780512401815592,-0.3710131734548482,-0.4567887468157987,-0.5238050676336498,-0.5683836252295541,-0.5908575442317561,-0.6000691563892242,-0.6037857488652166,-0.60487475478233,-0.5999807509110818,-0.5919250493701325,-0.5883807634575281,-0.5963733199714868,-0.6226789112875452,-0.5383249324417256,-0.4189534842696877,-0.42793866603964265,-0.47251162186531975,-0.4998356561376303,-0.49236197399324505,-0.4466721615194096,-0.3514374491463512,-0.20501462852649086,-0.051085539441381465,0.048618632578251206,0.06769459638156254,0.0031676924655322366,-0.1429348945102944,-0.34170184870337444,-0.5181822372309187,-0.6227430406122842,-0.6584106870089387,-0.6456819843794697,-0.6016038023007058,-0.5366301040361227,-0.459352382007766,-0.37624297498048026,-0.296979167676615,-0.24866876238614122,-0.2315006831495233,-0.21162556261020352,-0.15823712106142948,-0.09655361524098582,-0.0424731809778673,0.013808908785296848,0.09067033650951092,0.19611861964353539,0.31669496261377944,0.43663377008820625,0.5365147901146983,0.6114645039086734,0.6730275610429652,0.7347906993148978,0.7994613785294854,0.8360594779116959,0.8490505428394799,0.8586405137718361,0.8715648351487658,0.8816506280782475,0.8840009128955755,0.8757075602645908,0.8640487092339278,0.8522053996525311,0.8315009799612328,0.7863691843188828,0.7180587727107214,0.6479250506971447,0.5942168389665936,0.5527809089514591,0.5152602372774511,0.475789610612716,0.44063031523708485,0.42791780204085555,0.4380335579948861,0.4435996950161943,0.41462115767285485,0.3696034393613455,0.34141877770880674,0.33344416166913804,0.3101734452924213,0.22432596720249529,0.05218605713323739,-0.1492131160858778,-0.3146051399636702,-0.43440562529121124,-0.49899989659727695,-0.5090235364915656,-0.49594986572565786,-0.5027524618653937,-0.5487898772190135,-0.6063205456022883,-0.6592162331699418,-0.7013690477815636,-0.7245611741704112,-0.731379419229506,-0.7347708114958216,-0.7427146343850655,-0.7615032477351729,-0.792242819851686,-0.8231799857034681,-0.832172444171305,-0.8055402935367577,-0.7584455510068293,-0.7005667214105628,-0.6270593509029971,-0.5289008326851221,-0.42620211715214484,-0.36530366165579126,-0.3969114300166715,-0.5211369327032581,-0.6535136330676911,-0.7328977382813845,-0.7549536613288277,-0.7368929809456103,-0.6958525589906149,-0.6365730041170843,-0.5440791427729273,-0.4071433648808887,-0.2569578653740628,-0.12687896035036772,-0.01941075169101068,0.07894915686830689,0.1792093509801354,0.295548498290956,0.4187185364594578,0.5365612277238153,0.6338600402281955,0.7042523286944786,0.7476702144884879,0.7685596014804315,0.7759751405808267,0.7769499248714103,0.7655428587925894,0.7418102705761281,0.7202880077070898,0.7198166217189091,0.7328722781394965,0.7519490463416246,0.7673789846245305,0.7749665197768901,0.7732480115801368,0.7640213147635826,0.7511361018432725,0.7367989021200712,0.7182774426999562,0.6875215740485786,0.6319914772035204,0.5359366068144005,0.4013803263828666,0.2767903171830059,0.21400717801486924,0.2156826127582509,0.24732743922022463,0.26985365373632064,0.25116182219044814,0.19677013671093238,0.1414731865629379,0.11030823416212499,0.11112117275589958,0.12095571092727854,0.10630460789311316,0.03669811382086755,-0.10271181634445771,-0.3150311844828429,-0.5411411478472951,-0.6927829371860925,-0.7615654548123332,-0.7912656745394446,-0.8108509554204198,-0.8293324083132311,-0.8455836543571089,-0.8489539381530423,-0.826851120409341,-0.7597595411854121,-0.6577547606763826,-0.598685725776589,-0.6256955835829819,-0.6857740756531142,-0.7432489975175097,-0.7775975827684054,-0.7906131573517627,-0.7906915683107165,-0.7813006087085043,-0.7564967574763262,-0.6821122707719067,-0.5576816382990577,-0.4737312096718909,-0.4975348001541863,-0.6240546715980879,-0.7570701866236654,-0.8260306434018361,-0.8555542894801555,-0.85857363593032,-0.8098064312533116,-0.6912659414335822,-0.5534442456684487,-0.4721104173204772,-0.4725373008404312,-0.539755229750744,-0.5937115881170233,-0.5568496274585155,-0.4312505868912613,-0.27745588307318875,-0.17762998377829473,-0.15223410609164215,-0.19339165453570073,-0.28643442616701226,-0.411119684642487,-0.5588558657590388,-0.7319687021104312,-0.8660410001474176,-0.918289521985798,-0.9231308646687476,-0.9104807764369705,-0.8963557019174314,-0.8864278580615453,-0.8549500811922786,-0.627694639128528,0.6255662496917068,0.9536333908941277,0.9867358538981503,0.9928136789857418,0.9934283967098408,0.9928636680296031,0.9924173873435865,0.9919332015718373,0.9908732998713903,0.9866136934329562,0.9707293915859241,0.9210516417970712,0.8163945998240149,0.6855680564827931,0.5899528011034513,0.5445778302249539,0.5167541327201765,0.46568210728541726,0.3787647786915337,0.2723476373829075,0.172086594666989,0.0905864023622549,0.030711731947752712,-0.008625511976362828,-0.013405758428567833,0.011150173023963594,0.05210194365241969,0.09969895864450402,0.15227153376008537,0.2088858828958703,0.2530014579050271,0.26202346922115033,0.2158580465461819,0.10357246955765335,-0.07838540720421613,-0.3428372582150057,-0.6214131312099738,-0.7671622777191299,-0.8008124774604214,-0.8064525304396377,-0.816386391349871,-0.8313906019448309,-0.8443241394313878,-0.843266958069522,-0.8148210019928971,-0.753588478145221,-0.6918593691634437,-0.6642635496114655,-0.6878985191523083,-0.7610401718942562,-0.8522188001144294,-0.9181021225295187,-0.9476024991035492,-0.9555047242588836,-0.9554535547880969,-0.9514096294000458,-0.944255138119084,-0.9313249175961409,-0.9060063508097218,-0.8602767656109335,-0.7735817883298278,-0.6113016198142863,-0.3506600936791763,-0.04739039271825354,0.22049932826837673,0.42875357575258444,0.5762510394648096,0.6464596323188246,0.6258733250142903,0.5611218268940711,0.5013632276343554,0.46129268377874233,0.42868172244818054,0.3952335550993614,0.3663045636535955,0.3559415199852761,0.3881867057880668,0.4800842404184953,0.6208907585150641,0.761574432523034,0.8517392186462781,0.8852409316348937,0.8853017128117284,0.8707288909408529,0.8533553306174182,0.8453757957372557,0.8509967387642631,0.8656712298204293,0.874594395962072,0.8446402291523275,0.695202600840601,0.3310789961568385,-0.04207560165542158,-0.1621629316818567,-0.0548690492702637,0.18464634131491892,0.43018055810234657,0.5824048403877523,0.6358485679217211,0.6401884342198542,0.6413492810371388,0.6500683563516563,0.6477621166098823,0.6165271673822086,0.5399975476350186,0.41458136824111225,0.22115103279575762,-0.034262259324371734,-0.30115754474615103,-0.5237622900536492,-0.6726440874593823,-0.7623882465034272,-0.8151291035386607,-0.8442910580644162,-0.8533275722365307,-0.8474516312396552,-0.8427332314383008,-0.8511824480128319,-0.8710619263380559,-0.8898768544069665,-0.9009560989774799,-0.8969722816062088,-0.8430209918590698,-0.6299482988408054,-0.3053535075321221,-0.0692570520107943,0.04961211490432361,0.09455449893581344,0.0936114711940364,0.060618147963940695,-0.023716209887987116,-0.15205343567029198,-0.2633596330166138,-0.324169903344622,-0.35792244083142466,-0.3656117038871866,-0.32617930947857754,-0.24582479035833882,-0.15987840169934286,-0.09144743788519452,-0.04490668887889184,-0.00017597048385432844,0.07169618920666299,0.18062064935824398,0.3079523012725195,0.44266378665602746,0.5644687317475751,0.6604005739528139,0.729167661113965,0.7711591007668249,0.7931705664348917,0.8085456598766939,0.8213111722136653,0.8281901888178568,0.8297582701339346,0.8317531690971702,0.846505639819583,0.8684420799251997,0.87040727671945,0.8169605178318915,0.7138200224916277,0.62693475283366,0.6108204459110923,0.6661441194258563,0.740314280413378,0.7901872805529493,0.816063294546521,0.8222681371062509,0.7885509538657502,0.6762575796725963,0.4701592070014516,0.2373984668587186,0.06140951631572091,-0.038005479196767694,-0.0708595466931612,-0.04780079149655906,0.00589788564989024,0.042062981423412325,0.033743814442934235,-0.010467792213431871,-0.07445041754684444,-0.15194312751593098,-0.24129559682365448,-0.33213021187980246,-0.4180501352575496,-0.49514390091019433,-0.5647425562277641,-0.6262215619510031,-0.6675221529349943,-0.672076931965017,-0.6323356310535903,-0.5705695983633576,-0.5354173695857044,-0.5708628241828673,-0.6749293133410743,-0.7939583706468588,-0.8767719451186795,-0.9149478855827524,-0.9253613569818865,-0.9164075392026871,-0.8913293517031009,-0.8557036848408416,-0.8104847521411159,-0.7427366258176923,-0.6294390835023267,-0.46813351007504667,-0.32037787745350027,-0.2332930921343999,-0.224244848030931,-0.30036189082477766,-0.44314541467621343,-0.5913610041344239,-0.6966446159830523,-0.7603261499136409,-0.799108104210927,-0.8228765775158272,-0.8214060388654434,-0.77213651816311,-0.6294556194128765,-0.3356155925251496,0.04812300668512134,0.3351344221722348,0.4627924021651852,0.4470403789114646,0.30731278041480387,0.10066562283634607,-0.09595070146886882,-0.27904051686404596,-0.474041557256298,-0.6627027646138631,-0.7945817288049595,-0.8688687777639528,-0.9084695561531555,-0.9269931898873705,-0.917748407077027,-0.8096849548332381,0.00905551366391856,0.8082967602596273,0.9294244963561266,0.9609935915775514,0.9742262208966063,0.9804045015351348,0.9826025443433231,0.9814805526309024,0.9761678871102355,0.9637061263084737,0.9391077244140204,0.9032283945892048,0.8685221322592999,0.8390908582822758,0.7995201685519482,0.7413993883856766,0.6882067763345219,0.6602263136397417,0.6436957615337742,0.6157732039560924,0.5592872267044445,0.46955585353872276,0.34772171683389674,0.19654476265966547,0.03133825315711207,-0.1253047536144393,-0.2681464802376613,-0.3997152320898496,-0.5075896452442331,-0.5778658472993227,-0.6075492522888876,-0.604031289303005,-0.5822524605212663,-0.5460981145751712,-0.5025684468020074,-0.4774680202246437,-0.4864924522283824,-0.5251477716565206,-0.5888110000951663,-0.6707490539394969,-0.7559774641350643,-0.8176879623710072,-0.852277360674434,-0.8771138369317695,-0.8983307068408589,-0.9067942043410793,-0.8843474767006443,-0.8270373425577823,-0.7602562409738922,-0.7143521983877873,-0.6916219549832755,-0.6851214258391761,-0.6879596030663677,-0.6915843662491491,-0.6938923977424175,-0.6985629506020373,-0.7122902622022882,-0.7455159110436551,-0.7917823948068473,-0.7924328977082205,-0.6704771365349212,-0.4802565446871351,-0.3200861157416925,-0.222991031980272,-0.18164756029862258,-0.1770545562293187,-0.1825955296339163,-0.1681687109569312,-0.11398651822092343,-0.011798861796141265,0.12257927326488743,0.27241801641630414,0.42879462554094155,0.5625769737439952,0.6502386893636005,0.7014641509554755,0.7240727673264177,0.7249697816421092,0.7169034612965741,0.7150331825922421,0.7312633484749143,0.7707805616193437,0.8272160219959204,0.8843178196833453,0.9075712375815165,0.877185324572703,0.8339262330940003,0.8217135836248087,0.8386121959810078,0.8633668196262674,0.8885682780328895,0.9143394467351826,0.935310743969272,0.9452594354946428,0.9330804492702687,0.8757236073038475,0.7287703726274029,0.4693026801927455,0.18543036034247087,-0.015749367236733598,-0.10663705786747715,-0.10524455187356133,-0.06242139805979769,-0.034762206280213565,-0.04794454474049539,-0.09736425940923446,-0.16223705345983463,-0.2218325389884442,-0.2708028997451087,-0.3185393936913092,-0.3711626955625409,-0.4268015275990346,-0.47531834283226415,-0.5084362790632585,-0.5206011213620683,-0.5085955990176297,-0.4851168042404562,-0.46910866062309114,-0.4854258451585243,-0.5481912376015793,-0.6515293368828821,-0.7511211281610998,-0.8211105067080366,-0.8569963004837912,-0.8724004307141436,-0.8736310130183321,-0.8573526671005182,-0.8046772713463314,-0.7075227430218733,-0.573348931901769,-0.42068153078202764,-0.28770745275638104,-0.23287845452102887,-0.3031965072999123,-0.49413336684155296,-0.6881653234260074,-0.7954753232370396,-0.835559808928225,-0.835333901750672,-0.809133828007679,-0.7632027589552387,-0.6945802351644798,-0.6026566543081345,-0.4799072226679036,-0.3161081180185428,-0.1196178092055247,0.0812722888208179,0.2546491235843974,0.400406288404029,0.5273435324228847,0.6402314579114262,0.7298755249329815,0.7925664270386342,0.8336618067864354,0.85699273325204,0.8702264956772319,0.8763262418045228,0.8741555127407437,0.8655173877692475,0.854065934850498,0.8387586786495982,0.8176858590760859,0.8052083487019186,0.8202803900794639,0.8546893520928202,0.8864049394626596,0.9090397937943028,0.9208191750297647,0.9067021512626356,0.8491400369836338,0.7536828771312764,0.6439420840172814,0.526386104613958,0.3918152383407786,0.23093740800711202,0.053053689472011945,-0.10038620073976505,-0.18881312647185264,-0.20507656148018394,-0.16533035418246336,-0.09771741117665114,-0.03142653438518762,0.0005839951136213495,-0.01587858092321858,-0.06613089634448735,-0.12021404291679931,-0.15120169728733468,-0.1502785326876792,-0.13769864902141074,-0.16018134368892806,-0.2625206895766746,-0.4174982624162465,-0.5438017395513619,-0.6157078852124758,-0.6507828480149979,-0.6690257260618026,-0.6855481623644403,-0.7005058961108754,-0.7103691018956872,-0.7160656853089875,-0.7281008162893983,-0.7624071764815248,-0.8043118753554547,-0.7967620622297374,-0.7043554148108468,-0.5717140905791663,-0.43201836774468594,-0.30293532236220966,-0.19452885360205618,-0.1116637379480573,-0.06345753755015121,-0.0541497478579126,-0.08642029724609794,-0.16991211017236907,-0.32663158550088506,-0.5427732256361765,-0.7112701440531304,-0.7845358599773314,-0.8130144918950336,-0.8281178183182835,-0.8343907895572856,-0.8271199294904351,-0.8008337923939809,-0.758775172049933,-0.7059500820692178,-0.6231766621243966,-0.4340201439593555,-0.10953613748751646,0.17090339128552381,0.346178292687355,0.46048694898125836,0.5515507576121271,0.6303284378652168,0.6952577799057291,0.7367883118917167,0.75430540162052,0.7450771295318216,0.6781615547704138,0.4929714618449818,0.26861790858508916,0.2879296775011555,0.5464675063354149,0.7631117394047199,0.8667021074958431,0.9094996405547162,0.9269070988366904,0.9299767621271233,0.9218956524430251,0.9047867203817688,0.8863685154727771,0.873780003695189,0.871483360869058,0.8749290359051811,0.8768960698549717,0.8656728373647,0.8229776152761166,0.7500343214107232,0.663194138638291,0.5704822365730393,0.46034009770103596,0.2764131395741504,-0.03184715865783451,-0.36346651229026655,-0.55407244546219,-0.6270313517661039,-0.6511594366755408,-0.6574702870686815,-0.6505237997501198,-0.6344019328260959,-0.6162087731497963,-0.6049721396701988,-0.5937624503852196,-0.5659761894354448,-0.5048822942149904,-0.4256344782940391,-0.3668544333064712,-0.3522448843581693,-0.36800570382896736,-0.4041550887832272,-0.46118492235948005,-0.5363263308377856,-0.6170861408197058,-0.696008108301274,-0.7665664383673676,-0.8274601926278701,-0.862218979553698,-0.8244550358588851,-0.6981768902877519,-0.5826091775420642,-0.5278790941933338,-0.5004140656703218,-0.465871449465595,-0.4240211277182495,-0.40451515686907813,-0.43660440678467044,-0.5187203996155845,-0.6192698905879114,-0.6976127391484866,-0.743397270243846,-0.7607448654084827,-0.7368469888580332,-0.6483878430645551,-0.5142059682578902,-0.4185005094325522,-0.4360819413547044,-0.5664636614308076,-0.7226222341719689,-0.8235295256636364,-0.8670714173000145,-0.8775522606907364,-0.8660016908561592,-0.8364499615991778,-0.781578664696915,-0.6594654293520745,-0.32024335411066873,0.3730864747919311,0.8023544620546206,0.922800550217467,0.9581037683588515,0.9703610029053662,0.9754250182725837,0.9779599219436124,0.9768262475965203,0.9650860789821314,0.9317082123645678,0.8726560354623044,0.7999069676009487,0.7322013666022033,0.6758295322374602,0.6239904280526607,0.5747256197564277,0.5419615816128571,0.5342820897598402,0.5358794558644967,0.5182211007086391,0.4628127772778401,0.36687595120692573,0.2615534986501226,0.20077905806477672,0.21143900401490323,0.26747524275513496,0.3240242674804686,0.32440448326256766,0.2306028259428968,0.0601700180578277,-0.1034556714666855,-0.23015558169225,-0.3224695454065618,-0.3887292774718834,-0.4369416883248099,-0.4786725979064246,-0.5167815482962742,-0.5484698543153965,-0.5737346291216125,-0.6044911670279043,-0.6576731128059795,-0.7354138611202913,-0.8210991647940105,-0.8832140997475297,-0.9007318952365525,-0.8692696430945401,-0.8171557870880775,-0.7856828423166032,-0.7822771818540717,-0.7938552333424674,-0.8093780741281286,-0.8238787606694946,-0.8248389814508861,-0.7893116812845646,-0.6990227177753086,-0.5708148806252245,-0.4629137849090618,-0.41132429304081713,-0.4184057698213143,-0.4767287734993052,-0.5652193171144789,-0.6525990011521556,-0.7110500021643629,-0.7172631522862051,-0.6769658654588232,-0.6253566148898461,-0.5922920005385007,-0.5850539491252089,-0.5963884387852698,-0.6074522113873676,-0.5715698869049685,-0.4427567918441101,-0.27002555466028366,-0.15947101630893132,-0.12535526856700008,-0.1292719398063875,-0.13417123918719803,-0.11178508716881544,-0.034723522366589064,0.13955361731697155,0.4092776898413209,0.6588880525008805,0.8035178120345321,0.8681227733098213,0.8897255104316596,0.8944673162153156,0.8950647323150387,0.8960026265562017,0.8964430907732808,0.8966620083842586,0.8987560956820569,0.9079933581480174,0.9253773006974254,0.9442655255234504,0.9577526219925282,0.9660403544423517,0.9706013021078215,0.9722830824564588,0.9699627305790067,0.9584323134818251,0.9263981286537689,0.8583891805901269,0.7405864095326901,0.5841933552861137,0.44697936516448245,0.38754996684558046,0.3988385915348172,0.412563898735423,0.3881676129874143,0.31127669337362657,0.1968897668842356,0.07821064655911837,-0.007243702129849524,-0.059585829210279606,-0.10145071477790456,-0.17277285695883787,-0.29671577349993467,-0.443059858707074,-0.5695834128493211,-0.6539112246636505,-0.7062936622760437,-0.7540391375944915,-0.8124318612975223,-0.8678142612669713,-0.892606814977056,-0.9017997294984561,-0.9137757711465029,-0.9120435913184852,-0.8998161802637578,-0.885976390271168,-0.8722994581137308,-0.8612837252112391,-0.8550660900042807,-0.8558235363192375,-0.8645310413610139,-0.874121832458316,-0.8796760956232961,-0.8821914776837704,-0.8867133196518323,-0.8936102297572251,-0.897700413158374,-0.8944265782865374,-0.8788081197759746,-0.8450329047987732,-0.793018661757881,-0.7398808139139252,-0.7089150624519448,-0.6959537492707262,-0.6764659114062981,-0.6315346569849977,-0.5556821525244651,-0.44737827865086427,-0.32496828977285863,-0.2103695970173763,-0.08446169365509673,0.08649818427461484,0.29061531569542015,0.4668840408765934,0.5967306912792693,0.6955790799289591,0.7785943779777924,0.8525665298709236,0.9081890220715507,0.9381763288049405,0.9466056856759708,0.9391015259925005,0.9222540457085565,0.9035212992287018,0.8910929821069404,0.8828429427594378,0.8736001652496989,0.8559115758503989,0.8303958528427277,0.8008872858580568,0.7786219255201097,0.7727602577463638,0.7767644395383583,0.7761319466005402,0.7506537598006856,0.668245757100902,0.4932504910250855,0.2546004112504659,0.05304992984737038,-0.053875976797177684,-0.07233086028269738,-0.026914496998301465,0.05697217355090684,0.14488920380525186,0.2197019015512175,0.2996432004799937,0.37799398610272944,0.42468648520121366,0.4182469609597285,0.3479079851342587,0.23333422996008218,0.10579578471980719,-0.019484606387796363,-0.13802644327567423,-0.2417081624857232,-0.32775555212039953,-0.40461615072582674,-0.47620922005988636,-0.547672135062973,-0.6320247780385833,-0.734305866101604,-0.8363562340404829,-0.8940213185717316,-0.892617083514921,-0.8581276418996895,-0.8265196650919214,-0.8074878982795016,-0.790043668124869,-0.7538904844367061,-0.6884242744612835,-0.5903981613178544,-0.46068725821748124,-0.2922197578395697,-0.1191469586938078,-0.016279251928226626,-0.003273121081007597,-0.06655995105929897,-0.16754111540544156,-0.25726393862475877,-0.31053160800352264,-0.33447128384617836,-0.3404965662566643,-0.336331451475495,-0.3268088034546638,-0.3152014609448444,-0.2916104077771164,-0.2353416158892352,-0.13183308732914362,0.02116683240586093,0.20035607445436662,0.3809477956934111,0.5457538891871453,0.6676481921167954,0.7373578988794794,0.7668314401497026,0.7731121920942015,0.759650990031163,0.7179428880133122,0.6597460297395167,0.6131345216049554,0.6192492967030747,0.6831414017402797,0.7486200763100678,0.7835234064029538,0.808163749947806,0.8247437412583437,0.8257185420967533,0.8074765084111817,0.77310222585207,0.7301771241754271,0.6845021028288637,0.6388022068289684,0.5840272305503545,0.49864974370807785,0.35990994194741893,0.19662086031052692,0.07730850868756137,0.03456028941921861,0.05026569061879308,0.09665950548059504,0.13178010561660414,0.12960473396966998,0.08752043073573351,0.023719917930413156,-0.033880249471569354,-0.07536799703964926,-0.09897656932717629,-0.10716724098035037,-0.09892960267082841,-0.0690494415224387,-0.03205082785649199,-0.02625930354326301,-0.08142021284958913,-0.23107019737861698,-0.4493270592311304,-0.6157521142691745,-0.6973346459411994,-0.7344744166117547,-0.7473946931448842,-0.7396849720830673,-0.7107692749757902,-0.6981406649587881,-0.7305112799682416,-0.7938010762916511,-0.8509027363861328,-0.8881098227416405,-0.910128495393591,-0.9230317367197751,-0.9240157000003804,-0.897051406993237,-0.8281898933578112,-0.7412882144552009,-0.6880491389417878,-0.6801198949610253,-0.6997255503727616,-0.721977596214612,-0.7272868817688849,-0.6963057397399769,-0.6112812125657204,-0.46877216002808647,-0.3094270886243485,-0.18775666114997278,-0.11654671193133379,-0.08343974366353554,-0.07794802646772998,-0.08129432923598708,-0.07347131149948868,-0.016708164496402212,0.11852500453246739,0.2866940290327336,0.4185163002686014,0.5046548450560061,0.5531910303589846,0.5541375715156052,0.49579877693241453,0.32057443055309964,-0.00951133795997198,-0.2760238723928436,-0.32565267714151414,-0.23616452377375352,-0.096081562723208,0.02393487603514662,0.09664247735966086,0.12498178939890246,0.12571423191870962,0.13206200576222898,0.2321255879634383,0.5105896555557874,0.7937395781742429,0.9172375582568111,0.960505735016697,0.9777324400328571,0.9848457760966189,0.9863678311254362,0.9834584355326054,0.975585259369833,0.958858830385735,0.9252362373319628,0.8676129954364055,0.7953082335046523,0.7379924165435505,0.7193564785061818,0.7316730622823265,0.7310720953732912,0.58947736756025,0.11700850053773117,-0.3287738616477032,-0.568246534854055,-0.7000448309850782,-0.7803575899899279,-0.829738266660189,-0.8600231424145838,-0.8785446374305824,-0.8904986758185562,-0.8938230508776828,-0.8739979017658995,-0.8085845773894578,-0.7147745598480973,-0.6709467177830315,-0.7053087253716455,-0.7617831980295334,-0.8108323752686643,-0.8533883430938286,-0.8659410685931499,-0.8341550890459258,-0.8000247555485988,-0.794554615183643,-0.8009708722882142,-0.7924002396394533,-0.7667633903154258,-0.7238306050927104,-0.6765278540741341,-0.645815618338726,-0.6471674114492201,-0.6796831145234558,-0.7245842465231396,-0.7602855725094755,-0.7819160977568764,-0.7908927308775673,-0.7838635643560116,-0.7528777920263731,-0.7015293573465426,-0.6422647001431705,-0.5809839683547036,-0.5128878705431517,-0.42959914068497607,-0.3335326911542125,-0.23257772323025655,-0.14727416787137051,-0.08122709022749029,-0.020457517786123203,0.06320618303371851,0.15932679167981487,0.25417962207485745,0.3338321582822257,0.38873672447113466,0.4119914689717166,0.419880587905357,0.4223814271578881,0.4182762011857926,0.43666937435254227,0.5217572743142077,0.6611277229735286,0.7724989163668212,0.8172513186904481,0.816022052886545,0.7764385055882973,0.7178510597375984,0.6726102012460765,0.6532149456528751,0.6485840406109773,0.6380031768207631,0.629300365540955,0.6415595439089319,0.6777502908459238,0.721927807700951,0.7606860895700122,0.7864535811653764,0.7900913125043999,0.7621516750000449,0.6988053150590927,0.598364867811472,0.46635986312376554,0.3227660581603434,0.20912697312577155,0.14677022758046623,0.12689321019393404,0.10988121260545783,0.057981222891740423,-0.03479018129825218,-0.1462583888875258,-0.2505234467230305,-0.3296680774780977,-0.3763714044319012,-0.39609049900549753,-0.3785385652724562,-0.2802449533315206,0.0278177049536226,0.6000594934693899,0.8787883120753619,0.9184997969597735,0.9061469183668011,0.8590954485137705,0.7125680477155399,0.29644904245018916,-0.2385258977614295,-0.4852102787249352,-0.5498657916018244,-0.5577779257251905,-0.5573724481181351,-0.5614811802787282,-0.5577739389556168,-0.5337132873750579,-0.5038255848187322,-0.4982699266020452,-0.5370337596454725,-0.6085257531038872,-0.6724346006125046,-0.6974639324739793,-0.6834286385975287,-0.6479741900234185,-0.6075492161451039,-0.5814937676408197,-0.5768656470022251,-0.5821893108733903,-0.5834657544205705,-0.5727576330422115,-0.546814696377904,-0.5032899462845035,-0.4386614663590935,-0.3392896044270332,-0.18891071535196904,0.019991941158967668,0.2591948359239842,0.4603357277729051,0.5942387623325416,0.6733276164855023,0.731707123376845,0.7822921722345131,0.8154895708056707,0.8237041510017056,0.8119934147440688,0.7926074617647892,0.7827634769122048,0.7923473032135002,0.8189951518728578,0.8505330165918329,0.8720605207236343,0.8743323601525411,0.8546779963321431,0.8194384339779817,0.7803615926755937,0.7428311854705517,0.7074287367911085,0.6614043130969723,0.5748778541276349,0.43697566663000575,0.2794611603284302,0.13030164790578927,-0.02854581827626368,-0.22607226336909297,-0.34129764830722126,-0.33232047708806267,-0.29443439067026667,-0.24888382678838597,-0.19998981265698162,-0.16214559474705972,-0.1479197625371233,-0.16475921110519853,-0.2124596748636092,-0.27573279669293316,-0.3416401280871246,-0.4077843669402447,-0.4782927075110296,-0.5592188692792224,-0.6524733026100352,-0.7365207262551541,-0.8014577762086478,-0.8375324258402588,-0.8520363290312294,-0.8579445674102545,-0.8641964616067289,-0.8512557672910468,-0.8193266590130555,-0.7907039159545738,-0.7742758463098298,-0.7697673582089803,-0.7628252145425543,-0.7249748093460364,-0.6374013600828756,-0.5330295930453707,-0.4537769833186109,-0.41985385778074974,-0.4312915731223767,-0.4906787172551436,-0.5777008037357927,-0.6517583009034775,-0.6913310380904194,-0.710764641408934,-0.7270971386925135,-0.742095939899091,-0.7533054202445321,-0.748726446003441,-0.711509372042035,-0.625891470374925,-0.49312391047004867,-0.3296362431216057,-0.14057781137252198,0.07419631389237247,0.2816905177437269,0.4228667117715701,0.511950092270756,0.5788247823636169,0.6479905930789018,0.7161021220174827,0.7589403036654008,0.7578797954052361,0.7277975546764863,0.7087846867145224,0.7305895505698949,0.791083817386807,0.8589765995834914,0.9015381133874666,0.9100846536110015,0.8996457849324584,0.8822517705288031,0.8575499275580526,0.8228341867146325,0.7792886244919772,0.7398856526093562,0.7181379501353108,0.7128599121837071,0.7134225532483471,0.7126113129861251,0.6950198853681693,0.6442928368373804,0.5381794844051775,0.3655482992615938,0.17899609692349713,0.04259056529243924,-0.018090572573693824,-0.0064333675309565345,0.059079050763845294,0.14866252269146932,0.2266713381545116,0.2767738923257722,0.3026484010146889,0.32150753140637006,0.32509013635707085,0.2614572414079687,0.08969593862504939,-0.1648702328244824,-0.39129115238617507,-0.5268509566022184,-0.5904723275219553,-0.6134043131310801,-0.608865588430127,-0.5789290994851648,-0.5293316274643791,-0.4752168571475298,-0.4370980841035471,-0.42938956293775254,-0.4449669083405322,-0.4515858661868046,-0.4261914527697363,-0.3797195802725117,-0.35163279349153964,-0.3333649680726252,-0.3084658035597322,-0.2791887253286816,-0.26737093192077727,-0.26399896783335886,-0.24843735225030375,-0.21689853447165236,-0.1912394787832545,-0.2008391298937775,-0.2700373507047606,-0.39117593389196637,-0.513978188170597,-0.5900776145977609,-0.6172557955737398,-0.6013689611600022,-0.5522844708524612,-0.4727554824049479,-0.364246839087018,-0.23376887796259088,-0.10733070325860057,-0.007851146060740331,0.05397389373683979,0.09787755651839268,0.1346453546654706,0.15650057672182122,0.148767747653151,0.09201589010970539,-0.023461836439020767,-0.20880111062194312,-0.4377505042525913,-0.6425655388175662,-0.7763618242880902,-0.8355570118122941,-0.8333497901960885,-0.7544717921992175,-0.4400971785636027,0.3812322734376367,0.8215294362192369,0.9252733433461633,0.957620228448841,0.9698873235445923,0.9753689278815388,0.978181874360592,0.9789612557169769,0.976348518542657,0.9686883793605838,0.9545535620774983,0.931175060326266,0.8855049095780775,0.7887988153924199,0.6146898798609901,0.39755508033749054,0.21349733460524162,0.0965642353229084,0.03523406244234056,0.003360472191026052,-0.02754644013400314,-0.08764655505899636,-0.17693594056131912,-0.2714772220633987,-0.3476356508332549,-0.4054367904540641,-0.45102915306991254,-0.4933472913165365,-0.534049280625344,-0.5726461249459461,-0.609784887282529,-0.64993418785153,-0.6919323563753443,-0.7328868859169706,-0.7743070076739584,-0.8188238791728344,-0.8624245596622325,-0.8992604788928429,-0.9222333895242041,-0.9349519351320407,-0.9445835199251387,-0.952974423440279,-0.9615494188696209,-0.9689859832822557,-0.9697674753006112,-0.9566140050420903,-0.9279179215474794,-0.8936102353381962,-0.859658653549805,-0.8243392071291425,-0.7876601611880156,-0.7478424346556658,-0.7095875839738585,-0.6803546663069127,-0.6594160201247455,-0.64568401927326,-0.6287882555571521,-0.5872938473950627,-0.4716796690321221,-0.2655850632220849,-0.07324534711058629,0.041520750775716826,0.10756067820172967,0.15589417948272238,0.20640487643188066,0.2702635950041089,0.34475815809430416,0.41162040466483596,0.4564855473761964,0.4783017503898019,0.4835078465524725,0.48116878582060846,0.4773038079211773,0.47743807099549246,0.4906856802350553,0.5237515260238848,0.5776847003377648,0.6353732937842945,0.6881956086286929,0.7315113157527263,0.7602118176040339,0.7725998836567318,0.7793250539245263,0.7904418656590719,0.8002977914256714,0.7997307238668214,0.7966378410397428,0.8090184840033376,0.8360375350833815,0.8644566423403126,0.8816939865861737,0.8779332891169646,0.8454761579403192,0.7708854899960641,0.6623122013150144,0.5519503294236148,0.46997724311960687,0.4222128863340374,0.4002103565805091,0.39986631236427506,0.4004686319032999,0.3708188908986161,0.29669434135837003,0.2197212026458174,0.1673728367878,0.12849636867028552,0.08723698621970258,0.03518711994762565,-0.028884157717654024,-0.10224837795597233,-0.18447220958402546,-0.2813051079673705,-0.41253139636850283,-0.5843969882291797,-0.7537143633340602,-0.8635831513290593,-0.9159716560791574,-0.929524168115661,-0.9137166349195771,-0.8747365868611161,-0.8275880432272373,-0.7865219901134163,-0.7560139903910925,-0.7425147745001044,-0.742385728672279,-0.7368397558531128,-0.6753149270190328,-0.539764259918905,-0.4053689548457278,-0.31835399088690225,-0.27080397665626904,-0.2555118011617696,-0.26343833883415047,-0.28761678192933765,-0.3153459702564558,-0.34584374375612376,-0.3694601752719266,-0.3752463824838802,-0.3614926924325253,-0.3365641071827205,-0.31205753165833566,-0.3005123757162559,-0.3109817256757249,-0.3477847757272693,-0.38886300341025104,-0.3969625391430284,-0.3461769669378655,-0.210460021596161,0.013207434294566778,0.2831376457073199,0.5091655586182237,0.6578778252292183,0.7481713664671781,0.8001604567316999,0.8222160948905757,0.8158170895227224,0.7792914877561665,0.7185466466384995,0.6525999686851112,0.6051560053840896,0.589072989170673,0.6116637546227407,0.6723268843927844,0.770082138045882,0.8544365449685722,0.8828564697651731,0.8826975040959929,0.8820538999516507,0.8813846054242099,0.8741121577876869,0.8529280363567934,0.8133873791979848,0.7508151662621784,0.6366705572370637,0.4626552428569962,0.31228169951766094,0.2415088633931916,0.2267968567239278,0.23680132485958297,0.235227670377399,0.20852731487510465,0.1478121611344207,0.05641010801268003,-0.05373391033681343,-0.1769892773156795,-0.3108123197625448,-0.43633116142641903,-0.5278094177662984,-0.5763866474811548,-0.5917561127947715,-0.5991625108582613,-0.6164845252887594,-0.6518384859120535,-0.7022678138402734,-0.7632382593665589,-0.8190925583038121,-0.8429224864163217,-0.8516851004376282,-0.8669565467686271,-0.8834567897315003,-0.9013982676906509,-0.9202392222157832,-0.9315551326410225,-0.916890471237084,-0.8471687645280515,-0.7119460643559584,-0.5428473393605734,-0.40016023932903433,-0.312075933349356,-0.2738066638435242,-0.2798804633689479,-0.32459597627507464,-0.4049041319559548,-0.504042218360786,-0.5911479819373432,-0.6413662710656504,-0.65101195929714,-0.6301493450990324,-0.5762994061786771,-0.4752710560784196,-0.3084343153683172,-0.07902928018495221,0.17589403177323454,0.37972650727820495,0.493817848473809,0.5346372086327063,0.5341932262676986,0.5165792164414139,0.4928328816509096,0.47395234404563014,0.46724221259613724,0.4708482056380902,0.47823652683508583,0.4805134012676619,0.46494154674527227,0.3974219198064231,0.278539388666115,0.1748858227858845,0.17689714024178363,0.2745635780880185,0.39995749101102923,0.5034947346530706,0.5580068818793832,0.5628345509256953,0.5598805624819079,0.5938317357886991,0.652481127666624,0.718752147388504,0.7834275450116102,0.8342768574373247,0.8539172026986551,0.833220418602413,0.7709328551515787,0.6745850627388067,0.5649026358480778,0.46802652703627523,0.3934338850694865,0.3201250126053372,0.23076666120447356,0.12242256702545239,0.018491735340064683,-0.055657263477937036,-0.09968495487852747,-0.1227699640019429,-0.12973908898363717,-0.12848537710190247,-0.1296827246254121,-0.14127153980822046,-0.1805422305916892,-0.25405269139468417,-0.3509231305725024,-0.4437138290393796,-0.5110578123375057,-0.5393510234829071,-0.5489925186389375,-0.5719770117230368,-0.6182549134455309,-0.6768042880449109,-0.7282273225477673,-0.7586127271240578,-0.7726124082592497,-0.7873703067370094,-0.8065347198432277,-0.8262530871857643,-0.8277834598511526,-0.7819776492335545,-0.6650135261375197,-0.5114551822331421,-0.3860869637491483,-0.3138073704013871,-0.2917814865182832,-0.32194668496794615,-0.399460177962993,-0.4959625227315727,-0.5834127541345663,-0.6544217290442506,-0.7132617684553714,-0.7680792255538109,-0.8190585278559376,-0.8509725826338402,-0.8624249414437336,-0.8612265066069366,-0.8499090154157877,-0.8149227553868512,-0.7259739757027871,-0.4859743299746202,0.09446661755526309,0.6602518476778554,0.8604465469823757,0.9199185038449,0.9379799237682861,0.9376460597235118,0.9262115877125753,0.9086292373208968,0.8898187419296698,0.8732343778334167,0.8588152895294251,0.846970915302015,0.8392818455804795,0.8394660241448422,0.8484608183819043,0.868625907356178,0.8993317572292652,0.9291742670718792,0.9302435071447117,0.9026631495844808,0.8781807211385495,0.875601723043593,0.8893174843890929,0.9057152011038404,0.9091660479571501,0.8884666068942887,0.8274202700363483,0.6874313900836023,0.42363756199731417,0.10604538776951627,-0.12337787204808953,-0.21538875570599533,-0.19210369767290802,-0.09803015398212188,-0.004952754870958738,0.02025519060508983,-0.03618879333085034,-0.14921622170524332,-0.28271852129525743,-0.39910037815498295,-0.4985744840915632,-0.598407415453572,-0.6910973379711496,-0.7634799722031219,-0.8115026575464512,-0.8462288499222456,-0.8750567828987849,-0.8980940315991345,-0.9125459764295513,-0.919556664238918,-0.9212885818855692,-0.9200344526862632,-0.9162046939594674,-0.9117953333561984,-0.9119752543092234,-0.9217057011396578,-0.9363188269907401,-0.9485683708209872,-0.9511139882402934,-0.9365664090207215,-0.8950827328493811,-0.8228974495062061,-0.7208749564313974,-0.6053287418222287,-0.4978500841536822,-0.4262063453356881,-0.42419265513154414,-0.49323997940811065,-0.5924807941594733,-0.6640154294538015,-0.6767295608810304,-0.6303470289279557,-0.5192905749599791,-0.3665989380129988,-0.22217519742343617,-0.12565443669676563,-0.10474903350700203,-0.1790292929607144,-0.3292943459339469,-0.47396492819717617,-0.5277335279342726,-0.43943271144368806,-0.0343477784484765,0.41068289234719263,0.5810286501569468,0.6402419595051928,0.6629905750187852,0.6781854095691903,0.6899404576307352,0.6952239776312065,0.6968120567277203,0.7083229399778526,0.7289367222733397,0.7505893662685522,0.763121877987329,0.7682833242052898,0.7682565352700843,0.7837136655730736,0.8385593352522965,0.885327487426228,0.8285901544048655,0.7356109100324872,0.6717451545421412,0.6322881377692475,0.6007530358506048,0.5648658660790448,0.5085110604615284,0.40714244182462206,0.26341410306845703,0.1190791309962275,0.019320888255831267,-0.013966648931481869,0.009839730208565295,0.05619503031302545,0.08645615517328889,0.07001216692802352,-0.004005580085928389,-0.13322460212121148,-0.29307362110295115,-0.43878341898651374,-0.5365851500570853,-0.5823147223488526,-0.5827882853551043,-0.5287700678286509,-0.4197780655077505,-0.3099589597032028,-0.2696482165834653,-0.2885762804836551,-0.3228151434930461,-0.35783333416674024,-0.39180417213721974,-0.41982925241425917,-0.43865787193321254,-0.4461622660292151,-0.4529345174333792,-0.47045493791457604,-0.4874183248193772,-0.4882480160615558,-0.4822247458872165,-0.471647108094099,-0.45415671275180736,-0.4302362969665545,-0.3969938376163658,-0.32519621875939125,-0.17028021662222279,0.008651091769033661,0.0847079836349922,0.02758838290284481,-0.14003858927645602,-0.34760515269966596,-0.48131559237715954,-0.4945291311517772,-0.38889303540739645,-0.23727643338454135,-0.13327602423759977,-0.10201865629695105,-0.1320035932956438,-0.2083633985046491,-0.2852491688518974,-0.28659278847284764,-0.13412895821392656,0.12314062874499364,0.3367278734630473,0.4512362003515218,0.508792295701376,0.5571699197331956,0.6058761446686736,0.6651338793962143,0.7171541368309637,0.7382080284014443,0.7235931828284665,0.6947599355096726,0.6735332587603275,0.6794950773953393,0.7215703559341567,0.777634692643751,0.8187135938546136,0.8347782439529503,0.8390425303340738,0.8364664685862906,0.8322477715966126,0.8306384187312496,0.8295280094859923,0.825898689598984,0.8181080225765041,0.807788556834364,0.7904127219178827,0.741838419430493,0.6218901660431808,0.4433070656645014,0.29092797799453246,0.19448743330552679,0.11559018774461678,0.01928915854865454,-0.08887174618038714,-0.18828241054401365,-0.2521603405802313,-0.2776343701493613,-0.28000988672784155,-0.27998515423682374,-0.2831408361615573,-0.29787928108122025,-0.32183690817070193,-0.35485074573496966,-0.3869565057850614,-0.41709567532901776,-0.440885865599472,-0.45929661662579285,-0.4916853481782371,-0.5445183496723155,-0.6162424986448152,-0.7002315633871087,-0.7794461900290804,-0.8357417599585876,-0.8673381920948008,-0.8886426967794487,-0.9019550674104259,-0.9003586087882626,-0.8710795016162198,-0.8075673511344348,-0.7261559918040071,-0.6463963349597542,-0.5743032334684467,-0.5148744243314206,-0.4754636726842892,-0.46253195139389924,-0.4870697857800133,-0.5367009954538035,-0.5831206414461471,-0.606535296319091,-0.6092020694094118,-0.6033300006231193,-0.5995253433733113,-0.6067506465896914,-0.6247393784456124,-0.6289208315170941,-0.5825796268969794,-0.46807697319378994,-0.31054595635029425,-0.1483860337390427,-0.0032734805790344294,0.11765692588810979,0.2306219234863364,0.3392564090240788,0.43349580186226944,0.509115396325013,0.589990103223676,0.6762150991948569,0.7586796112893628,0.8194694064247653,0.8544728115279732,0.8780855040652888,0.9034886843653883,0.9244601765299846,0.9301465680899585,0.9238205122071772,0.9186048733950941,0.9193610389427523,0.9242764954411375,0.9298774920795408,0.9346837030375331,0.9383903462858025,0.9415181249846171,0.9436552522592145,0.9420003304819261,0.9265841754362665,0.8707020058703554,0.7056041324963264,0.38031745842904885,0.03179685567598679,-0.21994747118958408,-0.39584466894079307,-0.5383804963775836,-0.6556930682923171,-0.7476873047702473,-0.8202284515866531,-0.8748835325842945,-0.9123771220350856,-0.9350703363902048,-0.9467542765273521,-0.9483755179868252,-0.9333448680661214,-0.8652148798785021,-0.46995330544500075,0.6210956591812168,0.9021582193234317,0.9532939101558625,0.9652092985537475,0.9618050238442423,0.9421717466235999,0.884463684999379,0.7067552110263257,0.19097702879925502,-0.39091716207885224,-0.611844219803522,-0.6888394381337357,-0.7419345821375914,-0.7931919657430507,-0.8327192099451975,-0.8471746152192137,-0.8278324920817008,-0.7801978392126616,-0.7173774846710879,-0.6484617592587802,-0.5861910770440669,-0.5393339270361839,-0.5224459289715104,-0.5566668056494335,-0.632343289524586,-0.7006055719509472,-0.736328893786414,-0.7459756577482123,-0.7332396102637291,-0.682201524303925,-0.5883035961587643,-0.4758705984485731,-0.3926384009635013,-0.36458536362133637,-0.36929905345783137,-0.3725920771060963,-0.3472666998952559,-0.28043943565390755,-0.17295529504008633,-0.04668602332278653,0.08437144493804753,0.20107391912569528,0.2938489529621553,0.3654979484554743,0.4197545125436401,0.4776525841853516,0.5627923653468748,0.6590728482546445,0.7323699509000489,0.76859336419566,0.804510902369439,0.8505274718190992,0.8889322846979486,0.904897348022582,0.9034447523087763,0.8970231402896808,0.8903282888045492,0.885920403200921,0.8874895229485847,0.895140489007167,0.8946152097892603,0.8617130054969963,0.7849708285576296,0.6700246402802674,0.5429467813810243,0.42778377649357224,0.33174075307837597,0.2519899412797952,0.175363522823605,0.09305206488902792,0.009909038257453791,-0.05195821220531425,-0.07048221930570689,-0.0174681624433613,0.12764851024549825,0.3278404045969279,0.4982526805403641,0.6108153594802199,0.6702828569425644,0.6570799460344696,0.4991347399749854,0.1965711116066311,-0.1026107478713126,-0.33552304096784924,-0.49606064074742917,-0.5847574255155028,-0.6157571145177977,-0.6205267481299913,-0.6384556042751115,-0.6902236771084714,-0.7554346667843569,-0.8218178658521403,-0.8834566934200464,-0.9337597927798161,-0.9622081008516443,-0.9616310709327078,-0.9361557766970434,-0.8972761844042447,-0.8439648027133171,-0.7709187592400704,-0.6800908221194768,-0.5874709154099778,-0.5149064581039349,-0.48605455761610994,-0.5006457567517176,-0.5435642492421745,-0.5978112994260545,-0.6414737732847717,-0.6446842829352689,-0.5716665216898115,-0.3865864096160614,-0.14050995050543544,0.06361294232898097,0.1930207248659479,0.2606968654976176,0.2862639402164101,0.30917637492974814,0.3554441073272014,0.40480397588498307,0.4466277179163468,0.472227434005369,0.477546035380256,0.4611623931701383,0.456504355821399,0.5037587905739443,0.5902407994371924,0.6808519337147123,0.7679875718953848,0.826876703213304,0.8412494126285213,0.8334143682287702,0.8349438164504224,0.8468789475323869,0.8481039457527597,0.8329471882240904,0.8258523122582698,0.8464125694802132,0.8891516836821426,0.9120217799330294,0.8722076300456517,0.7850485665459164,0.6895356292966442,0.6084868516274142,0.5472239027651561,0.5044251861415853,0.4777183516856383,0.4716192169611678,0.49533856373422297,0.5469322863670619,0.6028816331330518,0.6328808947773169,0.6165736704576975,0.5516623027578661,0.443204619137212,0.2799817790536103,0.05850923309046505,-0.1938025514430812,-0.40756960781238577,-0.5567882712484993,-0.6387190806316738,-0.6747568871113154,-0.6888875697943625,-0.6941537238817452,-0.7009021149047787,-0.7109651969953263,-0.7285643908490465,-0.7490214170551266,-0.7629377091408346,-0.7679691917548146,-0.7624427501417893,-0.7543539845260536,-0.7583670445873185,-0.7757165803227688,-0.7799363009335062,-0.7573723453139267,-0.7235054713888582,-0.704082427832096,-0.7018729115415606,-0.6866851987975126,-0.5672451413387063,-0.31616013391463665,-0.15310571360703884,-0.13903808197010076,-0.24348608219127713,-0.42397876383215727,-0.5728258154299407,-0.6344888585992495,-0.6488540116265541,-0.6514655000368764,-0.6597589753340765,-0.6882836746279518,-0.7256457491284173,-0.7500720800672456,-0.7471957112039891,-0.7070438969857993,-0.6043162875654778,-0.38113316341199044,-0.06085525259139619,0.19804841086019023,0.3366885451766087,0.40464601329435806,0.4436125358800349,0.4934655627523043,0.5599627123750258,0.6183274240597985,0.6570964998475329,0.6810783273056488,0.690141296582642,0.6873297012108317,0.6858109356113321,0.6941887163423003,0.7124514086603018,0.7310059492868037,0.7395184402562446,0.7322241960262857,0.708365934765939,0.6794618683251679,0.6589487599964732,0.6517543197034786,0.6505798764976171,0.6645338174811708,0.7075782143771158,0.7560106127189856,0.7682025438570328,0.731013643401126,0.6561708314166147,0.5767288733523034,0.5294510764076944,0.5033400598056834,0.46268100979078336,0.4152275014598603,0.37270673850498515,0.33734160796131485,0.29514700498258395,0.23028554482829935,0.137968252577479,0.017856738723221084,-0.0983878289176045,-0.1883873145885452,-0.24860299392769797,-0.2955146618518699,-0.3371573382575556,-0.3806098612224996,-0.4228322698281707,-0.45211440566659067,-0.4827144756548834,-0.550836805997018,-0.6541436556234861,-0.7571836331625877,-0.8322181280663432,-0.8857075594344973,-0.923048644270043,-0.9487330333087255,-0.9625841456641785,-0.9608208306863244,-0.9414571986776143,-0.9087337634773166,-0.8657635095559268,-0.8115293835493743,-0.7399529995067905,-0.645261758951546,-0.5488912821735272,-0.5015096648426398,-0.5275503950113442,-0.5970822285971834,-0.6571205389880297,-0.679649213983386,-0.6472594419642459,-0.5453224714971301,-0.3740572891392821,-0.19844930014308537,-0.0924667711374681,-0.08866939234503139,-0.18755324151344185,-0.365560103668727,-0.5503853703587407,-0.6826446197770312,-0.7596727659953882,-0.8059755218221185,-0.8421130820842847,-0.8563438868028176,-0.8290151421473906,-0.7933517011824242,-0.7802178999107674,-0.7638526703575105,-0.7303863237682333,-0.7129308020797313,-0.7182925191221902,-0.674401126653121,-0.3373621127620687,0.4577188589779032,0.8132322315601933,0.9122553050677832,0.9527427511718876,0.9739054269536181,0.9851549058832808,0.989441862128881,0.9889671634485968,0.9855477429460443,0.9811818192791742,0.9779539389629569,0.975298116157201,0.9694909952841027,0.9500360447447883,0.902621115490554,0.8200427557752031,0.7226290582835836,0.6546159718065616,0.6594558965963941,0.7366899738965099,0.8312844961280038,0.8906390556412341,0.907436093550339,0.8924804643770402,0.8448677892769202,0.7320336374353382,0.4462233835198098,-0.03031156223377233,-0.36311976380728245,-0.505023806435315,-0.5635645767210641,-0.6049518961517748,-0.6560514573803501,-0.7225733364664432,-0.7906693424571692,-0.8458534827567222,-0.8811213713766072,-0.8956676813183826,-0.9006393635634546,-0.9074525503949121,-0.9192469080973644,-0.9326994853588078,-0.9420267839379064,-0.9460802951652724,-0.9463385281568711,-0.9425045106312434,-0.9354319330022777,-0.9216269901961182,-0.8981764018722874,-0.8672528587494658,-0.8408826081242429,-0.8303507653121518,-0.840334212957058,-0.8639471896845314,-0.8836630094488048,-0.8923735928140872,-0.8942811942506566,-0.8909712416098426,-0.8852706284884786,-0.8754704894862314,-0.8448141722792806,-0.7694200987554641,-0.6442575144284313,-0.5013310559623293,-0.37122859338631337,-0.2393907070000824,-0.08221148110226234,0.08279238825155683,0.22814048486305893,0.34392109305573837,0.4514571833643647,0.5582778230528944,0.6510798379214563,0.7259320260781474,0.783503480393648,0.8257082618385634,0.855693317014801,0.8697740405794975,0.8804890902859221,0.8958329902759831,0.9062910555104111,0.9172270756178631,0.9321529837302488,0.944199852114209,0.9407492159937384,0.9272313063936675,0.9178300662567456,0.9141668811713612,0.9076815435121602,0.8946966984302351,0.8771705253125865,0.8635819288930848,0.8544540099044229,0.8437548571883086,0.8189524480363867,0.7703658093663628,0.707629714319095,0.6435486428871081,0.5815592068351607,0.5168020863701991,0.44235908288642334,0.3559196528137804,0.2553373860755287,0.14021538770920491,0.024355605501426233,-0.07809483869362947,-0.1654511020610798,-0.23419724802437744,-0.28397721857883074,-0.32900301753411937,-0.3738558819295879,-0.4140540092237311,-0.449216106275285,-0.48692224596364037,-0.5434916632944978,-0.6385199945881433,-0.6693282525904823,-0.512028059199443,-0.3542740167148708,-0.25453378261412296,-0.19811746501615526,-0.18471735683286708,-0.20897791417858455,-0.26197101939905176,-0.33448406418115495,-0.3936497093601047,-0.4250789534549099,-0.44807766103064944,-0.4879902510330412,-0.5551113621541534,-0.6309456581260933,-0.6684893865827749,-0.615767222652406,-0.46053460487751996,-0.28493521298883534,-0.18793293516364612,-0.1895099917219714,-0.2842748870631225,-0.4269744630698299,-0.5452478379038554,-0.5900251630843812,-0.5492002784124126,-0.4332792598408867,-0.2934032706031904,-0.17571269408302315,-0.09012781085173677,0.00652705916697328,0.12726524595606692,0.25982622205876993,0.3773816093687523,0.4681497611425278,0.5376244616791083,0.5953383164666968,0.6436154182982549,0.6820442545063845,0.7065926813714937,0.6972174144575194,0.6362694876355152,0.5360997005253876,0.47817496752700417,0.5245778168155554,0.6295779778022711,0.726429064315643,0.8006603569055112,0.8444459729765078,0.8544302874831576,0.8418099709239438,0.824881766286507,0.8120195671316662,0.8074510230595422,0.8132034550754846,0.8261298986113111,0.8398105923843889,0.8392867033652894,0.7880890477792621,0.638278422799134,0.37303552147554586,0.0037866774868997696,-0.37021657975748945,-0.6332328503394156,-0.7768192467177402,-0.8450776181672226,-0.8718940049136139,-0.8711681623569049,-0.8402012959494799,-0.76929829452908,-0.6636834541717213,-0.5588192309678524,-0.4887675360684235,-0.45198997220449577,-0.44174181212226843,-0.4578436796888168,-0.4955253438235126,-0.5383402224706597,-0.5582188897861128,-0.5497734552607243,-0.5670108061239425,-0.6162489405598024,-0.6721884974553507,-0.7059953615920805,-0.7216793075586221,-0.7322203178672466,-0.7247864321868253,-0.6858329810092553,-0.610377068791619,-0.5040303443749696,-0.4021389481570693,-0.35356359654393593,-0.37511474346655177,-0.4362869066135185,-0.500502383256137,-0.5518119268503557,-0.5984873106081068,-0.6631512373605302,-0.7444365223395661,-0.8088028130541122,-0.7879771009635712,-0.6792485151678659,-0.5528209420026609,-0.4495222567108339,-0.36826875975905604,-0.3044206462339141,-0.2543237110411674,-0.20506921651479254,-0.14499965297075063,-0.07254850624696896,-0.0032141561390191756,0.05206908923508038,0.10100918500126488,0.16238425173566165,0.27233733882235595,0.44567501716335706,0.6161144870703037,0.7312428517821686,0.7988606210741429,0.8449046437475141,0.8744397935885007,0.8838747838309838,0.8625501171410693,0.8121428033533111,0.7685730152213924,0.7568645469205886,0.7670587935167406,0.780291475638636,0.7788916967471322,0.7593096590396422,0.7353583624389504,0.7258388349221039,0.7369871930198629,0.760609612049126,0.787425274024596,0.8085054725963796,0.8082263740653575,0.7553524033272871,0.6128657508775616,0.4142029289076615,0.2448271464485921,0.15015878392319698,0.12734413729883912,0.15181108554083408,0.2025993876647067,0.26653413254252606,0.31173248587965735,0.3096003910024714,0.25004930383935603,0.1337543832363205,-0.014016917833211209,-0.13678319329771663,-0.2089388610225749,-0.24849783093376038,-0.2916213417692105,-0.35978125146141987,-0.4533757997902895,-0.5610573818340305,-0.6727484617328905,-0.7873247914523648,-0.8702391532709289,-0.9086741333095812,-0.907472123996345,-0.866810583262047,-0.8460774819852263,-0.8661819094660392,-0.9117669538795506,-0.9611642476550798,-0.9810255880157215,-0.9336516563553897,-0.777236370808458,-0.4442529234391543,-0.02584023313784655,0.19896456132955134,0.21244644830500237,0.08142617246799569,-0.13979202811956354,-0.3623831050595844,-0.5198558498405863,-0.6010546446878148,-0.6329431796107107,-0.6433393490514723,-0.6605528599144662,-0.7027948651223864,-0.7633811535663934,-0.8174281665059006,-0.8446328182625026,-0.829658962190452,-0.7660123352604317,-0.6770576019769129,-0.5980103254826565,-0.5435451309577304,-0.4987502469506587,-0.4027677698169255,-0.12268554608928833,0.4182293725114547,0.787060722338301,0.9075042744514578,0.9458241568220507,0.9602732407801331,0.9663240680013083,0.9676922492613487,0.9643245414295284,0.9551804649719268,0.9407898490208781,0.922485782039595,0.8999465412318288,0.8686418087992867,0.8224277402510095,0.7652758994759408,0.7064283059943541,0.6583116374053323,0.6236955737257469,0.5849796078552616,0.5246198229767206,0.4317505929874039,0.2910436383975226,0.09961913013141195,-0.09095446709873162,-0.22015190598205892,-0.2704662229759205,-0.22031072369494048,-0.03147399191268631,0.2807832757951349,0.5233714646064463,0.5714995899793597,0.44371184097032756,0.23402027466351225,0.08167862515302356,0.04522162984711795,0.1314259764681788,0.3150262581059872,0.5170385275421735,0.6517490426448811,0.66490367560902,0.47715660912815694,0.003543289442349354,-0.4402516307636538,-0.6475541590416798,-0.7399845095309546,-0.7911551934851385,-0.8264993240679573,-0.8578036349927339,-0.8825335434802533,-0.888527835307089,-0.8782257117233644,-0.8595910860968926,-0.8420556424395961,-0.8426673860011955,-0.8622325501786913,-0.8307809886995489,-0.6875708108510256,-0.5562063567403669,-0.5053572712665719,-0.522177878465258,-0.5759860038815374,-0.6255828126145214,-0.6508891458421227,-0.6747892740072087,-0.7121371914574123,-0.7381399353359748,-0.7321676729487047,-0.7277357319169024,-0.7499575928657028,-0.7914482237403008,-0.8240015033777358,-0.7935274661247234,-0.6620205419657219,-0.48616551088575305,-0.33153551990606467,-0.23552889560670418,-0.207349593804044,-0.22788566974880886,-0.2756068490482098,-0.3296822051114169,-0.3779648765861817,-0.4126969202994399,-0.41417510711028577,-0.3180843397869706,-0.12842216833432005,0.10969865331853251,0.3304745008208204,0.46888173010811873,0.5357265656503484,0.5835589517817992,0.6368047777974444,0.6995868654642189,0.7724902427494345,0.8505609100866901,0.9045071493693372,0.873497018489454,0.7785657946733737,0.7226464716296482,0.746033519960031,0.8254037848676057,0.9040771288297017,0.947998488052934,0.9628765495286892,0.9618105740752464,0.9520120980894304,0.9384003115772925,0.9205710566331053,0.8987533532947007,0.8771287019695113,0.8401363251387391,0.7455879806097727,0.5446041389924804,0.24837180482419818,-0.022881639860731554,-0.21104423152150123,-0.3104777987466557,-0.3149842810153154,-0.25028820173797306,-0.16435839813341105,-0.10014355118177724,-0.05517796475398024,0.004841509719758846,0.1615792428191368,0.4902775514920364,0.7035950843732972,0.7466516587700729,0.649739626449191,0.2651109607131181,-0.24495068510746104,-0.5353781040346485,-0.6800527429208827,-0.7675669281451831,-0.8276671918458093,-0.8662316686959424,-0.8875530792463537,-0.8637213974924122,-0.7418101524879519,-0.5465455741784009,-0.37891347303315837,-0.2789100836557674,-0.22878191032599232,-0.22041602931184376,-0.2593107644494491,-0.33432975651203406,-0.4148241017831669,-0.47603151446384656,-0.49385439479274423,-0.45010192846910724,-0.328296585416698,-0.1580659133342784,0.006161576599980414,0.1292100907714639,0.2044931410226815,0.24695691176477705,0.26985394351967995,0.28232385647295494,0.30104154348670886,0.3380179192627556,0.3885160648764796,0.4374967157730793,0.46746163664760326,0.46692616785516183,0.4332533877549507,0.36240893824032416,0.2172345213971246,-0.028200202785402202,-0.29896790679007307,-0.4488458185030966,-0.453729402188565,-0.3499529915953354,-0.16727016137257936,0.044840908695405864,0.22812514198953598,0.37161139778164703,0.4829702792107048,0.5730823234413971,0.6468818696640619,0.7029602604203503,0.7362465939042617,0.7390120200966929,0.6960035586940005,0.6176083371309878,0.533933364012489,0.4570080002975185,0.3922741721404647,0.3451210133686157,0.30507077666031174,0.2505208473305277,0.16445082806560835,0.05267994001565171,-0.060857935065426236,-0.15604628475576343,-0.21922182829758846,-0.24969008742413817,-0.2345690121204406,-0.15945420333826085,-0.04656281325596165,0.052504364520509446,0.09046430537605939,0.062112300952190724,-0.006208357663407856,-0.0958853832442243,-0.2010085094035828,-0.31158010376324063,-0.4202877500014302,-0.5200602369263628,-0.5513661859965205,-0.5226586335257803,-0.5775248737137318,-0.6611873317060235,-0.7069618377608267,-0.7337176028571354,-0.7593086716488708,-0.7826731442749105,-0.7856864780448595,-0.7439113907881912,-0.6644420994407159,-0.5828743917539767,-0.5093928594297179,-0.43712454814415225,-0.36073230162195863,-0.2960989011134173,-0.2603442197946253,-0.25574454922656575,-0.2538380447019971,-0.23468011704017058,-0.1906881849497775,-0.14816114322899332,-0.142144024642409,-0.17998333769601033,-0.25156963406742494,-0.3359043950820765,-0.3969078542960537,-0.4203997644024595,-0.38627949721043053,-0.27428172357350905,-0.060010727835980604,0.21084789305658616,0.4458560877117761,0.5997250445109882,0.67882913767724,0.7002993548549372,0.6893319478858567,0.6773178126376392,0.6992988818443117,0.7500587058333815,0.7709238600338537,0.7494917735361563,0.7103622863624438,0.6895150923891028,0.7199243763331783,0.8010478457218109,0.8742041674405461,0.9073789042673779,0.9141668898606713,0.9043805993719171,0.8642329940357507,0.7706013908628239,0.6184079459181733,0.4604052324606654,0.38762257916518633,0.41986266855796767,0.4947938290312411,0.5594400479103254,0.5968785921321279,0.5226777477627415,0.07410362333188429,-0.34264369477091655,-0.5248882741087297,-0.6100716436089533,-0.6417846113988241,-0.6050198300933026,-0.42023535994927974,0.12374375240141923,0.7223940138297987,0.9113499561050427,0.9518049509127187,0.9555284935661817,0.9494199846863994,0.943608581603104,0.9405524145296745,0.928402852545543,0.8574484295922318,0.6706847665045533,0.4355539629712284,0.22087181503809136,-0.009540808441517832,-0.2898408551967865,-0.5662682495828376,-0.7710886117077455,-0.8986836208983332,-0.9509854076491786,-0.9211877840113142,-0.8292366825076458,-0.7263756550881432,-0.6493581193468366,-0.6087865089872057,-0.6017711444138395,-0.6143822727300212,-0.628829541664234,-0.6298683075308386,-0.6194442565317201,-0.6145331477723786,-0.6293153536426039,-0.6529553636504634,-0.6631039247550037,-0.6384653555823033,-0.5569764803640134,-0.4157666568887899
