-0.6093388902003465,-0.6743149485720982,-0.7062287229106282,-0.6994177807240672,-0.6752216688376217,-0.6687578969376027,-0.6988698291067023,-0.7429758381826674,-0.7731526223445884,-0.7886636394079408,-0.8038242325765074,-0.831595035908549,-0.8676446275952057,-0.8958281250015108,-0.907381972200074,-0.9085692027692293,-0.9081145164024522,-0.9064510561060228,-0.9009068204102353,-0.8921667973915264,-0.8823889411037806,-0.8670940129060293,-0.8360244501549762,-0.7842366084859216,-0.7107134864688551,-0.6304494858811382,-0.5781860462711784,-0.5773244734504833,-0.628152395350687,-0.704813313884695,-0.7718649725427116,-0.8129266075920415,-0.8269916235252835,-0.8174808953777908,-0.7898923960290904,-0.7422398164911139,-0.6790381562831702,-0.6085570177091799,-0.5368052261041923,-0.4537135992728205,-0.35566852273312616,-0.2459137016333537,-0.11931983871917667,0.03211927127885535,0.19768325390603322,0.344774048561322,0.45358425296969945,0.534799111319056,0.6082098961128515,0.6805968471349289,0.7500846416335515,0.8003001420998471,0.821403203395351,0.8260115430098687,0.8322299180711904,0.8460150296193206,0.8621943093949849,0.8727585156590368,0.8753108212253357,0.8756778072760963,0.8769269035244941,0.8772582011612406,0.8754639127801656,0.874045977857887,0.8745602016790129,0.8770527895394282,0.878887713176515,0.8788974594324429,0.8673616014962786,0.8317743094294734,0.7565529536368701,0.6487274364686423,0.5517571586789446,0.5005572290695712,0.4903674445391018,0.49590177419057957,0.49735851783462237,0.48198910847938914,0.43788218105569665,0.3527675375775682,0.234954088539738,0.10938854959055849,-0.011597000290005642,-0.1331070011425771,-0.24379643834528528,-0.3456226437538475,-0.447833299293529,-0.5559714032022197,-0.6646676530165402,-0.765480298376715,-0.834658314202815,-0.8398185701727807,-0.7476605010733672,-0.5972856729652518,-0.5106623336003843,-0.543679484368225,-0.6554003552727299,-0.7521053938224719,-0.7975131264302822,-0.7847589070155908,-0.7142563965910157,-0.5986332993071707,-0.46281492555166537,-0.3354778892386558,-0.23496393295858764,-0.16165213391574385,-0.12081483082466131,-0.11905106019395914,-0.16399413494215231,-0.26760017005029996,-0.41364807061096326,-0.5638012671346702,-0.671212435196952,-0.721776106959116,-0.7278574012273944,-0.7080129066441431,-0.6674258196005364,-0.606906967002969,-0.5367389605949183,-0.4709440318229275,-0.4243610791464535,-0.38915558231764674,-0.3385362792207383,-0.26196963451343397,-0.17617937598277275,-0.09234857044619167,0.027804757399460908,0.23837931292785142,0.5183185194350945,0.7507206528255629,0.8758648833332019,0.9252233110823658,0.9348715672348922,0.9337489013597687,0.9346593749061353,0.9383121626995811,0.9417986073849706,0.9450135140816598,0.9442627028054922,0.9317879133971977,0.9111143346384679,0.8994794031071485,0.9053892282565309,0.9164831961305412,0.9162972501211385,0.9001586552843674,0.8692664829124725,0.8359020753386567,0.8015295673028514,0.7600049167373066,0.6875011308161502,0.5907472531929889,0.49370283034060186,0.41224374856615115,0.33823676123515284,0.2545855204991728,0.16727938163396588,0.09957637735130466,0.06464168769307493,0.04674090583806174,0.017277995536466216,-0.033462199942939516,-0.11050184717182777,-0.21382233012396878,-0.3320621138163953,-0.45651269462938826,-0.5708416037571874,-0.6688996577500216,-0.7477571207668071,-0.8025100203275638,-0.8374176917804835,-0.8584336881020328,-0.8676774703852924,-0.8701385004310341,-0.875916372112652,-0.884975061639551,-0.890913181920357,-0.8936900196615312,-0.8931116660160621,-0.8888349182291061,-0.8789443112720242,-0.8529974390399758,-0.7976929595072514,-0.714333258958308,-0.6167131050410197,-0.5210114416730517,-0.4467921284542587,-0.401621796242975,-0.4011890926093772,-0.4512956039417492,-0.5367807090219846,-0.6030289103280597,-0.6245459321902476,-0.6149747766427465,-0.5890499444625195,-0.5498879913589938,-0.48761899909879697,-0.4069293724739507,-0.32509747209551854,-0.2334926543903243,-0.12511284541199388,-0.0035290100136880593,0.11918354970451553,0.2277343289255328,0.31766105830080754,0.4011339453425576,0.4846694133562569,0.5692283441398774,0.6484429861559575,0.7062227983174489,0.7422277217219585,0.777381334381621,0.8078455882870215,0.8229911258018849,0.8314630884701393,0.843080520934924,0.8593770025764897,0.8733451481210633,0.887500411405729,0.8949539597677953,0.8934546835407835,0.8860331213434383,0.8792945071210356,0.8712271047621842,0.8529951104037955,0.8249766603414195,0.7906485499569663,0.7633956029183914,0.7434647942521371,0.7179823789931354,0.6806443488536117,0.6386006772623133,0.589054516453543,0.5275574905136274,0.44410679136834474,0.34120963942269894,0.22393945908426455,0.12009443642058518,0.037987966386090186,-0.024795508578660676,-0.07847720750522749,-0.13224404753068653,-0.19744379189055317,-0.26913195944620244,-0.34123159351756205,-0.40652251067163936,-0.46452070962572783,-0.5071659174876657,-0.5385333737746375,-0.5674157328007774,-0.6070871734371316,-0.6685177974498947,-0.7470911958197026,-0.8184034870241549,-0.8540983536811353,-0.8676649017917203,-0.8683933063085129,-0.8558929182495656,-0.8365514354899515,-0.8191891726740264,-0.804990222556632,-0.7725347625287957,-0.6918551006826767,-0.5618457613740581,-0.4418307502002205,-0.37831231684541466,-0.37326325735167487,-0.40857041500155944,-0.4728400984761765,-0.5536320014493539,-0.6227866967270439,-0.6585708194660141,-0.6604896557848262,-0.6382366349912628,-0.5983642579439882,-0.5478292752407423,-0.49034785633137196,-0.43086468198135536,-0.3648994439379189,-0.26562935981485647,-0.11566703425342961,0.06305265864995742,0.21354696337289242,0.30439981056172044,0.34788717467912617,0.36618533580757195,0.3748015011841036,0.39698716293494396,0.4468696216189304,0.518839904225297,0.5899583269401928,0.6440807933459289,0.6755885860865606,0.6958711815397106,0.7171503867396494,0.7434776869937553,0.7759901896311284,0.8146847559304055,0.851661445062294,0.8720400738136981,0.8706401557730952,0.8574948364138691,0.8456693473548939,0.8353482993612229,0.8284266243479395,0.8243774366727848,0.8154492592177728,0.7990391692973774,0.7752978043821515,0.7385082238018044,0.6780225179085162,0.5830352909694103,0.46693172735863375,0.3468387060472116,0.2402833126553328,0.16622404130454002,0.1127913489843264,0.06827673366639447,0.029396696021126816,0.003667893264858558,-0.01475479548319164,-0.03252294470678327,-0.05421182229594903,-0.08912774578057234,-0.12997015777680515,-0.1916267596660351,-0.28818356317595295,-0.42665429187335074,-0.5879133193903029,-0.7428542085776072,-0.854341172135168,-0.9173643122867868,-0.9460792566623796,-0.9604632583765611,-0.9666170118696523,-0.9623789899497815,-0.9480706390811143,-0.9363573703631421,-0.9309614100492075,-0.9265149526465523,-0.9157297690308839,-0.8804398607690125,-0.799228481069505,-0.6877576683152158,-0.5936004924401266,-0.5424430637993032,-0.5259688277197607,-0.5440362065417053,-0.6142021375159897,-0.7189316593247622,-0.7926541300311208,-0.8079982779293708,-0.778622206089894,-0.7263595185353808,-0.6699808444747983,-0.6220874623837255,-0.574188107854041,-0.5110521035345758,-0.4142317506847283,-0.2521262840977902,-0.0309754573147658,0.18690234848306975,0.35745528628620754,0.4834754876125169,0.5808512119749231,0.6580653289804362,0.7213756509111818,0.7716145868414247,0.8138708094556308,0.8439866537604082,0.864354172504762,0.882207505054113,0.9031251491806062,0.9307528422802949,0.9528359519736244,0.9565922081350667,0.9498785798419875,0.942034067607737,0.9311825281746686,0.910299005847891,0.8794180396697869,0.8511590639324205,0.8410706651955165,0.8479838954815625,0.8631702943960862,0.8781113263306627,0.8767030857335405,0.8439556659193828,0.7745817702149955,0.6749985353952943,0.5588359023153507,0.4532462279243654,0.38542834988648406,0.35758484533459794,0.35043466299816667,0.33673263162727096,0.2970183050299598,0.23455904224772853,0.1710481152009695,0.12325566826172915,0.10898989472352362,0.1417992875631481,0.2267132205049945,0.36208834145956587,0.5200597801241876,0.6339302247234713,0.6681337073128066,0.589461270828475,0.24227415599229088,-0.4519302036447134,-0.8080859185382326,-0.9110202619120599,-0.9509978266817242,-0.9721846220625597,-0.9844894694689942,-0.989557786469764,-0.9886171271131932,-0.9837348885581827,-0.9746319737596407,-0.9521837057814466,-0.8466788289540852,0.2379681256212038,0.8895474618638726,0.9334028632105962,0.9158150128895184,0.8671424996962495,0.7900191290077319,0.6841906889453191,0.537226655009322,0.28342478591864334,-0.17234539164928445,-0.550165361329703,-0.6738674362581875,-0.7114165937729726,-0.7257409642228331,-0.7253801346797687,-0.704845665759789,-0.6674543035760473,-0.6221740134692099,-0.5770297327740997,-0.534013995982288,-0.47808752603183735,-0.39323420740989234,-0.271113696181274,-0.1399270361320362,-0.04353300422405973,0.0024061699851775833,0.025818061983864403,0.05862770695738324,0.1330211472407202,0.2420013574788178,0.347609510876617,0.4392324912735623,0.5177348050074955,0.5897258442275429,0.6520258092918207,0.6961236184843076,0.7271918111217868,0.7583306144700053,0.7955116655265398,0.8299071592902321,0.8514821571564678,0.8568821939704546,0.846591553038952,0.832975354342858,0.8166754349167601,0.779563420163406,0.7083924738368721,0.6150519585449846,0.5099981562696737,0.39633749979865446,0.2965095527382006,0.24039522833202742,0.23297167093328677,0.24031385544225173,0.2180282525294768,0.13315979808066702,-0.028091937113298174,-0.21270335402254523,-0.3421496630203958,-0.38688066053688397,-0.3771315464224706,-0.35065593574285586,-0.33582105052107564,-0.34404684457598195,-0.37775276895177645,-0.4356932370401901,-0.49483819777110144,-0.5527353650294042,-0.6109271805362377,-0.6789533143227505,-0.7521470194855799,-0.8173432344182792,-0.861740293665978,-0.880701923454746,-0.8727653374223093,-0.849115781499896,-0.8325231313391058,-0.8282400308515044,-0.8203018151889875,-0.7854462773845524,-0.7109127077672133,-0.5766984733739123,-0.40215167124580414,-0.24474501176976604,-0.14337017234432273,-0.08585484519774898,-0.059639406542801116,-0.07875270129160372,-0.15704128668617012,-0.29139726742604044,-0.43347175930236354,-0.5252598927003004,-0.5455546238460017,-0.516148802557115,-0.4660626365733665,-0.4171985706783011,-0.3697693180972981,-0.32231351349476806,-0.26977617205983206,-0.1953922951870804,-0.08475389192925505,0.06028963034453112,0.2212502092457342,0.3703080039713448,0.4784507892767299,0.5399042532947362,0.573619347017232,0.602210961926333,0.6450197063118076,0.7005147973472142,0.7575653194293924,0.8028318028737051,0.8264635230326762,0.8414823984019698,0.8519050288819233,0.8613505551230634,0.876281281693057,0.8959218549507966,0.9128096841893718,0.9203667725606799,0.9119294669258518,0.8910139294698879,0.8689500114235867,0.8566538781185553,0.8542889115291057,0.8552573641961625,0.8539844845280636,0.8408377784021135,0.7890652757510529,0.668701137278862,0.5201397206561853,0.4301062754924432,0.40970621525647744,0.43360692716231797,0.45985237206629775,0.4575983958897162,0.41539290548876795,0.33756103665870346,0.23322241361906607,0.1026828119355857,-0.04799091059071075,-0.20546003028759682,-0.3473901511965629,-0.4596122583100361,-0.5428141396407461,-0.6065066013279754,-0.6564398399313947,-0.6975385834949065,-0.7364070685883265,-0.7736708896033434,-0.8019507308617555,-0.8219955767308659,-0.833002219065776,-0.8404338449243438,-0.8524120931710314,-0.8765901716310404,-0.9108461677296814,-0.9405840359848522,-0.9528125630600431,-0.9435102003183858,-0.9052580539455263,-0.8172311762933334,-0.6732908155995216,-0.5152854585734362,-0.39876995095834983,-0.3466478897977123,-0.35360967576053,-0.40974975921136303,-0.4968010141873489,-0.5797921306588533,-0.6313599666994925,-0.65289155559799,-0.652730112634906,-0.6288452440816945,-0.585021197011712,-0.5203332444272948,-0.4358184983875199,-0.34979447706700306,-0.2810552408391614,-0.22821962982446378,-0.1711552179078559,-0.07932990392326432,0.03763064981331363,0.16991487616886672,0.29342579304377225,0.39772633146565234,0.48222471683851004,0.5565242377345074,0.625341061029471,0.6889176132380171,0.7513995113287582,0.8010894424561456,0.8310260847174172,0.83355376375618,0.8191296218425959,0.8051275397626056,0.8052838889444571,0.8153084246071355,0.7954822881309334,0.6924401807363192,0.6087509750465779,0.6748069110677111,0.7891786203970576,0.8604762127444847,0.8973328911635305,0.9181985279299881,0.9281361807471977,0.9179351682952122,0.8361150020988536,0.5908927102861362,0.27260713436323,0.07763767086911663,0.030046491740389786,0.09823783370293214,0.2118572625755969,0.29939858651696866,0.31777064490431783,0.2609343117762161,0.14036274359167278,-0.013383103916383978,-0.14536846349926247,-0.22722664826947742,-0.2710478449079708,-0.3054275403118912,-0.3521244743344797,-0.4086746700838442,-0.4632686072184293,-0.5093894090562697,-0.5476371576080601,-0.5866391396162683,-0.6389566324233591,-0.7054771794850737,-0.7779186550909214,-0.84008118884883,-0.8823619862097158,-0.9095208379510619,-0.9288945438723947,-0.9289163320909165,-0.8868519673347643,-0.8002079328885473,-0.6853074595631605,-0.5510898761466961,-0.42385992333899575,-0.3225568903935013,-0.255471125413648,-0.22349143992328852,-0.22388302072821248,-0.27102985021736753,-0.3657446915554536,-0.49484634309243614,-0.623918432670242,-0.7252394143241976,-0.7853207396068874,-0.7989523948683647,-0.7621918533263838,-0.6652019552874078,-0.506169664620361,-0.30050756405256873,-0.07663739881400233,0.12514187816442368,0.27804677291018215,0.3828582567387786,0.45692234900183576,0.5164226425308239,0.571548342325288,0.6238051630091177,0.680694364733869,0.7372822676185478,0.7856701394740759,0.8237856665572807,0.8513941273773716,0.8627157949588791,0.8564950070561808,0.8331596836222172,0.8111977675685343,0.8037725350420076,0.8182255516491116,0.8445627925010373,0.8604827786542295,0.8568953199328532,0.8451969901858234,0.8408279364545675,0.8452030905336609,0.8510448212040351,0.8553457865685622,0.8506671072881717,0.8360418813811478,0.8109316182681551,0.7678269947081681,0.6961620027021151,0.5898202758375641,0.4680036261629494,0.3678452671116418,0.30784505709651866,0.28597930216938594,0.2875385756266704,0.28114457356898465,0.23297532089535952,0.13729640771191756,0.013371972217178193,-0.10186039939997463,-0.1972276479774588,-0.27769742668453684,-0.34907165697255493,-0.4117332504801815,-0.4707598519720007,-0.5254452025661348,-0.5674441874743701,-0.5971206394154019,-0.6259642805015184,-0.6636755363157169,-0.7049455246377753,-0.7335586989033244,-0.7489998899306045,-0.7699538530016249,-0.7985999992086442,-0.8256834819430164,-0.8409690733593758,-0.844208075131729,-0.8318188150786245,-0.7872358585446481,-0.6897078673862338,-0.5578920823896838,-0.4468320169502095,-0.38872135280462694,-0.3739185083353411,-0.3928826456555663,-0.4439580105899552,-0.5220031112219885,-0.6102132980284537,-0.6732130902299747,-0.7052995235205921,-0.7082487861094832,-0.6910956367793148,-0.6632189278502321,-0.6389928210990363,-0.6267826703470079,-0.6333480088086596,-0.6654644351532703,-0.7173341783696302,-0.7716729980515094,-0.8106524395757688,-0.8301236337952875,-0.8348342303996499,-0.8346095239042869,-0.828958601718822,-0.7909304649671707,-0.6035488892480411,0.18245005042007129,0.8027843138209134,0.9312435795537934,0.9669105424613124,0.9795341337598477,0.9831268784353597,0.98172393652529,0.9776028871175771,0.9728234094982054,0.9687068973451014,0.9649950288582984,0.9563031448244427,0.9367846359509182,0.9086252565166716,0.8809224385451161,0.8621908090248518,0.8544933766729769,0.8472579929633713,0.8377915120574655,0.8237669913058736,0.7944276883590982,0.7308559765414091,0.6301818663523164,0.5121963760512679,0.4076432768458017,0.330160366699584,0.2713336658220282,0.21963197329192422,0.1779685948231195,0.13975657150083765,0.08138242814127132,-0.00361166918539482,-0.1030217266702376,-0.21064992643849906,-0.32047202304683586,-0.4239567313707272,-0.5147970068010137,-0.5919563323407194,-0.6471422473181969,-0.6866744886749785,-0.7260734030641137,-0.7760519536304966,-0.825847823935385,-0.8617928775135384,-0.8814923290389082,-0.8897100560205963,-0.8917092930254364,-0.8943193052116695,-0.9069759283686767,-0.9294085117383447,-0.9458578609584436,-0.940551856128115,-0.901584258774859,-0.8264402560087563,-0.7248243801486419,-0.6077980853832705,-0.4787965926725757,-0.3438604713510058,-0.2243268747757899,-0.14449188502574978,-0.12234741876748265,-0.1741872793637537,-0.301890412939817,-0.45302553381815236,-0.5361878673092606,-0.5034143392416399,-0.3250178482376809,-0.0224186775886627,0.2525292135819398,0.41306660957692115,0.48823705301125364,0.5174993350843433,0.5274592213165967,0.5321253286685667,0.5308353129151792,0.5206443172582556,0.4962233518590395,0.46630008345385804,0.4562767012178331,0.4896331031999686,0.5507282814106462,0.61753484864705,0.6806614612280739,0.7320213130168355,0.7596069777433874,0.7649134035450664,0.763448266861944,0.7720365943583947,0.7866423553227468,0.791399274430921,0.7629523127866024,0.701102667767574,0.6476634893350298,0.6362229473793367,0.6545306744673881,0.6788797895595263,0.6956062597956412,0.68936159334233,0.6462053970314392,0.5710668107699631,0.4912336630006094,0.4154449613101551,0.3359527940769239,0.275142167561946,0.24081799974401524,0.22494224634181198,0.2040034015476178,0.16209920458507843,0.08860670990157517,0.0018577209108068063,-0.07549353640386071,-0.13912658360601998,-0.19286698229040478,-0.23891856916468265,-0.2812843631405003,-0.33168124937851284,-0.39635358477129146,-0.46460551789819954,-0.530871882503172,-0.5846729044449862,-0.630159699936581,-0.6733438774605275,-0.7101789056533684,-0.7410436350166517,-0.7712003806793001,-0.799707928043117,-0.8272750055210094,-0.8451932900680564,-0.8475392022004878,-0.8520211186779845,-0.8586631090084853,-0.8455438212187654,-0.7719920896401558,-0.6299129528721927,-0.4944136482459164,-0.4265361024299626,-0.43766271452316186,-0.4897251392855711,-0.5318735569253504,-0.5525818683762385,-0.5605379374750518,-0.5637119236088886,-0.5631272546312575,-0.5491550169606384,-0.5071229773289253,-0.44905076754816464,-0.40302892423836173,-0.37654226296919013,-0.35103171989757226,-0.3042222255507629,-0.23817006614682595,-0.1536769893552892,-0.059088005684219486,0.033524743232628725,0.12414667694272234,0.21121375401640527,0.3038027230404342,0.4041427930071778,0.5102091446946334,0.6116937210130188,0.705440190627647,0.7799601599206881,0.8262090607515549,0.852714894609422,0.8709762072158053,0.8738543311527578,0.8651435387490775,0.8555352686686358,0.8541059981318925,0.8623606502630842,0.8774683995792562,0.888307351140877,0.8817474001560922,0.8621911981470184,0.8492733245973989,0.8455270616857162,0.8420004749338061,0.8342698783267918,0.8295455834900963,0.8358487262187855,0.8497559314529141,0.8411916989881416,0.7260614268769586,0.4850881505209419,0.23508171648572787,0.04471816522398104,-0.06842385676837959,-0.10315737379282837,-0.08354527898154722,-0.0232108165025032,0.07344964461832489,0.18045787983558007,0.2614224617943677,0.2823689298670846,0.2309124337623384,0.12255885882947518,-0.02852458714976703,-0.18554618127810482,-0.3313122863902405,-0.45455479082084765,-0.554753816006079,-0.6360322537449233,-0.6905765903362993,-0.7234142380461804,-0.7448640620583232,-0.7669311484664466,-0.7909646278482337,-0.8193441236060556,-0.8548263242294868,-0.8819487734584969,-0.8830421718353402,-0.8566854425208473,-0.8265198106660852,-0.8101266850627304,-0.8112230394734918,-0.8167883528706676,-0.804471292051901,-0.7745572999154247,-0.7349887272027343,-0.6881319665609549,-0.6457253363955984,-0.6128905822379066,-0.5830982873370157,-0.5514688829069391,-0.5199179838675255,-0.5000571152889045,-0.4984915933391123,-0.5189818447427146,-0.5423008803135897,-0.5486569558557435,-0.5310271723235462,-0.48121031306501444,-0.3974999154133129,-0.27493749627864494,-0.1236323709652752,0.03860967295569471,0.1978277541803014,0.35538692870614735,0.4974439060855515,0.6159194531582523,0.7044389091337814,0.7813083808977658,0.8404940381785201,0.8706303227545333,0.8723960488693454,0.8631185331893195,0.8590184198376217,0.8646850978424299,0.8806407234690332,0.8971175468766132,0.8965093143478898,0.8763472601735162,0.8621098757265744,0.8677859010035571,0.8812635260014345,0.8931713359352761,0.8994820654895578,0.887903571428141,0.8447832910942488,0.7723535570421456,0.6833887833378076,0.5911197456102356,0.5001310751108137,0.3939403612155948,0.2640263919669897,0.1204088473786595,-0.01691788265239626,-0.11292064559702271,-0.15291510024658278,-0.14761942329904743,-0.11486858519741622,-0.07450538589251812,-0.043905517973839604,-0.038404687477629526,-0.07467585721666724,-0.14861817139066472,-0.2469635568273284,-0.37150705944922974,-0.5129326705012898,-0.6549516400995515,-0.7693375873916699,-0.835684939791053,-0.8708284852978955,-0.8862765176897195,-0.8693279873492046,-0.814993412319821,-0.7621689684385202,-0.7499371231754217,-0.7759171740868143,-0.8100729876637924,-0.8348223332115319,-0.8425219984076968,-0.8319490299717872,-0.7925282012873224,-0.7208773788330625,-0.621882678664266,-0.5071190213153736,-0.3939438293234003,-0.298318240557921,-0.24399751255015736,-0.2558630720339928,-0.3314401819642536,-0.4426245020207053,-0.5412687927484394,-0.6069288239995474,-0.6362066471211513,-0.62849684899799,-0.5849748711826654,-0.5125188114639907,-0.4252236742120448,-0.33159315963404223,-0.2425786168841757,-0.15183313873435242,-0.060468514591210325,0.03733521204155084,0.13119425355385103,0.20456221769139107,0.25158253610219283,0.2859120522726369,0.31831226077599817,0.36469834815927155,0.44781774516191264,0.558007020266992,0.6667143846578926,0.7352615196964606,0.7587438954965544,0.7617454376064798,0.770528978176719,0.7922773188865164,0.818614966966432,0.8391545275764263,0.8512575936725677,0.8547465440619387,0.8621680493192746,0.8777231647241774,0.8942111112811583,0.8991655525387886,0.8901544571946427,0.8686432979190977,0.8421066680199288,0.8168501435208035,0.7925379881282563,0.7588911994740674,0.7147477943197409,0.6589007659044833,0.5812602191579798,0.47223826564130134,0.33998494599406076,0.21863146304467837,0.14388482170043695,0.12443235579442649,0.15078398613726718,0.18848562149526266,0.19222197443938777,0.13369331906097745,0.01463273676484709,-0.14329944034294004,-0.3080525334331052,-0.45248638451226836,-0.5702095659349691,-0.6706534663039097,-0.7517708565546838,-0.8058238835081413,-0.834518749372907,-0.8384769407575681,-0.8293284222702783,-0.8236733115459077,-0.8255561409770253,-0.8292519656129526,-0.834221339670583,-0.8499917700200545,-0.8794869910825928,-0.9103681993802057,-0.9162310665910066,-0.8669482425763798,-0.7702993713991869,-0.6610560430353696,-0.5674799174373122,-0.4931151042842799,-0.4493556871142687,-0.42185163868510855,-0.38067515824998704,-0.29195450503414094,-0.15575810077093924,-0.024657653022583995,0.06298722336397966,0.10678909220293609,0.12057356307147589,0.11688656030403546,0.1016061266804166,0.07434051966754456,0.04300678055599505,0.04784341125520541,0.13313401730500113,0.26757447729223444,0.38050571323841276,0.4485429907520661,0.4849017508339093,0.5035468479537595,0.513941011415833,0.5190790306848994,0.5192556542183434,0.5133591785153284,0.4893771018301037,0.39312368572032985,0.1323134963468378,-0.16275397930559798,-0.37890076697525643,-0.5677018668622682,-0.7316313817463002,-0.8276237418075599,-0.8741757026429011,-0.8970142379022724,-0.899441217021573,-0.8792382314029636,-0.7907120951350808,-0.2492092539114021,0.7540119211522629,0.9339820853364211,0.96934735232109,0.9803475677014005,0.9828519966595992,0.9802653274888222,0.9725786228860193,0.9564671203015594,0.9242834607654811,0.8653756840175996,0.7715842273250895,0.6496697017542176,0.521110771253538,0.40863266830571243,0.3170681417792841,0.229244576101827,0.12797182313315725,0.012727924884287884,-0.12417043113837156,-0.2560911069376455,-0.3540989038231937,-0.40435120074173164,-0.42845986509615697,-0.45196313492042534,-0.4860369251134334,-0.5404295546337715,-0.6123433348610605,-0.6947216072359437,-0.766950069127388,-0.8138552047994312,-0.8402781491552996,-0.863159746694364,-0.8890105957141253,-0.9122607806193557,-0.9243263526717587,-0.918740335721191,-0.893132020130842,-0.8531458287072317,-0.8130837190082641,-0.7857773558407679,-0.7736222574455874,-0.7648771800236114,-0.7574087254792682,-0.7573862599176665,-0.762570206618888,-0.7547754258142219,-0.7119186124900538,-0.6246584804202674,-0.5283795250004578,-0.4681391615065111,-0.4599699212950487,-0.484751191464832,-0.520560888253299,-0.5477941442394507,-0.5585018168192502,-0.5487900147311009,-0.5050194630741796,-0.41204534421536654,-0.2676308411705659,-0.0729826765576903,0.13412911689661378,0.3031773793564002,0.41835235082727834,0.5002020119294334,0.5702124723129066,0.6354319394712072,0.7049314398997343,0.7629941560469649,0.7931186237400542,0.8084797987569933,0.8238129602762482,0.8459749793371126,0.8696147344154188,0.8860320490099365,0.8894345524154244,0.880023462819908,0.8591308611398578,0.8352328133572152,0.8173191810729925,0.8056988529320694,0.7935579605167937,0.77277562928983,0.7317666751943673,0.6500667369463891,0.5292898116809438,0.40911659796319777,0.3270300985489126,0.28238671571850116,0.25410846813554594,0.2305736588470143,0.2259910200693212,0.23858815593089902,0.26255863543155306,0.3037388898493168,0.35779106634021124,0.4005212011661457,0.41509720868900546,0.39350449351366357,0.34423230931907145,0.2914964440195375,0.2760910168444552,0.3260951011648261,0.4420164763220082,0.5602586164396599,0.6444281649261259,0.6885353583077376,0.6920201137036013,0.6340652233422305,0.4473154414447377,0.003761881447519549,-0.5038624587985007,-0.7432414118546774,-0.8329056289928997,-0.8663937186363597,-0.8761941583196995,-0.8708857652139768,-0.8340132923259338,-0.7491230244759897,-0.635846193060992,-0.532529653303863,-0.45775838331626606,-0.4159796808122572,-0.4323626209121145,-0.5199736731787252,-0.6509526003305,-0.7600146704097316,-0.8181672324769917,-0.8429834486681912,-0.8495020256789366,-0.834942123034461,-0.7883157564156351,-0.7034982934142693,-0.6010645547995814,-0.5005459232719092,-0.4151726700891812,-0.329688966505235,-0.2083644412946763,-0.015468312002206408,0.21751839794251449,0.4078193193317475,0.5124750144822279,0.5451813852923698,0.5506719395872021,0.5725173445784635,0.6262069511451928,0.7123237981522803,0.8077595439163314,0.8692026262919773,0.8910670247896434,0.899828121346607,0.900978056644924,0.8917802780465981,0.8610435212245874,0.7917555208018403,0.7014906605146435,0.6467080191528463,0.6675701236941285,0.7390683570175525,0.7894020162474891,0.7969249063011278,0.7896354835686155,0.7902333110753329,0.7982487748514406,0.7791183260201263,0.6139061947145847,0.2595416782274157,-0.004776040475849439,-0.11732993511251942,-0.13388819063583787,-0.07860962670237819,0.01737600833486101,0.10856498140148955,0.15754937809925304,0.15825192199739876,0.09575051016153599,-0.037376164282895724,-0.20196211658971655,-0.3509025517536841,-0.47460089524773047,-0.5683069802093232,-0.6405631905521717,-0.6988528396830591,-0.7535032077984458,-0.8093946550773665,-0.8594478584338301,-0.8896870424166752,-0.8966826856220903,-0.884093810307289,-0.8586926782467293,-0.824448270997602,-0.7859050016271234,-0.767145424008502,-0.7798852295698004,-0.8160882352178607,-0.8548762784641405,-0.879335342596354,-0.8717432784264024,-0.8209180127400579,-0.7613445449614401,-0.7278604793580279,-0.7192442841422434,-0.7202158703254063,-0.7277945429858685,-0.7468562216543166,-0.7655750742997193,-0.763201337482612,-0.7164444817054596,-0.6090508163382258,-0.4671770486419326,-0.35412922754142556,-0.30838487218984006,-0.3096691714705224,-0.3157401674084929,-0.30203624580670724,-0.2586108033892677,-0.18324256738159703,-0.07634997439410883,0.056705972738499894,0.2027365066801582,0.3346222278922343,0.4275583907931643,0.4820476070927743,0.5123617054759814,0.532890104933407,0.5491309020316146,0.5819760201270561,0.645228882459192,0.7216655228909016,0.7889157199438803,0.8369872370727547,0.8694895114752648,0.8955452173411991,0.9192718600467246,0.9355640860307033,0.9362358948077818,0.9217761754272419,0.9105164994910776,0.9138223968970602,0.9206889629331992,0.9203507659516428,0.9090599951539392,0.8908168560756103,0.8778188505797451,0.8675272859546546,0.8439426316522036,0.7981415154216406,0.7390656403899069,0.6824866996651097,0.6408861402576937,0.6147206827067618,0.5898282771203623,0.5348109108694473,0.43409769408879717,0.3121623999377448,0.18759763285136513,0.06635906107144252,-0.052294970783099685,-0.17086834769594822,-0.29111620589535897,-0.4059981733019844,-0.495234276079603,-0.5384338150331172,-0.5409918580140931,-0.5233728023080193,-0.5084438927107476,-0.504401647903512,-0.5218493929525013,-0.5684194600598279,-0.6492936299628185,-0.7486593659360204,-0.8341998548396287,-0.901532714181847,-0.9419087993824063,-0.9441305632909812,-0.9055788740242757,-0.8319136305781115,-0.7342261458626487,-0.6233308240667683,-0.5285537816601195,-0.45544068150431777,-0.4033884541598604,-0.3770681570382464,-0.38419505685600414,-0.43223830095629434,-0.5107232780958948,-0.5882362391828158,-0.6329367030239348,-0.6419136402146677,-0.6218225556688689,-0.5649175604811197,-0.47733123090212054,-0.37588769309619346,-0.2864129572726419,-0.21659917614742288,-0.16400191126189176,-0.12390028403626124,-0.06848633612305607,-0.0012409491742311634,0.06240476789278887,0.10913846705130209,0.15857722872371746,0.23654366995895026,0.3411624200154773,0.45828556330588194,0.5632713129478406,0.6504963440424311,0.7213106062175983,0.7697496887410588,0.7922018253295944,0.7972314308942804,0.7951003746572309,0.7943523881830308,0.8000492576547745,0.8140145997523757,0.8307069885963195,0.8383498551862449,0.8297733799347148,0.8137020649426873,0.8043840994384441,0.8028596058035486,0.807625476417353,0.8123220739761943,0.8030526261366508,0.766941156955804,0.6918072662054507,0.5669455567949897,0.4099069238292537,0.27380594693280325,0.19691937118495026,0.16312979880449832,0.13679291560042733,0.10345999662703136,0.06743914594858118,0.0395941040817702,0.012206293268495524,-0.0333343521314614,-0.10688544344784356,-0.20415760629669255,-0.30953284108671836,-0.41099552628755887,-0.5058846573416071,-0.5860412095966968,-0.6398413583783968,-0.6719328334972188,-0.6862193814321857,-0.6823840022623513,-0.6678841348318165,-0.6505402532954996,-0.6430671927155721,-0.6577873829551927,-0.6925447161458657,-0.7392849785846568,-0.7853087942337805,-0.8195669627618425,-0.8360029925564142,-0.833869255257604,-0.8070167039746091,-0.73935887609908,-0.6235390719852102,-0.48175108019681867,-0.3625564474269008,-0.2935454631598113,-0.2943518023350576,-0.3672640836641709,-0.49618443939017093,-0.6259971692609152,-0.7125676708376505,-0.759020706722002,-0.7717337289960486,-0.7476607078901593,-0.6738090021329991,-0.5296005249271878,-0.3417974240715902,-0.18657566657741817,-0.11625380752496338,-0.10221959926069606,-0.09257663051696455,-0.05835181241951037,-0.005363403265903854,0.05344397873380617,0.12666960955275444,0.21163479706207763,0.2737989614510686,0.28685072922129257,0.23306304521152293,0.09419266447841385,-0.1467480928696403,-0.4440095650433851,-0.6419279365461592,-0.6195820204330343,-0.24528572183764635,0.4919477628768197,0.857029911446309,0.9511047793005014,0.9777740894129638,0.9852562239723751,0.9860188686784414,0.983774716144752,0.9799667246488138,0.9755040625978737,0.9701440860609706,0.9624223005444416,0.9483266460955401,0.9181366583972307,0.842563833139572,0.6699263419015538,0.4201478729244326,0.22107708329729234,0.11982050256857714,0.08271082756159169,0.06119407700342012,0.03292649842810047,0.000631437198856476,-0.028728662594081033,-0.05213329501558731,-0.0773844534535285,-0.1213687533419305,-0.18870101332404693,-0.26792223039129925,-0.3498844705606997,-0.42473634093296425,-0.4982248784362564,-0.5727449658685322,-0.6421401707410559,-0.706587563265257,-0.7651131183096992,-0.813193473496638,-0.8475200288437614,-0.873473954221234,-0.8888646846458294,-0.892588944197323,-0.8933795104246152,-0.8984827543201624,-0.9100473283135398,-0.9256664517943626,-0.937360528806331,-0.9253650160531444,-0.8692207773309563,-0.7817390315310248,-0.6988497704067352,-0.6490980403058055,-0.6289706198610288,-0.632097474267383,-0.6576502278557772,-0.7048152017446722,-0.7594465976840914,-0.8028422113671276,-0.8236788222614623,-0.8118406859021218,-0.7503160190311579,-0.6361423093578334,-0.4879981323426886,-0.34086130956652877,-0.21386024480054294,-0.12176825612102796,-0.06697440524378051,-0.019962940481638804,0.07382136920873879,0.24313908998233374,0.43469513078047123,0.5780166971848513,0.6642531695049775,0.7140447590647455,0.743195512086572,0.7629153271321647,0.7809107791768091,0.7971123399154472,0.8101474515776454,0.8187830079161968,0.8239540071261008,0.8251262960005897,0.8273235588399892,0.8369799836406377,0.8548746316903825,0.8744031528669596,0.8844950491383771,0.8759343636573256,0.8556368571426604,0.8364237130710863,0.8317716762417962,0.8365834212541772,0.8349895906745167,0.7991340195158315,0.7082429401750785,0.5615746676776886,0.3809814223833432,0.22342899297584737,0.12309569417820626,0.07634037795304957,0.059241875486978665,0.04324193297187659,0.013174949901167032,-0.034708976839265424,-0.10130740046779971,-0.18174839628791153,-0.2660041482961513,-0.3419920503517274,-0.3992217597604975,-0.44484518812408047,-0.48246529628403606,-0.510416694920723,-0.5262172183569873,-0.5392577996001152,-0.565319597125172,-0.6191023638436518,-0.694967629649399,-0.7639325534389976,-0.8090091716198554,-0.8324619123076843,-0.8393147777124392,-0.8384669967873349,-0.8362052262253394,-0.8366326937982018,-0.8402799178863911,-0.8431309420435036,-0.8392267631083609,-0.8295429424829592,-0.8129752784648542,-0.7945840638965359,-0.777910133041805,-0.7583461137703386,-0.7306330586302057,-0.697754580247645,-0.6615138141908934,-0.634827251806182,-0.6137525470220214,-0.5809567615897642,-0.5344378633006348,-0.4838287881785484,-0.4363959978745907,-0.3917812981428647,-0.3483757137905361,-0.3009089135273638,-0.24588336586116902,-0.17638211635652715,-0.09741003812807267,0.0009482203173959453,0.13395086852878738,0.29210760804879304,0.43750908122917753,0.5449309844986393,0.6187775055969442,0.6789888062872711,0.7275732716347979,0.7709508034590551,0.8207513695461327,0.8590771571261122,0.871538055984254,0.8607990199982691,0.8450148949122889,0.8464067570643875,0.8695207785439538,0.900913902507271,0.9285475332451861,0.9431598799383993,0.9420137746617552,0.9308734975166388,0.9159823648645748,0.9012821393134673,0.8933736281622859,0.8886466499772886,0.8775198346184394,0.8531132939301174,0.813305593096939,0.7548329292024125,0.6761865179703095,0.5992078619059603,0.5606348048393434,0.558946160321215,0.5623800776743636,0.5335855759335089,0.45700954069692906,0.3340281080282127,0.1811280474605878,0.017803627795561754,-0.14334916870932343,-0.2828053140764819,-0.3995677760791792,-0.49490100995686964,-0.551342265449747,-0.5621675519828299,-0.5400633782021291,-0.5130455208197416,-0.501551342832847,-0.5243799776162591,-0.5928163351170294,-0.7029329118320279,-0.8204754390165173,-0.902374912523571,-0.9459330083333909,-0.9627967775492423,-0.9670604626620388,-0.9651790676256252,-0.9604144129385598,-0.9522504563472896,-0.9337682564145822,-0.8899072558671464,-0.8028853829465376,-0.6987381669311734,-0.6359476300349938,-0.6315408301504286,-0.6621674705312037,-0.7089452510612158,-0.7697276095579079,-0.8340287904408192,-0.8827998148189196,-0.9113999346455239,-0.9260737154773289,-0.9329676874874782,-0.9345060713349695,-0.9331633986000304,-0.9298294858333052,-0.9193728099157586,-0.8829593477421528,-0.7232483644240114,0.020118747155494464,0.7222211244487959,0.8840547674747862,0.9309042411055068,0.9486499429643355,0.9543880671496602,0.953733368640933,0.9491953306548159,0.9428736669034365,0.9381926772829609,0.9373838806010594,0.9418424593112336,0.9483876526929282,0.9504650059605901,0.9450216749091337,0.9362172128729959,0.9248063930920826,0.9112745154837686,0.8944365100582257,0.8856465331469143,0.892090056190463,0.9032070064852996,0.8941995359446465,0.8570451991011954,0.8123664957349224,0.7735375005899431,0.7440138611686206,0.7165814142161303,0.6610183588960904,0.5356180572298029,0.3637184107029212,0.2104149651953345,0.07928549931716226,-0.06350941847294474,-0.22142244226979238,-0.37776858941533786,-0.5066827756523528,-0.5928401346738558,-0.6437961075073412,-0.6669383550655108,-0.6595160353473791,-0.6244871992017597,-0.5713176843951878,-0.5217341100387253,-0.4918451711343356,-0.48844684786334097,-0.5095147019606954,-0.5501473071767033,-0.6104686769271548,-0.6737764081634305,-0.7174661905130618,-0.7450236090912219,-0.7673494531157944,-0.7812638116520579,-0.7886357863220956,-0.7964126280830638,-0.808550557716648,-0.8312272559606031,-0.8553168689418641,-0.8631595306332358,-0.8504598810825263,-0.8273390673761258,-0.7933662228343514,-0.7521853291565472,-0.7010728247379336,-0.6253575066284848,-0.523223051626401,-0.43022041984176135,-0.390328488295395,-0.4183646960706831,-0.4923358784079487,-0.5742627255774514,-0.6381757279074085,-0.6797043912490759,-0.7003466407933404,-0.7024218458800165,-0.683489309652142,-0.6386566750196023,-0.5601042468860975,-0.4389574762175195,-0.2744714083323768,-0.08720974586800259,0.10231378829614536,0.26159200804588767,0.37342553771401504,0.45047118637865585,0.511675658313476,0.571703905223303,0.6283816485372646,0.6734138893500968,0.7050384771359947,0.7328482187323319,0.7713380563653075,0.8237625193386385,0.8676772171276208,0.8879290662972207,0.8960764659365369,0.9078965542484556,0.9269735771385558,0.9378866521188465,0.9310205891828691,0.9224205909619025,0.9211048926304064,0.9222376374660851,0.9233031007366457,0.9237060099914203,0.9196624642264387,0.9096008352651229,0.8907877511939323,0.8610633557528006,0.8307732592313025,0.8177797264446991,0.816911147915999,0.8173329317926723,0.8065076471430661,0.7808232627671999,0.743599565199499,0.6996459757432967,0.6399215948186348,0.551404277375673,0.41822842783222586,0.2311659217631571,0.02155278864893967,-0.16279135425198746,-0.3161501718397555,-0.45142127514906494,-0.5653603704784603,-0.6480421046747877,-0.7035838013600187,-0.7498419270716838,-0.7923553570874111,-0.8382569190695315,-0.88138058855988,-0.9119026377177779,-0.9261783766745629,-0.9301386677453423,-0.931185414647569,-0.9349015275485432,-0.9391353158149254,-0.9400864018333016,-0.9293424151484272,-0.8938638816594384,-0.8253742174434273,-0.7354543558842004,-0.6538159154302019,-0.5996360816245035,-0.569444788266706,-0.5648561832961835,-0.5888572194789767,-0.6329302733027938,-0.6735121006711435,-0.697227582934028,-0.7080993331257817,-0.7144283195778545,-0.7140619116788995,-0.701563865286468,-0.6679485556455886,-0.6057202058644887,-0.5163290752670286,-0.41616726667217885,-0.31074973268989686,-0.20781634977238905,-0.11368284887619219,-0.032113079952266116,0.04662428992970223,0.13365069897694082,0.23567096380319283,0.36379898790421766,0.5057914501367904,0.6316059418631282,0.7213619780797128,0.7835990213976064,0.8221525354705619,0.8360593272296896,0.8351234751077967,0.8351125730265725,0.8434937205805922,0.8555085625466585,0.8675645995284543,0.8758935053399892,0.8851094758478849,0.899166129070967,0.9155348558420753,0.9255972014217766,0.9271327588878387,0.9205778961046319,0.906359842390976,0.8866410076411321,0.8581293214078658,0.8106586895405967,0.7363540076222661,0.6461017622032316,0.554192300522166,0.471724093353274,0.4047366827425866,0.3538155292138314,0.3060831468124458,0.25571557845542064,0.2086907870273909,0.16799571117391018,0.13726888740729765,0.11796193283016447,0.0995011232952236,0.052444182798925036,-0.05112558331432287,-0.20529089158574296,-0.36837678181003725,-0.5043926018061023,-0.5974630565003642,-0.6509192857200728,-0.6714571783303869,-0.6787266669136899,-0.6948977759649572,-0.7266395131312201,-0.7592998648245868,-0.7899313055504759,-0.824868246071528,-0.861555608827326,-0.8880057510061579,-0.892027788021582,-0.8709370963497491,-0.8285207662119716,-0.7590120474661237,-0.6527510988793525,-0.5292478971730645,-0.4311307865378621,-0.3790275750254231,-0.3706062834347923,-0.41675836581627007,-0.5095573844759934,-0.6161428663890824,-0.691877599388702,-0.7227173701690149,-0.7176561785589026,-0.6922776226136031,-0.6526614471336609,-0.5913542876332595,-0.49649073688218,-0.36589307883379046,-0.22201065553514013,-0.09681492388368093,-0.0032540968933084716,0.07059731573914743,0.14035175731560506,0.22191628003360045,0.3208944863147572,0.43703230437830076,0.5397110413409567,0.5929366474881252,0.603915719625449,0.5974559992090899,0.5840577517080044,0.57139229364519,0.5723818986500105,0.5961204141731299,0.6451317719068393,0.7066232653868406,0.7658967964089665,0.816395071265219,0.8472861861045883,0.850352747189363,0.8370355841673726,0.8350484838653579,0.8462873716944525,0.8526302791196064,0.8450190320894997,0.8220235064088871,0.7769998934255617,0.7045979569054817,0.6138876048550237,0.5325935990676653,0.4827348392652136,0.4670357927252414,0.4806551049330536,0.5105190470705139,0.5349408563444825,0.5307459796311997,0.48074648133783454,0.3772094746033138,0.22047585593404884,0.030949922345814257,-0.14803126146912846,-0.27859588564781557,-0.35233391885918575,-0.36406401462577226,-0.3182193099205708,-0.23595603424825654,-0.17288548749278057,-0.18567225582536032,-0.2454852599380834,-0.31102753740974726,-0.38022544977312134,-0.4654894803103514,-0.5823813959849696,-0.7432131832596335,-0.8369445419170388,-0.7458496347902431,-0.6483399760324994,-0.6158743397902225,-0.6272146894941115,-0.6447776861202079,-0.6354576140941256,-0.5909985539471009,-0.5434768682123563,-0.5098080497228419,-0.4806367971615414,-0.4546300013755837,-0.444658242863295,-0.4589588720889482,-0.49548919298369243,-0.5330547815297391,-0.5513223264657594,-0.5509509960390985,-0.5483223341144247,-0.5616321488169749,-0.589606622222225,-0.6213718113860578,-0.6413341551257226,-0.6274806437202721,-0.5657986164666873,-0.46072364901911556,-0.32475545539814615,-0.18030999682799617,-0.031793995368985604,0.12355284410494723,0.28088157057556773,0.4228884154681895,0.52134242861433,0.5703808355067982,0.5840390926033489,0.5767838431970301,0.5608664050063017,0.5522290241210052,0.577895193891749,0.6412710178005802,0.7185933837516502,0.7778717041145106,0.8118385482257008,0.8189194107253028,0.7965741454545661,0.7552603458802005,0.7260262936555854,0.7322281695512823,0.7609043309360851,0.7976978562028186,0.8256728270996911,0.8368922310020013,0.8271001354828273,0.7870049748371336,0.6862661999411578,0.46942613486230045,0.21518198205699532,0.07118429075202398,0.03795409135519153,0.05990172821706704,0.08716709730853502,0.056421483168705856,-0.07157191415145614,-0.27258356957168317,-0.4693113584595125,-0.6137263482946607,-0.7096088826893041,-0.7715025044432262,-0.8125613411858303,-0.8376209539104036,-0.8384881259944479,-0.7755770120481548,-0.407462556252429,0.5962066527579865,0.8833040049637666,0.930333991681283,0.9431719979861721,0.9491466929435511,0.949926173531412,0.9347884927758197,0.8800013212803522,0.7345080286411477,0.33620469294119765,-0.4023259660149016,-0.7495071694906228,-0.8018654022526266,-0.7922628172280897,-0.7702212705463174,-0.7436009912952577,-0.7195720220408186,-0.7038349592655239,-0.6874525262734884,-0.6740750433447523,-0.6842771733185231,-0.731746494415404,-0.7902806444529684,-0.8284867146074716,-0.841360925156196,-0.8348157241856512,-0.8152969553456437,-0.7857789463475547,-0.7420802975029771,-0.6842937651079183,-0.6145007577118586,-0.541804940006749,-0.4804945791191717,-0.42954953809656493,-0.3694615628072199,-0.2767310483342976,-0.13624264950492482,0.03483644163384303,0.20230938302190712,0.3227209875894739,0.38859976260422885,0.4151896665361883,0.4249294455590553,0.4185930117312816,0.3907849145199118,0.37210888879153226,0.40406407970643127,0.5002680649152412,0.604998985595931,0.6811790116024643,0.738658318773533,0.7810899347041144,0.8051030393669194,0.8131068968504631,0.8156829800032895,0.817520803478915,0.8177814971821239,0.8157824484914634,0.8113364691772352,0.8009263367729758,0.7620032551541631,0.678396950798744,0.5426709654223522,0.39164962020977645,0.28577053715552947,0.24851191280544607,0.2677437971202815,0.31215801187546294,0.3441105261229943,0.34304313448192575,0.312106358762241,0.2524493428803866,0.17435538669952338,0.08750343103447351,-0.0007131791987144315,-0.1044930972918103,-0.23907533712770024,-0.4046230330384657,-0.5694390734867689,-0.7034113577818971,-0.7917019665528717,-0.835946873489866,-0.8429869415228999,-0.8230539426999683,-0.7850066813388158,-0.7498729694384143,-0.7463068305380818,-0.7419357332338363,-0.6837459466103605,-0.6786018402351454,-0.7218987177388708,-0.7817707166311814,-0.8414280348400699,-0.8731343749735859,-0.8502048078283599,-0.7544531670295913,-0.5900521587348624,-0.3907295336789183,-0.19558154853006016,-0.01699754027043428,0.14665695219677102,0.2269614398948962,0.19779676610992492,0.17608333410974042,0.18595614069551752,0.19786996894410191,0.1688676450448508,0.09758455214744749,0.012204144346537561,-0.05452956746104266,-0.07901620017722857,-0.05220349710803191,0.020224113936736315,0.10919607426399763,0.18623892039251191,0.25033795531084213,0.3065870784978221,0.3366059692256618,0.3438121045785653,0.353710177691049,0.40086382317217173,0.5044379770453357,0.65060761036548,0.7742433082114983,0.8416063539070232,0.8761507642469579,0.9035067237572303,0.9209303034683451,0.9191500917765846,0.9061854155862403,0.8949675475123154,0.8864606735545353,0.8793323254528806,0.8731345084010071,0.8654223080342491,0.8562801135540982,0.8512012087348971,0.8427997018669446,0.8074956291200422,0.7239030110653307,0.6065149698477642,0.4904353407944533,0.3765184883661722,0.2507964709100181,0.11735195508545757,-0.0074976321941483594,-0.10061403850000475,-0.16483397078052814,-0.2260178197755303,-0.29531508361877556,-0.35811575894412345,-0.40111656561838444,-0.409059973855995,-0.3890835160806566,-0.36204330380695143,-0.36232230563877676,-0.39899678382122383,-0.4595826957621231,-0.5333494413166022,-0.6166622354522399,-0.6942163442504643,-0.7582176992553789,-0.8040773149082284,-0.8354044419611137,-0.8551370417765847,-0.8631630070027062,-0.8597776143505047,-0.8487728056822353,-0.8374252045969041,-0.8358682306461416,-0.8464852058457691,-0.865258315563676,-0.875108845494122,-0.8536855882994737,-0.7875644371270789,-0.7014000724064918,-0.6240411462289441,-0.5598810656047644,-0.4935148513098773,-0.4282090120691444,-0.3942191967081431,-0.4219656999739195,-0.5027387782489129,-0.5903793098811406,-0.6443381948758993,-0.6430252320279212,-0.5930621673442346,-0.515584877864046,-0.4346609609519846,-0.3583595655183571,-0.2866591352999608,-0.21105271709009413,-0.12155728178224025,0.007848046808509047,0.16310372165426057,0.29977348431870043,0.41057809077376023,0.4951863193690191,0.5560968657437887,0.6108555638305684,0.6637105059076204,0.7077945531581092,0.7393043878743324,0.7566972043182624,0.7640124745487785,0.7617036276286577,0.7518211969951037,0.739653201243693,0.7487652115841248,0.7781889291549127,0.8111437069544434,0.8342904265726324,0.8476978479133858,0.8516924204789839,0.8536069234438896,0.8509053942436853,0.8444940137314034,0.8415895729239532,0.8450038027223808,0.8529335487342985,0.86060099890355,0.8476101168511079,0.7870303851894317,0.6891073779050305,0.5938365199823767,0.5291619342145781,0.48729810379979105,0.4391319368095539,0.3574183814116148,0.24493893581166343,0.12820362628740908,0.03664332365987071,-0.030124082550896457,-0.08347632050942061,-0.12779682185785687,-0.18685113942489073,-0.29945073641109765,-0.4766515467491298,-0.6561369646113033,-0.7616398479534531,-0.8073722972713961,-0.8196757621361731,-0.8149691653449973,-0.8118437669854706,-0.8179512632455082,-0.8273252231392008,-0.8372042521405206,-0.854814652887895,-0.8708041893226895,-0.8402443672438125,-0.7341085281626413,-0.614930986368674,-0.5242099484565345,-0.46044401446813044,-0.4237029449494328,-0.41732011044258455,-0.426874247558528,-0.4315478822114918,-0.42505130412049097,-0.42392917597817437,-0.45636098192448615,-0.5307910880338771,-0.6150472905169967,-0.6790775626950277,-0.7127562156867284,-0.7283951975669639,-0.7303725288809672,-0.708983751180041,-0.6406884353209836,-0.5207453006054955,-0.38879256040687005,-0.2717979425012637,-0.17351833188437274,-0.08717942913090404,-0.005739082164840046,0.07106627174192146,0.15520870774649292,0.24358716167510006,0.338562975585658,0.43507007164077455,0.5191363479668367,0.5840407306412729,0.6245458078194572,0.634791303481874,0.5985084923448382,0.46018161242353434,0.1682741126441412,-0.17628296067764873,-0.4120066706321132,-0.5077161252567176,-0.5113159655809826,-0.4157921521419947,-0.18783349561835547,0.23840619603776336,0.6745030250205148,0.8711986218561205,0.9419135585211961,0.968679171234199,0.978789431566327,0.9821572025597054,0.9817296049938208,0.9764682907869207,0.960386800613878,0.9216810397068642,0.8466466792359317,0.7318600073054056,0.5986584355242475,0.482826992782877,0.38918104238058077,0.2991238107352137,0.1883494085770996,0.045133025237734506,-0.108847724975679,-0.23410006113730178,-0.3148009056249083,-0.3651512216425575,-0.4050031815359092,-0.44382583780880436,-0.4914832197130892,-0.5511600257317417,-0.6178487662749081,-0.6752914656279039,-0.7144845806955872,-0.7504601159609865,-0.7963197747718349,-0.8482605239377269,-0.8870627433403787,-0.9061198259705014,-0.916135114242462,-0.9256476847825469,-0.9323538698206031,-0.9303778969892187,-0.9143695667017625,-0.8825537250215937,-0.8346715991572663,-0.7713710373314402,-0.6965175437404493,-0.6170706371503173,-0.5412083945080359,-0.4778938451358753,-0.4334682554798499,-0.40707528196655096,-0.39412179088786425,-0.38816133208865494,-0.38453694147487905,-0.3860623691106747,-0.392239975860017,-0.40178521637919834,-0.41565558468250924,-0.4321301285974902,-0.44452087603153617,-0.4394653848987934,-0.3788700560868088,-0.25930786919318016,-0.13793685952766113,-0.04316737632889766,0.04614269850784004,0.15380003737424178,0.28644609784151537,0.4256333108550648,0.5460987424166466,0.6362779437003605,0.7007145292598221,0.7467014880150689,0.7788161490715743,0.7995370023433146,0.8131419083110235,0.8284499541692063,0.8482083990693656,0.8663380112993934,0.8754840311010501,0.8726878273082717,0.862898009119259,0.852359872885758,0.8405092058474359,0.8272566011946617,0.8188481148464757,0.8205938185597266,0.8332758631545008,0.8424002764243412,0.8188722321757956,0.737806550097098,0.5952009958325796,0.40979636890614907,0.23932170309419534,0.1482288146076576,0.143582773331025,0.19962711728509727,0.26713428276411544,0.29823565856780937,0.27537504978254207,0.20410372787329384,0.0995921423680157,-0.026078555541998807,-0.1686527318797422,-0.2979981764951241,-0.38619006635129816,-0.4357989207325215,-0.4687042814938199,-0.5006942839934674,-0.5495246701272787,-0.626152977728368,-0.7155646743317697,-0.7986600136742598,-0.8577447844135037,-0.8871577980008253,-0.8839496644194783,-0.8577608728771433,-0.8274472831667153,-0.8104114572813638,-0.8069279488219996,-0.8081238047401605,-0.8016095452841585,-0.7701453238850168,-0.6786062674187243,-0.48780373983415376,-0.20048442178561574,0.08770510216248845,0.2840167785712658,0.37666576021345965,0.37088555853827404,0.25522218756427756,0.024245242661751033,-0.21983772051765155,-0.39003194998311785,-0.490127156427563,-0.5376886023218836,-0.5267544068805596,-0.4679960480402665,-0.38064998656191135,-0.2769798358182091,-0.1669803116365845,-0.07035532420194131,0.0043359664512141426,0.05763812384480481,0.094080787970139,0.13481377935022879,0.18482858938530777,0.2527342080899416,0.33909713110068407,0.44579948626892413,0.5521999142416496,0.6501413577849452,0.7364235229900574,0.8014008248106868,0.836472010399223,0.8375258674300732,0.8110703650101684,0.7800375556771494,0.7706202927256462,0.787143404374493,0.8223373457175244,0.8629988457039908,0.8953706796138104,0.9074376530136635,0.9038199704130986,0.8921898456983418,0.8785910008767601,0.8638745546157377,0.8423706615966482,0.8111356266871558,0.7712358446636389,0.7124556924888371,0.6141966116050529,0.47115426815459976,0.3197128536040699,0.19683683061577878,0.10437060653583526,0.021548122234012486,-0.04637499671947855,-0.08615238550026108,-0.08837129433533844,-0.03756284276767504,0.04290627008037475,0.08998522119320873,0.03648501764791342,-0.09503790920967227,-0.24911316659869553,-0.39041409051671483,-0.5195759727810356,-0.6358621623745244,-0.7305451967141579,-0.8104138451590018,-0.88130973333875,-0.9246229755785748,-0.9254788584128703,-0.9075201429766779,-0.8972016883032349,-0.8905305504659877,-0.8781158944405282,-0.8555732557721365,-0.8161489498103428,-0.7551395845076154,-0.6599078580976733,-0.5173500841619791,-0.37052005805985644,-0.29352449854517554,-0.28801089094940285,-0.3267574138422276,-0.3951378350597408,-0.48300582371607265,-0.5771044076036402,-0.6513013383974395,-0.6848122413196087,-0.6882608947483313,-0.6768673380777446,-0.654123106586728,-0.6175888068568683,-0.5566286632708589,-0.47029027037358095,-0.3756592055429342,-0.2984989017978799,-0.23743946102266394,-0.15205788106146428,-0.03590945128631304,0.12010080266326907,0.2956516449209257,0.44283931692527256,0.5465991422474593,0.6164744301303967,0.6738995102495278,0.7263814515620072,0.786746902927225,0.8540973618492917,0.9127305831011564,0.9465691041530513,0.9494585526341288,0.926635983575662,0.8850540348355007,0.8513623652764511,0.8481837974433689,0.866713251358665,0.8879541351586818,0.9042271356035086,0.9159917957868139,0.9208063673108399,0.9165017230998522,0.9038702597382337,0.8851312715854738,0.8595957251121278,0.8200927869493037,0.7357486698093887,0.5588628307810678,0.3181895651576933,0.12977844656662282,0.046146515969147255,0.04172107253291494,0.08488674373164315,0.13873767897918474,0.18489933993219498,0.20877889979643582,0.21094399401652028,0.19072713487813794,0.1406949027491907,0.04486869002286235,-0.11755204159783074,-0.3290401371509103,-0.5318252468211393,-0.6720659569639738,-0.7540633671824077,-0.8083119852807907,-0.8511092448644876,-0.8818100178553665,-0.8950303489628428,-0.8879353675860415,-0.8558349589665898,-0.8119859269888318,-0.7812119047983925,-0.772755172275811,-0.7766240882829364,-0.7832016978058793,-0.7919057137170658,-0.7948042567609671,-0.7929706406690309,-0.7676531793028804,-0.675649626159186,-0.5064910967770436,-0.3444729998190184,-0.24172215948286152,-0.19014777430765736,-0.1742079965121382,-0.2070248969753672,-0.29063161742235455,-0.4048297956164894,-0.4968594133473691,-0.5401151298438132,-0.5376596624571132,-0.5014702702591837,-0.4493511578578173,-0.39400827753108547,-0.3282363656098829,-0.23133057967141596,-0.06827107785777464,0.1572711440749996,0.3839771428160588,0.5418303298931,0.6319196647548029,0.6753568010231358,0.6894833502629073,0.6904960425203216,0.691885203122542,0.6932150789623207,0.6982153290627263,0.713506744236679,0.727170927708535,0.731502180589611,0.7263225008458398,0.7161679754567374,0.7068260285964958,0.7132693898304178,0.7388529084626485,0.7823805828766905,0.8371047750295906,0.8829322814448716,0.9074595960247521,0.9179031761249326,0.9232004998875698,0.9240986664659472,0.9163853422704711,0.8957165084124303,0.8524374149456082,0.755491768211898,0.5806668627664285,0.3762779866452984,0.21212986977222195,0.09925770874435715,0.01696178439496659,-0.05629027397369951,-0.13823352010911186,-0.2436894967531856,-0.35311496422461025,-0.44543543057404505,-0.508000702580093,-0.543309636629962,-0.5526088951004999,-0.5527256078785046,-0.5547067484005186,-0.5612422945339188,-0.5716946452190368,-0.5946069603986927,-0.6423145939090763,-0.7051205343542448,-0.7578718221874686,-0.798729003686159,-0.8375293437226662,-0.882837452898643,-0.9282800747342291,-0.9612643428682263,-0.969497447007654,-0.9519983115903959,-0.9195114518569442,-0.8871534561252731,-0.8595249114638699,-0.8291880160740674,-0.7686113176119932,-0.6688548033541821,-0.5644013024266946,-0.4895798186454896,-0.4488254046700636,-0.4372470033082079,-0.45855027201925785,-0.5185336100190524,-0.6079918367491722,-0.6896077653579737,-0.7397003866333558,-0.7597512244840392,-0.7603447857112813,-0.7312038599917622,-0.6609434610058169,-0.5417813851929941,-0.38582001664959215,-0.21650152424200408,-0.06463859447465657,0.08007125864995723,0.21687829571714118,0.33811115653436263,0.4318168121216418,0.5060011102558115,0.5646660179760853,0.6055187631129489,0.6368637044174243,0.6747631661034106,0.7218095487680523,0.774122982345084,0.831165390582297,0.8861693390672081,0.9257133318924882,0.9424769722889992,0.9440112695830704,0.9423927806492094,0.9408827734446314,0.9402912237188054,0.9379262554364888,0.9299302236822194,0.9154389698309785,0.8958952086019628,0.86209797692794,0.7896146873030189,0.6691297174287935,0.560650243502878,0.5348407635995781,0.5717424827463912,0.6022889400419345,0.5757267305824222,0.49516521044638057,0.39295062221711374,0.3226716325496487,0.3037101055583515,0.32359669726591944,0.32652585463841627,0.249992514313553,0.09377550086834004,-0.10439655953320125,-0.3104502879768437,-0.5034151140546499,-0.6610352858564915,-0.7779635197446023,-0.854949760611695,-0.9021097259584224,-0.9287930452198017,-0.939686795049533,-0.9364126251343087,-0.9131714867965247,-0.8206371063561348,-0.12249804399377667,0.8644160767503636,0.9593571875614096,0.9691053576072566,0.9615921022280092,0.9391990237597346,0.8959720251065072,0.8183573103496394,0.6914046795032652,0.5057066064352935,0.2555338932234653,-0.019680375347000515,-0.26607964902610265,-0.44738801113863436,-0.5579817370100545,-0.6120818406364591,-0.6430368625880922,-0.6824947479433817,-0.7402274234165661,-0.783931256714507,-0.7928586267548522,-0.7793775250595103,-0.7594990345072669,-0.7266358260734812,-0.6640095612193597,-0.5712847011566472,-0.4749468159969291,-0.398675138802214,-0.34981562041567765,-0.3233441848537395,-0.3145469526492053,-0.31301871529187875,-0.3149300136837101,-0.324505051411475,-0.3367920450148329,-0.3188924516946453,-0.2304756242505701,-0.08604044466023048,0.02680947646158132,0.06709640661537888,0.06061819177118789,0.041764205011492576,0.042542292320269966,0.08754961782018837,0.17345049309849705,0.2819721219185262,0.40794473955601845,0.5575130758992016,0.6903391275151556,0.720970755902635,0.6873584215775386,0.6592157450095268,0.6435773399859082,0.626406515761129,0.5937419892321827,0.5393409816335761,0.46295524539534555,0.3684446006050775,0.26394696465616335,0.16515780441401806,0.10468810914685298,0.10080050369411823,0.15356546075326624,0.23652519701828134,0.3185983776838264,0.3708568146914058,0.3725306335961425,0.32375489371194,0.24778144213778439,0.17889435459270273,0.12032552762783748,0.06742272031043212,0.026372368724109682,-0.0050356199048204086,-0.05225283348298195,-0.14068505496458122,-0.28344588543182836,-0.4555284978733493,-0.6198251419508851,-0.7512659504393996,-0.8422399273045917,-0.8770180809605094,-0.8491701135071132,-0.7920514021012502,-0.7627537461805667,-0.7696523002698884,-0.777677607328517,-0.7723237499647105,-0.7568514396749679,-0.7286081371537676,-0.6737327192051443,-0.5817619243262812,-0.47446820775192766,-0.3784061244231729,-0.29354087875773777,-0.2189660541575903,-0.17079222640327668,-0.1807236624809081,-0.2604812823299207,-0.39127401931675704,-0.5188510460183757,-0.5933044830520071,-0.6005010150575634,-0.5448307252651999,-0.45162604232550974,-0.35090375172779587,-0.2611732294979519,-0.18293614718816528,-0.1107690529571938,-0.02415908572404161,0.09444425533703478,0.23275588576374237,0.3654097322654254,0.4514506513252383,0.4797452418500319,0.45547680906320365,0.40399401239396315,0.3576942458707871,0.3305542405196956,0.33569179639078023,0.38109898588976265,0.47086845786261944,0.5880700357209028,0.6932494954036421,0.7596230814776537,0.8130634753747115,0.8597701983905653,0.8898357613811528,0.9020529184896582,0.9017054041493281,0.8985886771910437,0.8944393683037025,0.8900598970096244,0.8855856095812726,0.8815682579311114,0.8817448366474777,0.8808991155649948,0.8680028961294346,0.8360292586139143,0.7886937109206354,0.7319374811617948,0.6771768758668382,0.6334467270340474,0.5972479476844613,0.5562011687208778,0.5012140773371994,0.4275327068735324,0.3328207336730614,0.21106048102274738,0.05155253591400993,-0.13388128351461875,-0.312104556534333,-0.44379848622603446,-0.5179555113067482,-0.5441050108410878,-0.5362462438611597,-0.509886338202356,-0.48539445086895056,-0.48393683240620994,-0.5164655678072178,-0.5860496351179868,-0.6673454934616657,-0.7393457823471109,-0.7775500906895851,-0.7888113503842998,-0.786312804589579,-0.7739880870785573,-0.7626884153661826,-0.7563637656939615,-0.7342549701173144,-0.6415399075763066,-0.46586353096590954,-0.30627176604905515,-0.21161376588377773,-0.17031682193178532,-0.15655728659799462,-0.18608472760201542,-0.2931803397375131,-0.45956248107620384,-0.5933568145354432,-0.6465658349472262,-0.6471562390253172,-0.6068349350732675,-0.49935322664185905,-0.33856059696885155,-0.20519516276828498,-0.1245993457478236,-0.07774378254839066,-0.04108246794245126,-0.007662705109842042,0.03159556799088883,0.07780021918954778,0.12387234450881808,0.16642881833188305,0.20667346285745766,0.2523060363670415,0.3102113298758068,0.3826035145216515,0.4680790816444215,0.5599554757089217,0.6559100374431827,0.7608218184327596,0.8444139716850871,0.8746516762643158,0.8860435627808385,0.9023824745920751,0.9186883576149122,0.9244679353637126,0.9067586943255528,0.8716854755450114,0.849661522639507,0.8437315273270418,0.8478640490831646,0.8613794362546476,0.8740512780360373,0.8779989588488386,0.8670479626177942,0.8257670229744805,0.7331896911460806,0.5888738126559764,0.4346289821874065,0.3150389219121615,0.2373545042158916,0.18143006952117008,0.12869898137587515,0.0658252914790309,-0.013724448789440893,-0.09418614280539525,-0.16112014689846574,-0.209525954113384,-0.24049983066688058,-0.2611847118944037,-0.29559849247590875,-0.3680008009846145,-0.47133791870237135,-0.5780971047193416,-0.6654677354614761,-0.7167877580937893,-0.7320465948272579,-0.7167031638872865,-0.6944552102617206,-0.6902820031678936,-0.7189336032297957,-0.7771055947296592,-0.8410892915808345,-0.8856761873033536,-0.9067613958663798,-0.9138139044145629,-0.9145002196658986,-0.9068545278526331,-0.8841950968161775,-0.841131419892592,-0.7784270849671351,-0.7004886330942309,-0.6136627281890269,-0.5212880616266539,-0.45028019102220457,-0.42834557830213843,-0.4586769680013415,-0.5186678019065486,-0.5774643906476947,-0.6130967776266982,-0.6138067477591751,-0.5735368494725468,-0.4963844690684009,-0.39331774015599197,-0.27721132892778616,-0.16646053727711807,-0.0708675503796197,0.009016749242550286,0.08066345664317545,0.14781782526310383,0.20036471446679893,0.24671251778635686,0.29826380475374187,0.3592426888590735,0.42744926275286704,0.4873761239009203,0.5338416914441007,0.562039646194616,0.5755275292279517,0.5752848459061825,0.5569957441672986,0.5431227650881492,0.562744011210378,0.6234958896336819,0.7172556991592346,0.8175143866869623,0.8898710626547569,0.9252168009264266,0.9354392498682054,0.9256640568519023,0.8962650158991021,0.8542243347078268,0.8069576781376911,0.7649871693051958,0.7330173254190884,0.6903488979639067,0.608862368377517,0.48698324897154943,0.383281097276514,0.3350581740391706,0.33019630909885633,0.33560264572050413,0.30313962828789826,0.21116396128897957,0.06385619810085127,-0.10622762346059217,-0.25065901329765505,-0.342041707831048,-0.3690630500639397,-0.35223344806334855,-0.3167809833914159,-0.285660556946138,-0.28222582727029666,-0.3073364950898306,-0.3617468659155005,-0.42510872789189025,-0.476358681419643,-0.5079446600001407,-0.5202167284609872,-0.5208814673804159,-0.5300493923042664,-0.5638125361751516,-0.6315608004830393,-0.7072149774475336,-0.763674955652456,-0.7963576336334527,-0.7988108423801714,-0.7625404156721299,-0.6694081041100797,-0.534982481662477,-0.4325703113474254,-0.4023922981852724,-0.40582893238274415,-0.395493200836298,-0.3775436983023393,-0.3962832784629152,-0.4826040990504973,-0.5996498838562275,-0.6880701885928718,-0.7281006413879378,-0.729698394349768,-0.6953610296173094,-0.6268220312649846,-0.533986350847011,-0.42572745873728435,-0.3163108132671822,-0.22101519916013979,-0.11667886450283953,0.022936177713269272,0.18145848439038303,0.32541311837670533,0.4417144508752901,0.542484669728654,0.6403662657000666,0.7274733171477324,0.787391242966477,0.823468488630875,0.846425961255882,0.8556861729420244,0.8548999064266837,0.859605029139813,0.8749500634159623,0.8873716286759588,0.8950653938656042,0.901503989768224,0.9037459958063082,0.8865187639737144,0.8349550959109988,0.7693030286673237,0.7377447970455482,0.7704797276359088,0.8402613672749214,0.8895720606086924,0.9014188184613035,0.9007684342983413,0.9072239248832599,0.92022144912355,0.9091082351745574,0.8124312600542236,0.6334482869008994,0.4825802481900832,0.40665475011554814,0.3675533370496569,0.3332450993839251,0.28389462560161954,0.2108563259972016,0.11850121329031538,0.008407922734738293,-0.12445375873996649,-0.26661994594805,-0.4015055985929375,-0.5011545934440267,-0.548228223758114,-0.5579521964000188,-0.5642845463586006,-0.5822847208625043,-0.6048848929621281,-0.622591152381357,-0.634289644085333,-0.654764467608249,-0.6969006477928197,-0.7555767664757281,-0.8114592332925445,-0.8509413955858467,-0.8750052619754184,-0.8874312383433655,-0.8868395899656412,-0.8728495052574508,-0.8460688265814686,-0.8070363756403142,-0.7494568691509919,-0.6785432754007983,-0.6086434101046566,-0.5630469551159611,-0.5620238254083091,-0.6034949400054433,-0.6634001183944752,-0.7087372536052691,-0.7174698030573428,-0.6865925091446837,-0.6085325930134096,-0.48588196408929973,-0.3431022862201821,-0.2201957028158975,-0.1487180578771383,-0.14572671529316372,-0.20065231970400074,-0.25152707094418447,-0.24344128131361517,-0.18770675968515266,-0.10733356803951187,-0.03681070123123034,-0.012253742041004519,-0.02610726124248885,-0.058702535567925256,-0.10261961098703638,-0.16255037273166478,-0.28611072672007576,-0.4757909679048469,-0.6571037126909696,-0.7635438034333702,-0.8018655612259105,-0.7955414487574238,-0.724448527636126,-0.3569134320992942,0.625504459068715,0.9129599113622803,0.9612886046780514,0.9742888214640766,0.9786544373100903,0.9799818130705006,0.980251753706598,0.9788794700853792,0.9746750453925457,0.965659491716631,0.9450592623410369,0.8978916919653056,0.8078688587878178,0.6780844247350569,0.5547934506439247,0.4853903021153278,0.47538250397190024,0.48465610915290597,0.4670250591181734,0.3969052570532846,0.2710489598347618,0.09212482926496819,-0.1353902972235918,-0.3603781085513302,-0.5238908384091499,-0.6168286039003059,-0.6557847944988425,-0.6567984046535096,-0.6280524805524647,-0.5832734723334849,-0.5421374559821379,-0.5179566439912178,-0.5192666899105506,-0.5430782524615382,-0.5840308716065502,-0.6302878484742751,-0.6626274039824792,-0.6763885508070758,-0.6839136354483546,-0.705459441773282,-0.7481629674455722,-0.8050168852023248,-0.8559341999156884,-0.8728645347290502,-0.8444153287680591,-0.7810245226121186,-0.7046458242500858,-0.6353357922028189,-0.5805371913037541,-0.5574420559158024,-0.586123070782981,-0.6547915111967034,-0.7227188150359787,-0.7537283975391693,-0.7417230911997461,-0.6859038542570242,-0.5847612851538081,-0.4473958145891656,-0.3093952919626898,-0.2088442164724354,-0.14796819052289142,-0.12620761200021322,-0.11434199598555231,-0.0596828418707847,0.07467922322019813,0.2540304836641012,0.42715007299707136,0.5643381642837226,0.658387603003258,0.713284123203562,0.7430642814195277,0.7705363881923191,0.8216539896342259,0.8756615004488882,0.9107062335351279,0.9253404054654732,0.9303434539166534,0.9311466043181388,0.9319743438472285,0.9308353776173663,0.9182848659945584,0.8656488384042862,0.7533980639979585,0.6208318456016855,0.5475576001518245,0.5381362598273436,0.5635112999826506,0.5946729468165858,0.6075701491015025,0.5882003020834434,0.52099253690082,0.41794510403994145,0.3073294533756967,0.21368578357320694,0.14916087934859848,0.11823665927125093,0.10943963897282118,0.11053963378774896,0.09935970697135095,0.07741815564415105,0.05567735913622935,0.05409321608771606,0.06299323172158933,0.05549092194054925,0.009356741306101153,-0.07406736749868306,-0.1777415260719601,-0.27913991701126184,-0.37541596122694454,-0.46564964177663176,-0.5476491178911942,-0.6271566624722088,-0.7020854886489409,-0.7640359456757638,-0.8184881959612911,-0.8714877848254126,-0.9098215278449676,-0.9232344961374098,-0.9269677687293659,-0.9332287214329467,-0.9416410343180872,-0.944326543216584,-0.914660329691142,-0.8005780981119639,-0.5818787582271491,-0.37179266765973157,-0.2604223611709241,-0.241870028129757,-0.2939439147476532,-0.39770123596255963,-0.5274186867267026,-0.6426730918522183,-0.7176566216031512,-0.755670014270156,-0.7747525032366883,-0.7626169704636981,-0.6556920352376545,-0.47767203548553056,-0.32770822247210374,-0.22582971664412335,-0.15200915208189025,-0.08702315898306043,-0.008206899657766206,0.08867950697054376,0.20105118223802132,0.317569497682648,0.41992679898251417,0.4978809938833733,0.5596994965399982,0.611373904801292,0.6636943440908294,0.720227242438931,0.7764686355437446,0.8300489241668727,0.8745636085919405,0.900263134536424,0.9018072241962051,0.895362540364808,0.8929451725399854,0.892262431001674,0.8897748410342764,0.8894463490846083,0.9039267089308843,0.9172249641399848,0.9033665332137366,0.8819819848163647,0.8743823976626728,0.8786789415290139,0.8901477131597797,0.9017023804722019,0.8995136287646087,0.8644509690699516,0.7830442528240523,0.6678857717292949,0.5509228822810349,0.44567161387806326,0.34132879378784237,0.22921584500179826,0.10213435472376234,-0.03717004604820795,-0.17939665931284993,-0.3075757122493724,-0.4120782495677501,-0.48438244079474796,-0.5227512699639073,-0.5296383316208233,-0.5159668296027043,-0.5049287493710459,-0.5091631974916266,-0.5311771164258275,-0.555205073345855,-0.56860929277683,-0.5630839925101491,-0.5495559137319201,-0.549820902213752,-0.5726877190158023,-0.6191369594707292,-0.6756578948724842,-0.7360579417259543,-0.7906585560159581,-0.834539583374241,-0.8643140001321963,-0.8832404704130913,-0.8973051799495549,-0.9034506809059373,-0.8689414483016623,-0.7185655927342156,-0.41889458303390475,-0.11554039324053672,0.06620277016235357,0.11045349594167962,0.011410513511956166,-0.22433044691144877,-0.4800793138464125,-0.6369689669088179,-0.7077825350588591,-0.730083469768871,-0.7324871068702438,-0.724520210116228,-0.7071265885828532,-0.6788033894684012,-0.6331452272595124,-0.5551437399606143,-0.42043738488012433,-0.21987752495949558,-0.017467774830456605,0.11380702244806262,0.1507978700890003,0.09721087449548745,-0.04246125807167494,-0.19785761051093378,-0.24385638636489396,-0.13025011109815113,0.11968359505229963,0.439565585992204,0.6829631686636274,0.7961395480794418,0.8403920691317286,0.863525920365329,0.882964066137152,0.8979719542850154,0.9041406081327639,0.900152350151366,0.8920300535916155,0.8887376032407525,0.8952386355528555,0.9046482959341979,0.9069693770634977,0.8958974144396169,0.8764580965594402,0.8411656004805474,0.7692625740692242,0.6449244818048155,0.4850995338095068,0.334381871214658,0.22643707712559205,0.15112180852379062,0.0940754542439698,0.05372564258100917,0.030064448403568627,0.019519612627445917,0.015970297837838605,0.005983135566814544,-0.014887039509634529,-0.05062705685114347,-0.10995048886449384,-0.19175000258467864,-0.2902464657428336,-0.3874520736339607,-0.45979255289607984,-0.5065294710034487,-0.5267396131951644,-0.5350698940778826,-0.5418834121735147,-0.5529475302782305,-0.5732506554414357,-0.6074802011294249,-0.6471505996429249,-0.6893716190198105,-0.7305282961437011,-0.7709026384532751,-0.8097971212147648,-0.8379433389027182,-0.8331516112457752,-0.7576969917009638,-0.6457764957045502,-0.5704236873536915,-0.527659158935181,-0.49778945850857237,-0.49791745894494155,-0.5636661930404473,-0.6899057690631096,-0.8108140141476395,-0.876824822372263,-0.8950499401706897,-0.8920020852405034,-0.8812294255288968,-0.846086807493424,-0.7427521156475766,-0.5772828873862486,-0.429857369162204,-0.351464900187749,-0.34753172801492316,-0.3944178272293691,-0.4669464993473848,-0.5495487157444229,-0.6297548937676546,-0.6993189736017641,-0.7504378438236742,-0.7862128217956965,-0.805550431316631,-0.7923954331986071,-0.67589830359059,0.02771022163871572,0.8509432772401904,0.9521641261768172,0.9662478141120671,0.9676566823724393,0.9665181610045618,0.9653560476618831,0.9643020192873628,0.9617261831703404,0.9553295614405483,0.9425518169595091,0.9241685910810191,0.9037830342649984,0.8897769094832976,0.8828784402982846,0.8715844484096104,0.8535068375923957,0.8348651171629814,0.8161325978074605,0.774532096646979,0.6526819620657767,0.43621120507227656,0.2318670345127156,0.10944367464113396,0.042496274146564206,-0.005248912494227201,-0.05375012481171019,-0.10881422917011561,-0.16823605084479734,-0.22815466712137267,-0.2917906329172796,-0.3612387501621532,-0.43541810346236864,-0.5033313015787397,-0.557374193946286,-0.6063762917695962,-0.6547329279156894,-0.6972369597819411,-0.7318524825916028,-0.7587643829887146,-0.7821718176997382,-0.7974148603044607,-0.795357525466471,-0.7669160382193875,-0.7166226683413616,-0.6683214454800692,-0.6388292379752836,-0.6204204988943317,-0.5861926510912008,-0.5019207585369089,-0.37851517995056677,-0.2803068591067291,-0.24784893014763393,-0.2866596560695909,-0.3559667658725785,-0.38287011673274973,-0.3865603049972366,-0.4217816124461547,-0.4884408899806877,-0.5558233967470678,-0.6041668856740102,-0.6239744505694305,-0.6231951555741154,-0.6074802835074024,-0.5748208401892207,-0.5219797713649283,-0.4467659340253356,-0.36534413270481636,-0.28106800149360855,-0.17650058803719104,-0.02651754483110174,0.14016421562168196,0.266958505424194,0.34810954208520095,0.4077460199748262,0.46465663418806014,0.5267911955764595,0.5931047949703132,0.6533882817439826,0.6999808531772922,0.7397887049125143,0.7655312703793471,0.7696673454003972,0.7613529124766949,0.7686970513438498,0.8034393817145823,0.8530899427152038,0.8922660254040485,0.9011104425152788,0.8873510497331909,0.877523346473945,0.8761964340395929,0.8691475958602415,0.8461287755256899,0.8123845102709369,0.7752421606838641,0.7424071583687614,0.7145300247684243,0.6827373097857418,0.637572000344757,0.5853855443326995,0.5486687847908124,0.5369574168388049,0.5293983144281712,0.49970515948522165,0.4259807803332051,0.31503682868735117,0.19752605608162271,0.10418977660709827,0.04198094190547624,-0.0031517276481401327,-0.055245762993003766,-0.1335054020274949,-0.22809717159423423,-0.32947868874169683,-0.42643535011767486,-0.5089820400110961,-0.5743932095093591,-0.6235780237164934,-0.6597044782299415,-0.6847849280209902,-0.6938237768031164,-0.6673452091797492,-0.5906090012988386,-0.4917659306437832,-0.44833350093972973,-0.5017371058670052,-0.6261624223039691,-0.7336736664505903,-0.7842003592072954,-0.797705458769636,-0.8002328642290406,-0.789921466974982,-0.7494835038779909,-0.660627767104019,-0.5336621635987007,-0.41396600635645947,-0.34852993199270377,-0.3359016516428168,-0.3604310697682139,-0.3896158753947362,-0.41385061787066274,-0.4189700403171252,-0.3978264843115648,-0.34068659605926604,-0.24857248954764516,-0.1195677275263978,0.02748017039158594,0.1508354717687338,0.2263983364469418,0.2704131646268238,0.30391318548418084,0.33931244081730233,0.3776880276122502,0.41569693959211396,0.44918084714851075,0.48096182833977746,0.5214712278715905,0.5628974190739261,0.5722774441587039,0.5477257674172296,0.501510757857006,0.44304776680727503,0.40703111874575687,0.4205471797500044,0.4794992715701015,0.5624693599763151,0.6510184854562657,0.7231468487747575,0.7628579211955672,0.7754749822658753,0.7698560590370424,0.7544455918028657,0.7382823700138046,0.72766823246941,0.7176625143533878,0.6925189257837754,0.6243531895574685,0.46462301883737833,0.21630193212980742,-0.017734414065181118,-0.1819755155967985,-0.27285196228604763,-0.2993306829792518,-0.27481334195447354,-0.23113727538463344,-0.1955870931752595,-0.18190124938130145,-0.18203019798857686,-0.18471048058948633,-0.1920849461546448,-0.21170292034890095,-0.24882922892550494,-0.30746060950034615,-0.3847453150412717,-0.4564692884680726,-0.5087701479500388,-0.5323748846065045,-0.4993099030973549,-0.38214544637714903,-0.21643296433472758,-0.1082024058820677,-0.09587470757990638,-0.11633192026258535,-0.1141044637992411,-0.035909195710123715,0.15364221380502271,0.36155743744276525,0.3996764353066514,0.3318296028001619,0.2461237967614267,0.16659477900166358,0.08601218593694109,0.0075677260828954295,-0.06885579446357362,-0.1536849698421712,-0.26778945599157156,-0.4178554801592968,-0.5806656447391482,-0.7007583322358538,-0.7632151267388214,-0.7834440528201918,-0.7771165525836269,-0.7568467299964338,-0.7265540627499185,-0.6804330003915604,-0.6089570065444914,-0.5199722643530507,-0.4326758561086453,-0.36548943725910776,-0.3072671331466636,-0.23802955042492194,-0.15399383356087362,-0.062371109665764916,0.025479713553621466,0.09412156965937292,0.13329735910187548,0.13820069066091692,0.141916027090143,0.1721133451827622,0.25690605855990195,0.3929651100899833,0.5609834284362419,0.7117398608153103,0.80685612164291,0.8568626266251738,0.8852595246166957,0.9053060034977787,0.9139372873669984,0.9095847533394877,0.8957816964959854,0.8772131905869036,0.8609483213686108,0.8524687785931544,0.8513814698870462,0.8482650869730162,0.8312299737314714,0.7905533068240439,0.717408595425853,0.6247695087551612,0.5438715258490456,0.49678946656971334,0.4798011037631427,0.45791956071205886,0.3967411417557398,0.28993035605711376,0.16387527788266826,0.046040507848595966,-0.051535997757644725,-0.13895582027316947,-0.2300790173498241,-0.32314735368322595,-0.4089285590589846,-0.4786681391528948,-0.5255861563980689,-0.5483623908641824,-0.5564173175038731,-0.569897139650791,-0.6049092667964132,-0.6631586196612681,-0.727377292112213,-0.7812888314357399,-0.8190046802743732,-0.8280281509283902,-0.809027322138271,-0.7912237964352505,-0.7906587796225191,-0.7770333287955548,-0.7156222781083476,-0.6361525192927213,-0.5755909938782027,-0.545940827611862,-0.5415348261542893,-0.5519563537695209,-0.56459998450335,-0.5771690194844754,-0.5891349736412953,-0.6048230074081781,-0.6273952692763035,-0.653586528636332,-0.6738341572305189,-0.671647526340612,-0.6312743411038457,-0.541200874552378,-0.404655491567903,-0.24481953155515757,-0.08876191575615754,0.03600400253572784,0.1168298700606183,0.15131879839478632,0.16250682839836164,0.1643976212808078,0.16137197599284964,0.16367946302959147,0.19624416351002327,0.26463095043302964,0.34257727799452536,0.4145256396463813,0.4796515003500807,0.5415710288222367,0.6024995277587585,0.6586797234143084,0.7027096186106694,0.7366009857023955,0.7684430158661867,0.8020167744790969,0.8387311637885554,0.8728343843643621,0.8706611643351047,0.8051999614537912,0.7517051950357383,0.7740434741920229,0.8310463779582472,0.8745479254300152,0.8950447513662616,0.8983506474660558,0.8941088800565383,0.8849507393677584,0.8685895863577834,0.8363791511716666,0.7765262806676615,0.6795944264098479,0.5540588716992768,0.4314777179838711,0.3345881563276588,0.2679476143235625,0.22692170233903766
