-0.4569498052204269,-0.6797672302993669,-0.7748035588345856,-0.8250691185739228,-0.8552568439261475,-0.8769772863737963,-0.8945726508357941,-0.906670307600938,-0.9132720125798097,-0.9163834975762999,-0.9186045907963947,-0.922810727355813,-0.9295489315294844,-0.9380896949018902,-0.9449131523719894,-0.9467307035469162,-0.9449047436101254,-0.9437777945648066,-0.9465847159575432,-0.9534990079034337,-0.9628376290848696,-0.972154234720924,-0.9787125856986955,-0.9800625914539897,-0.9704995420982401,-0.9350104096243593,-0.8185333983456602,-0.30009175094347756,0.6761758687898479,0.9148103079184915,0.9467554529934248,0.9373510565637008,0.9128046314705025,0.8739876214070693,0.7982979605647444,0.5711875706313615,-0.03934928457394915,-0.38891807149519314,-0.3705637430256062,-0.2004386764087019,0.05097666944043486,0.32998103110790344,0.5742476776461214,0.6685126364555234,0.529276952385165,0.308510348829735,0.1405349267555698,0.038849495081944366,-0.01199142379852801,-0.021405438420036976,0.005207019868648906,0.06528473944298564,0.15304556626433044,0.24148884064352197,0.29269452035080673,0.3068007418780007,0.32248422135095034,0.3692500164911418,0.46290610695804285,0.6204053475680644,0.7703167359521398,0.703555567293589,0.5632677966359698,0.4721295899453728,0.41912331418002813,0.3882705489710913,0.3765544910489404,0.37948683049321835,0.38691462182534425,0.3910065181686079,0.39416754338521715,0.3996425974183869,0.4046940989086539,0.4146648744689809,0.4505949967801415,0.5080154412186028,0.5616162904692747,0.5818880554072642,0.5721098098633807,0.5577657123013093,0.5284430266303634,0.4454935445180483,0.29962384780497003,0.16351629004277185,0.07311406731576929,0.015132891631799913,-0.028550033627834558,-0.06510637133637136,-0.09462947580913676,-0.0801739444629613,-0.015697630414687757,0.01629642558497882,0.012331983086664146,-0.034620922868050345,-0.15060926293849292,-0.40946933000148916,-0.8183193392570065,-0.8231047236506815,-0.6202029293453835,-0.4739434975538805,-0.3719398709747811,-0.3025452101688552,-0.2710942132797938,-0.2744014561300558,-0.2801164650150899,-0.25902726922377656,-0.20763510494402335,-0.1486296561468217,-0.10257893856096946,-0.08084131329633086,-0.08647347420766067,-0.11376695413969412,-0.1331537083877242,-0.12169285461009463,-0.07782556140429012,-0.011466900020757242,0.07304175765740681,0.18197079219919735,0.3178694029026828,0.4639788775633516,0.5816498758173283,0.655578190955581,0.6989541896438493,0.7268093407956718,0.7510707172362439,0.779033987264593,0.8122835560753736,0.8487864874286198,0.8826099436311698,0.9090037987202888,0.9224857957680256,0.9036215289945795,0.8021751168214392,0.6081338129298306,0.4353139729455258,0.35175545041552053,0.3271145912223752,0.30515499041912914,0.24574076053199742,0.15851539431851888,0.08182847207565033,0.048160707704539577,0.06253620243625421,0.11909348064648373,0.19310124153178815,0.243287658915822,0.23111790625799228,0.14661962432751094,-0.00016252545957010805,-0.16432169469253322,-0.2931720879073617,-0.3770585983210469,-0.4301242648489973,-0.4581488905522498,-0.4503493277956849,-0.3768849151134574,-0.19325480532840367,0.10465023300081382,0.3915090359117373,0.566191203612324,0.6487410584268265,0.677499448370702,0.6769262309828414,0.6501086358688298,0.577584445128716,0.4171289694400622,0.0903947398207523,-0.3341170975950247,-0.6162523675183195,-0.7403688778438123,-0.7909958242886538,-0.8137469611028053,-0.824485410412927,-0.821036269609143,-0.7742397991199934,-0.5882113497604895,-0.1584298098676844,0.2693581542613684,0.5120804395490179,0.618042202205683,0.598705921760773,0.4363684116960157,0.17316483596836238,-0.09363275691765813,-0.30810786616124186,-0.47226551479557805,-0.6008537635186805,-0.7094566339916966,-0.8046035742225003,-0.8791450628332681,-0.9221861463551148,-0.9387781540860405,-0.9427073675360539,-0.9445541712983558,-0.9476101713529135,-0.9505521851980822,-0.9479601805271219,-0.9374399218772974,-0.9216563856409264,-0.9059148863571711,-0.8886385112894217,-0.8565691832054996,-0.7864893696333365,-0.6654705181143418,-0.5344266236327542,-0.45076975674846764,-0.42693789926994935,-0.42834956687703374,-0.40447547592817157,-0.3398300702841318,-0.22784733715702604,-0.05811540934665233,0.17957567184309023,0.4213805038343876,0.5729519308359329,0.6110546585461449,0.5441464608379627,0.3160043249506181,-0.18327110206647676,-0.6497617957793975,-0.8102040889710536,-0.83608774663963,-0.8205226187513724,-0.7917998449833886,-0.7566049315284977,-0.7089631510524895,-0.6409464411607063,-0.5436333796491335,-0.39854746222492443,-0.19648052446507303,0.025867845657898476,0.23210642149685623,0.4285508370656527,0.633605026534551,0.8087986964732229,0.855377269118792,0.8013797573478053,0.7500511592161638,0.7394829130306267,0.7735789173095211,0.8382802680929858,0.9015358253967328,0.941950010603961,0.9626203290452752,0.9730339366629068,0.9792469496547628,0.9838730139249818,0.9877364676824766,0.9907215224066255,0.9922952531144955,0.992925871809701,0.9936215985197754,0.9941603259539564,0.9938467670504284,0.9916669456482221,0.9849364332301522,0.958407880994371,0.6775053099887777,-0.8088223171834974,-0.952607263807669,-0.9712373018509469,-0.9749411672295711,-0.9737637575264741,-0.9703947552642286,-0.9675666017147491,-0.9668141575069036,-0.9681918968170578,-0.9696890831554905,-0.9696560608030158,-0.9683089894159016,-0.9684849699258944,-0.9720412972689121,-0.9765041865717915,-0.9788118633160612,-0.9794043838843779,-0.9812734301652365,-0.9850007070732396,-0.9870356693591624,-0.9839222819388915,-0.9752146341695814,-0.962961643862517,-0.9512341447743913,-0.9444450703939028,-0.944807125898649,-0.950389334872285,-0.9544410731528805,-0.9533313877469398,-0.9500422259969314,-0.9476074309552005,-0.9439658167667249,-0.937402006079944,-0.9319462873946005,-0.9292385206895772,-0.9282401339692553,-0.9282887558845779,-0.9277608258715649,-0.9325924332741569,-0.9448693133003611,-0.9559957327949261,-0.9592223394179634,-0.9543128182531523,-0.9298715114104141,-0.7895298901388798,0.16191627134669578,0.7947385208486119,0.9040526917039079,0.9368111612451658,0.9518443047919799,0.9612257440704066,0.9680301669216651,0.9725094917858722,0.9728610740345888,0.967844248291122,0.9612474556736446,0.9601379983233166,0.9650815020177417,0.9703163011031726,0.9721855161533377,0.9690143476884344,0.9580868108163546,0.931498170391935,0.8688514520266073,0.7495547795340374,0.590327798532487,0.4441245384862899,0.3503465884073278,0.29759475655985024,0.25556640800216807,0.21076857273542346,0.139813425159695,0.013359243371318814,-0.18326167944883798,-0.4226094395407172,-0.5994858844561409,-0.6258165426267117,-0.5750825852114,-0.5162436886772673,-0.46624108309679724,-0.43526094656189634,-0.4300107435763507,-0.44605958952447,-0.4484503288304747,-0.4163311574251775,-0.36260589736585386,-0.32078545094573163,-0.30831388117634584,-0.3161801597988751,-0.3287228925692849,-0.3049199834467061,-0.20491407818089272,-0.04089237525768315,0.08935441120510339,0.1045639600462784,-0.03138172148054827,-0.3222541644642041,-0.6127664707814379,-0.7800084285854838,-0.8510820040799321,-0.8726010266500757,-0.8656816487179606,-0.8198835153105088,-0.6680208996224838,-0.1544589155414937,0.562493940129837,0.8281114100013475,0.9103127198835205,0.9459917017858729,0.9655443316745189,0.9773079545307427,0.9846276680820322,0.9895006674387243,0.9926365899499314,0.9941051715337026,0.9941724474803986,0.993331929997494,0.9917613582262371,0.9900520933264415,0.9894076360493514,0.9900120588846676,0.9740651743619961,0.7888091957696729,0.1357136658869937,-0.3447676888571978,-0.5517215252346392,-0.6578201447035578,-0.7299854876208143,-0.7900254221978096,-0.83733608626455,-0.8678817589910116,-0.882556224394372,-0.8906990652926335,-0.898998305011581,-0.9064670227795161,-0.9098553583444289,-0.907793784907476,-0.9017193475896502,-0.8934048108383327,-0.8798964514698664,-0.8532706193716212,-0.8023788258377945,-0.7145208187424025,-0.5936542735713255,-0.47355146152135824,-0.3931032695596701,-0.3766042820422587,-0.4438426768455473,-0.6012882083888359,-0.7759304561032166,-0.8766410947695427,-0.9161633321142544,-0.9323221305332552,-0.9304546883254953,-0.8580562572043771,-0.5537015823907159,-0.22621115037623868,-0.21872938180672372,-0.43748741386237183,-0.6715145784508567,-0.7959150826530069,-0.8175388054672352,-0.7227186821907555,-0.3732378656011273,0.2376532957841245,0.632734385851384,0.7962647829432034,0.8684317007972506,0.9034964191021564,0.9210010067547015,0.9286238815060492,0.9292309687148519,0.9226095144511182,0.9056197263945418,0.8680475821739189,0.7759088467989634,0.48164167084412335,-0.3704843320471914,-0.8491437655733682,-0.9136945889778612,-0.9069289821276271,-0.8871587267036825,-0.8674888405695591,-0.8553951078035089,-0.8560946792145103,-0.8723554276671702,-0.9000491490387255,-0.9301397027412314,-0.9537446763514597,-0.9679009864691333,-0.973888923093235,-0.9728565642024235,-0.9638628458383586,-0.9422794489085599,-0.8968277212121644,-0.8061258452042956,-0.6141614234332222,-0.27057114475186456,0.04461346760981071,0.19139228188997065,0.21882505949162426,0.15794852521054625,0.008281126941650927,-0.2114653369894515,-0.41286968239546296,-0.5176721125377846,-0.5498281169503603,-0.5721522960287205,-0.6159817927968994,-0.665940845339142,-0.6915157648418301,-0.6999846345128696,-0.705960404437858,-0.6990826716695693,-0.6739375830277556,-0.6428391258704854,-0.6154772198360652,-0.5946092396224492,-0.5776364413654705,-0.5591567553710178,-0.5363632281502781,-0.5031910883640507,-0.4584087704673782,-0.408814203805534,-0.3702739646768755,-0.35372504975282604,-0.35543508868777757,-0.3636793772398164,-0.36086565779503615,-0.3372193106463223,-0.2909541789186146,-0.2458525790916914,-0.21009925871922633,-0.17758707900674295,-0.14715040856595304,-0.1161081173079322,-0.08155094590535292,-0.03464630223422179,-0.020109352651081366,-0.0423777635901048,-0.05768213977331565,-0.05085739747745081,-0.008689415909721656,0.0811237154584677,0.19613120700302492,0.3114696523348103,0.410222557610465,0.490067625825936,0.544493778895424,0.5615347784160698,0.5338030079842174,0.46710541605862177,0.38315121690359716,0.32238130958656314,0.31976976650117067,0.3757780288631657,0.4537810777860969,0.51772981423434,0.5637637365279446,0.6036056449384867,0.6363799688759194,0.6575812938834424,0.6751514589435161,0.6948765580929268,0.7147732515516771,0.7270834408688511,0.7215916648935407,0.697625038989834,0.6696694614895822,0.6574853752223885,0.664627192852232,0.6793799311275549,0.6912786120136715,0.7017111449495202,0.7146474671022819,0.7389606974580557,0.7798673547891171,0.8354187045662524,0.8940024402838455,0.9415289692565997,0.9644400917537215,0.9597869315715335,0.9371387964704192,0.910188817120289,0.8894341253346011,0.8714611489436282,0.8385963160519659,0.7692292704652987,0.6631943681207356,0.5562988649699309,0.4681537201736126,0.37599670506012806,0.24838161594017913,0.16203624504328132,0.16843001543238165,0.2427197528501804,0.34504855773959786,0.4049425000457677,0.39142275461415427,0.3161529827616341,0.18814469771236042,0.02453569128419956,-0.13385660287584702,-0.24548339718211393,-0.28392706185880967,-0.21964088260170647,-0.0008929873748163822,0.3668070402646551,0.6582617930879212,0.7809711599797098,0.8146454808561806,0.8095089033153193,0.7767087273237602,0.7068682406077758,0.5645476090658963,0.296208678433558,-0.05234904523802053,-0.3149722874304489,-0.4725303749164454,-0.5821286747559714,-0.6770048055856073,-0.7605976200371096,-0.8246647906451363,-0.870864717904816,-0.9049503722984308,-0.9318025942647187,-0.9504938720256242,-0.9534375664038444,-0.9386207339393139,-0.9252645621757275,-0.9349095571102038,-0.9617072546234895,-0.9826067501300002,-0.9886786306149434,-0.9852801969194769,-0.9757049716613503,-0.9563081012276217,-0.920104037497355,-0.8618906164582029,-0.7880214589784453,-0.7300969561254755,-0.7281242116777406,-0.7703104215652131,-0.8161491557273023,-0.8467027576226855,-0.8562958221440276,-0.8423176866062893,-0.797022219380315,-0.7015568001663813,-0.48838398637598407,0.014795645317196746,0.5272815357985484,0.7434132078035101,0.8446671847564607,0.9046885637882646,0.9413351694597606,0.9625365656706091,0.9749761996833757,0.9830718409518334,0.9884670109142731,0.9911274494624112,0.9901243352327078,0.9846401012512155,0.9744770043154101,0.9591296459994034,0.9382914115834196,0.9133792445865797,0.8824323461020775,0.8345282364041428,0.7518644889410028,0.6001490852495146,0.34276601276127316,0.05190395423305852,-0.14737096225000135,-0.2502964312245826,-0.29260094711977047,-0.3040221061157925,-0.30711790176373877,-0.3190961648969231,-0.34290790623322165,-0.3733829841348451,-0.4111542286394174,-0.457676422832974,-0.5134475384402576,-0.5754047439180547,-0.6371250774978235,-0.68983917455958,-0.7309806729416523,-0.7609044488343708,-0.7718283323090309,-0.7580328720022086,-0.7341951411782909,-0.7241900130131455,-0.7412506190310566,-0.7853621142330287,-0.8477022305016123,-0.9092451981466776,-0.940885469876255,-0.935799633264637,-0.9095852638321115,-0.8742210451324074,-0.8331467423447286,-0.7924740670477829,-0.7548239931397052,-0.7216428161559462,-0.6971526754682976,-0.6872659952408814,-0.6948848226861203,-0.7196044745589522,-0.759331123410371,-0.8076972825899266,-0.8535581466780705,-0.8851736104717297,-0.89606893317726,-0.878863447938848,-0.8106422002015193,-0.5913379527505581,0.0015826128876577454,0.591884099220738,0.8039665762137412,0.8645539652559497,0.8752742416902957,0.8607431283523953,0.8255082949302788,0.7761853085329188,0.722697395945732,0.6745301776619816,0.6265742277653268,0.5608752431148364,0.46496209640430214,0.34664567597547513,0.23468927977574663,0.16934213523597602,0.16143454508612481,0.21206099987719595,0.3155260236502044,0.4531163327158267,0.6010596063463933,0.7406648624570826,0.8554665176227685,0.9322302270552003,0.9698341829869066,0.9813096156616824,0.9816647270912338,0.9779882280162966,0.97141608835327,0.9592531672401327,0.9305922827187867,0.8601037650390734,0.7154822402777455,0.5146159456068131,0.3397985769085078,0.23994234170715295,0.2006833153124226,0.18510064350296684,0.17014170425120143,0.1448552328979067,0.10606186568030106,0.05118713010580289,-0.021558164612327402,-0.12864778352869125,-0.29251396072632935,-0.510703016611769,-0.7102031491397558,-0.8247517385236707,-0.8607119596307502,-0.836432396853647,-0.6895290134211539,-0.020874933448090122,0.7760226015427363,0.9404328529610916,0.9761393870869689,0.9871940551620692,0.9913182692497804,0.9926772143383513,0.9923337113302314,0.9896600316145495,0.9803620835100104,0.9430281109936776,0.7318941431321954,-0.20010978698600798,-0.739949698999203,-0.8752682360995019,-0.9313297678496517,-0.9599524534757142,-0.9655716047344891,-0.9497603384863309,-0.9279037952736492,-0.9179197323788573,-0.9268933199069415,-0.9473967656565448,-0.9601414136723865,-0.9550107258390984,-0.942982466346281,-0.9406279826560885,-0.9520824293496436,-0.9648814846416085,-0.9608161007208603,-0.9414258784764584,-0.926389032197928,-0.929269938658389,-0.9469816346707388,-0.9661269563736862,-0.9778040440805907,-0.9827104019056729,-0.9848953677737393,-0.9853378283844967,-0.9823048903053514,-0.9741181780716138,-0.9599997783908164,-0.9405527082864051,-0.9163132521144292,-0.888368644165574,-0.8525789453149545,-0.8074532808413998,-0.7488861845709112,-0.6612619052789208,-0.5222860839645526,-0.30687574575108706,-0.029947442343281946,0.2725392283470908,0.5689443016185565,0.8062045854235389,0.9081532893560774,0.9085428600401753,0.8826973031073461,0.8601591360290811,0.8495782418381979,0.854360102490447,0.8708678800226142,0.882120626127008,0.8714606844061582,0.8681094673195385,0.8959168421691462,0.9337582128325529,0.9583749249223914,0.9680492385441765,0.9674109901232189,0.9598721132329735,0.9503643208705451,0.9453493226348976,0.9497045427568399,0.9617599447846663,0.9659028071416925,0.905687324142368,0.611936832976116,0.1605356922380625,-0.08137556927227117,-0.08314448231747067,0.16037337644969668,0.5880041992677394,0.7880790174666178,0.8263832627206332,0.8287637995658474,0.8175825750914912,0.7855552317736081,0.7072476440546731,0.5332052385963187,0.17141374538213547,-0.38153194919948297,-0.7749581007200255,-0.8830394966481443,-0.871798898156196,-0.8299390451276263,-0.7963556102496993,-0.7907277722190242,-0.8109023557455693,-0.8412298672053606,-0.8628334926445986,-0.8702787269862488,-0.8634799371444146,-0.8567302079168865,-0.8639840267657889,-0.8836092117536511,-0.9074406758557264,-0.926182925032021,-0.929158159595831,-0.8994260937124999,-0.7902443678277077,-0.5634175917371219,-0.29426282547111443,-0.08556055740185269,0.05910457334574092,0.1691649081960914,0.263514873273183,0.3608267025075936,0.46609957006623076,0.560601481629208,0.6290901512670208,0.6838874388756356,0.7308364885555365,0.7500649463960173,0.7027408342803634,0.6369709009100329,0.6155697062749614,0.6483599533838079,0.7226131603430266,0.8130885622909536,0.8912200731955077,0.9299376332209005,0.881052047766823,0.6892361406929474,0.40137364943900306,0.13245558926686404,-0.07520959633297677,-0.23189949187423187,-0.3448383458768486,-0.29287399632374733,-0.06458790930118043,0.113860602512506,0.21237800037385535,0.24904677746266402,0.25121120534067154,0.2473584329117584,0.25506124812766606,0.2815925329179329,0.3106572330413093,0.30825345545138316,0.2520400784318021,0.1435667245676088,-0.016978828796150792,-0.2112058130087343,-0.39320659515763917,-0.5249199419809404,-0.5961194871174657,-0.610165019390785,-0.5952765255059005,-0.5844579304613894,-0.5802392251219969,-0.5617312872712511,-0.5116300154957417,-0.44326122117142597,-0.38582580416366874,-0.3526686381520691,-0.3508984585439983,-0.3909713751343246,-0.469685046410186,-0.5362554484600179,-0.5495943093211584,-0.524466755439484,-0.48484299207055714,-0.4255353731956398,-0.31450781199505723,-0.13849775736920694,0.032888927532887906,0.13690178080081045,0.1780705156396894,0.18959445848429077,0.20089139483163423,0.22882242355414456,0.28492446521396625,0.3800523558445759,0.5111085034708723,0.6354180428834342,0.7167003759923942,0.7531841198354721,0.7521684799530299,0.7163608747241312,0.6428918585754836,0.5257822212219069,0.36883951321523867,0.17984858658340097,-0.00602595819757815,-0.12786458743766402,-0.17209030307603382,-0.15194403507781132,-0.09565018881867375,-0.029899834134748563,0.021560345519468914,0.04318941727557567,0.018557741605914918,-0.07266301378770193,-0.21348927023400355,-0.3540517736252429,-0.4590651644492453,-0.5193496562439721,-0.5485324532954993,-0.5662692775290429,-0.5929812890022532,-0.6292283955211567,-0.6492902906746496,-0.5321766351035054,0.1890115021961208,0.686705995310412,0.8154897694246023,0.877119774543222,0.9180149584702568,0.9421912334638118,0.949617825893886,0.9421243191263008,0.921516622345975,0.8837850587442403,0.8139510238437957,0.6861599370620243,0.4828522174531579,0.2417860429551784,0.01998241103157718,-0.16399699844135904,-0.31797583206109675,-0.44338933612027775,-0.5373404699015154,-0.6002100232490767,-0.6434857640393981,-0.6783387112406346,-0.7107811783731567,-0.7424493101259045,-0.771552563808824,-0.7936636787140205,-0.807350375983452,-0.8151390072771063,-0.8204185459018262,-0.8258860631278063,-0.8306207310576623,-0.8371368659236659,-0.8472988136417147,-0.8606483964627558,-0.8746627419112718,-0.887762998467502,-0.9002004860459809,-0.9112473823422361,-0.9220059896338791,-0.9354687920763854,-0.9496523251793876,-0.9554842264763983,-0.9392365959763797,-0.9000714561240982,-0.8620427558765315,-0.8544504251740059,-0.8733413170836456,-0.8926466181844845,-0.8902426648330546,-0.8691420320478083,-0.8413720325837097,-0.8097755787079473,-0.769854040528096,-0.7201331419952288,-0.6639482770281676,-0.5961489510527205,-0.49871425762722155,-0.33752774226323307,-0.07797024648324666,0.2316024553333709,0.49740019248523554,0.7050726502991722,0.8527313929183287,0.910914222166633,0.8973146367520425,0.8581356682580211,0.8165057921237951,0.779750907149149,0.7484023177300142,0.7175116998726423,0.6783391924035373,0.6125523041602398,0.487450742455771,0.2671009317976901,-0.027446726916997025,-0.30383386043385435,-0.5161741217656606,-0.6801954911993905,-0.8033440765001879,-0.8802391391869376,-0.8866251184082403,-0.23016034541890215,0.8676080930926213,0.9585823116225916,0.9807674056502202,0.9898176060770493,0.9939817136411926,0.9957892761746738,0.9961959601380658,0.995278125787032,0.9925481362886676,0.9869475556760039,0.9762963348676604,0.9542141429412156,0.8993993900518761,0.7363100287050398,0.2605523156772083,-0.3609492914990506,-0.6602044953126235,-0.7786059685041942,-0.8336845695939824,-0.8625197979311939,-0.8790602627624859,-0.8896752027989243,-0.8979745478456387,-0.905967794356653,-0.9138608386121593,-0.9212435819734108,-0.9268111627457851,-0.9300844246208696,-0.9315917927542153,-0.9319457636056704,-0.9307003775098469,-0.9279333310644923,-0.9242641114163742,-0.9214430934813069,-0.9216782412065104,-0.9259834459484513,-0.934149490303073,-0.9465069344158369,-0.9630682761199346,-0.979187080126033,-0.9881409491627846,-0.9878728654712271,-0.9813442769667098,-0.9710574699005344,-0.9535443791624358,-0.9051288759473001,-0.6491553760552614,0.4423140748129896,0.839371005250312,0.9029659527189271,0.9140138492985688,0.9070182343766335,0.8889684944856736,0.8656101208582664,0.8446563028346058,0.8265376396011096,0.8047024366712983,0.7666955608872159,0.6967989500710746,0.5777852899882979,0.400726203872452,0.19583445475308214,0.03499550729178925,-0.043496678644097675,-0.06032384467404005,-0.04646834006080885,-0.021383741851588194,0.0035185136597423324,0.02052850852058792,0.029098911541249915,0.04044883285980931,0.08258639273471229,0.19560550519640157,0.38901894906861756,0.5886814829432111,0.7418282275973167,0.8604252903728011,0.9421273777674641,0.9581880473439334,0.9294658318259321,0.8990966106383372,0.8797438254532217,0.8666061132144064,0.8575943832337157,0.857273803162031,0.8711743358722983,0.8910483673269982,0.9022429608533643,0.9007422162538623,0.8917708978535461,0.8761384395066418,0.8503371834730353,0.8135437420786997,0.766018057885816,0.7108084556988464,0.6539518734480658,0.5919814672896212,0.4980718674090881,0.32015320181430923,0.08157602134547565,-0.14007896463483177,-0.3333926131581126,-0.5061862134969414,-0.6390965371369872,-0.7115955934718922,-0.7327480257189742,-0.7284107752072764,-0.721551103412598,-0.727800496794063,-0.7572083148399946,-0.8132387770673773,-0.8823925485003271,-0.9343461404202735,-0.9538404464007921,-0.9489941047158544,-0.9338300620625684,-0.9157669305828987,-0.8959694321850383,-0.8741740246076368,-0.8371518910538196,-0.7244903713397995,-0.35503969547660374,0.17503120139623854,0.475392333404623,0.6150877360308457,0.68544575129038,0.7208449751999375,0.7306272072165286,0.7128921253063316,0.6547052014985009,0.5205419557797905,0.2665768645992568,-0.037389797154942866,-0.2568029377999253,-0.37311674072752343,-0.39626457284512145,-0.3117816229995309,-0.1772784565401049,-0.0695965406438693,0.006009384006442313,0.07898693845927324,0.17239523528328082,0.29472823790444036,0.40402399556741053,0.49258514986371116,0.5824323028742786,0.6658110868573346,0.7004364117741749,0.6528455287348706,0.5067123344388027,0.2569532377942328,-0.05918486594977933,-0.33223050058017173,-0.5094685586232504,-0.6123129546305262,-0.6720814336720022,-0.6970025853867639,-0.6544046040644528,-0.5240575710612342,-0.3262460331915749,-0.08478897819059272,0.1761762867400155,0.3937246855156318,0.5128771231349057,0.5541885877808262,0.5367195846030357,0.4631263152562724,0.33722960590185375,0.179812530781867,0.0033976786448882833,-0.18390795124836753,-0.3743704471536449,-0.5516031508083832,-0.6896729890126277,-0.7748019187950418,-0.8175943002355047,-0.8355660976943703,-0.8368331318027624,-0.8131042126771322,-0.7260957304345786,-0.43408615279851454,0.3083746383066802,0.7993680992620403,0.9280275553380922,0.9655169978774035,0.9794250363230355,0.9850326777651477,0.9866759614762995,0.9853094572088589,0.9792714348014782,0.9606611829499231,0.9026559885066495,0.7043333490480371,0.08047554084354464,-0.6367512021482228,-0.8276035496798638,-0.8389323719253731,-0.8277986061583466,-0.8216017310898556,-0.8094968149403082,-0.7776106551822416,-0.7267888114172611,-0.6745748949101067,-0.6475991137498699,-0.6606450772692586,-0.7207000127487367,-0.8060123450433437,-0.8697484685885911,-0.9019028769590343,-0.9171176297124861,-0.9231363919201063,-0.9169078140382062,-0.8889910079554906,-0.837092120649661,-0.7750125845462703,-0.7263636974186716,-0.6993809708526485,-0.6915463629226337,-0.7011922196844078,-0.7257099462216918,-0.7559456168951025,-0.7674386099931335,-0.7287706332976743,-0.604998420063119,-0.3807089826603251,-0.13097611636908943,0.04830365021437611,0.15224250176040996,0.21735414228858993,0.27073875870566794,0.330355581234182,0.4156788000472107,0.5156310969647222,0.5719039656823939,0.5561903466926466,0.5037191389217703,0.4507401510849586,0.4176788211673444,0.411600255303493,0.4337300190924668,0.46962672692375323,0.4981541797496359,0.51067274787342,0.5013217207005611,0.4717327259654021,0.41801699590868063,0.32773994167485815,0.1935902454134128,0.02889109828201448,-0.11904251522581659,-0.2040022264409731,-0.24299114128427463,-0.2765509051643727,-0.324008213666238,-0.3889184647865667,-0.4655056531250642,-0.5424852000327516,-0.6067344211703409,-0.6484807562707328,-0.6671984720163118,-0.6667567313108955,-0.6421379799047541,-0.5679334313347257,-0.312053596132108,0.5379668809651437,0.9689419137309984,0.9973836416156487,0.9953609036425344,0.9939976770165264,0.9940718935233732,0.9943297037693343,0.9940182977416581,0.9926610575579379,0.9896040178082057,0.9834161259780726,0.9666887812871792,0.8971921569050696,0.5826230967572659,-0.018489761369470822,-0.36940183328495546,-0.5268818106722536,-0.6305653830562288,-0.7284998731949751,-0.8215246079610891,-0.8919622594145741,-0.9360772434239247,-0.9606527904946883,-0.9729038136981876,-0.9769199057481486,-0.9774838418888672,-0.9776328220749679,-0.9782814726712304,-0.9795793433416403,-0.9806961230198031,-0.9805719282584485,-0.9783537012969423,-0.972945186400644,-0.9631971836228734,-0.9478948683850312,-0.9253105177889013,-0.8930064902543255,-0.8502382963007119,-0.794191343277436,-0.7213886421055606,-0.6148086345501445,-0.447264862531386,-0.23774157644487137,-0.056023399066381804,0.06514235129312879,0.14783042045016193,0.2300500984772714,0.3417253939970983,0.47267663319879166,0.5848000730095922,0.6645384220707259,0.7256525496476806,0.7824597260413932,0.8159787397588569,0.727167428394873,0.5026337598833261,0.26125161090757976,0.02532028405539319,-0.20837167062710527,-0.40098584603801535,-0.5067243736060892,-0.541562932602006,-0.5296706514042986,-0.47835612017402007,-0.369196717334669,-0.1577995635669307,0.20198418488424083,0.5925599170072636,0.8064377537623642,0.8613305115238782,0.8169552271443721,0.6716817972288478,0.4031166426069336,0.07665901160991358,-0.18707848470913738,-0.36181565368294427,-0.472876256961769,-0.5443036956883184,-0.5917301356258735,-0.6211630921693868,-0.6371811689642838,-0.6441288299895367,-0.643361796764499,-0.6286426248897659,-0.5847331050782301,-0.45556785181215764,-0.04879771325234297,0.706961595234365,0.9646525815608586,0.9875342400590669,0.9780923897306906,0.9631231646937467,0.9448279440391505,0.9224664641449377,0.893158363784864,0.854830814113043,0.8096276035286185,0.7625800376870979,0.7143398247017558,0.6546446224778508,0.5535738696707779,0.35210325563396183,-0.03539572409349981,-0.4561907343644051,-0.671114884433207,-0.7571368848884991,-0.8064933655032567,-0.8457985464571054,-0.8683102012971439,-0.859375383027312,-0.8244141320043816,-0.7884131367231096,-0.7742247828942452,-0.7775887630302292,-0.7705970550335486,-0.7168645499439918,-0.5627307629764604,-0.22651608645857416,0.1261845292829386,0.3393198851036342,0.47976180866801027,0.594304570612068,0.6970435799008388,0.7863072035367652,0.8549993056748365,0.8996887837381954,0.9230307615547515,0.9260623077059208,0.9056397933807406,0.855911721020574,0.7722755566940253,0.6529012820867198,0.5137362962499283,0.3838833107130975,0.279747566680672,0.19432411443010053,0.08563806931252721,-0.07932940298605885,-0.27068355772355773,-0.4149073759677087,-0.49712475545292595,-0.5363170276587103,-0.5580552932129866,-0.5702311911313094,-0.5711262260297462,-0.5470505337146334,-0.5084217934426676,-0.4722585056685278,-0.45220670683713055,-0.45761331323981985,-0.49281031143658177,-0.5394242819181673,-0.5621834766466468,-0.5580445879696928,-0.5567664428408226,-0.5747816178943188,-0.6092278341544753,-0.6461265173411816,-0.6828127875582429,-0.7222697717077176,-0.771160610828036,-0.8232499850182132,-0.8403945619976735,-0.7166962774687516,-0.45934352498246744,-0.2327638067797517,-0.07651512606026455,0.00822829498096496,0.008267704965106216,-0.0725083379986177,-0.2070489796403861,-0.3785502080262143,-0.5641967282732979,-0.7183445876235729,-0.8088520255872048,-0.8368368038898664,-0.8283295151370821,-0.807575159380106,-0.7823065973753554,-0.7485926040086747,-0.7071693634986036,-0.674634955992594,-0.6702520362730181,-0.6994869684535908,-0.7412845775697934,-0.7754901106742699,-0.7923392909880491,-0.7848612683181516,-0.7482234476345621,-0.6752677447956031,-0.5853380927700779,-0.5092204996425583,-0.437846115721964,-0.3359956165450571,-0.2270450203857678,-0.13494614034578467,-0.04079915224738504,0.051725985760284914,0.08685861458110124,0.07332279482191395,0.04516992960086041,0.018227777257432395,-0.001822874994448897,-0.011375332916996238,-0.024121812765569017,-0.0726347646811277,-0.16388627085420254,-0.28064376886832154,-0.4000419139748283,-0.5141183178462566,-0.6151632747942833,-0.6663611255770971,-0.5295260327975123,0.1062566540766344,0.6737310770211513,0.8561306827985026,0.9190046643797788,0.9441380428883123,0.9535483442443564,0.9533828728864686,0.9460107783987769,0.935099193337504,0.9325274052435957,0.9447930663638554,0.9628204506839058,0.9772038204331157,0.9865100185221402,0.9915025571168239,0.9931100038673623,0.9914975142777616,0.9857583171145022,0.9727509515017265,0.9417265730121485,0.8490730950323144,0.5040979843167788,-0.2687787089354277,-0.6879487723469082,-0.8143898886273306,-0.8596564763496994,-0.8821731952188138,-0.9000331720761575,-0.9179736742361371,-0.9345006953801177,-0.9474883359020486,-0.9569718560943217,-0.9641214400668477,-0.9686081203166806,-0.9683569174014405,-0.9578442036850318,-0.9083145341852691,-0.5324785586516297,0.5398813655222734,0.8027843087381379,0.8559689462153635,0.8743777033822162,0.8868549735614621,0.9009608815772069,0.9162127307150817,0.9310841014860186,0.9442519209579538,0.9544794250917613,0.9619653896052432,0.9675197026026344,0.9710820471448177,0.9711095435277826,0.9642432723709226,0.9433523044878511,0.8909113706423851,0.7589425976510262,0.39914902368043714,-0.2886041063779719,-0.7450247383427194,-0.9002372219167649,-0.9542015520488656,-0.9745263512750344,-0.9821906359029823,-0.985135222892546,-0.9863811908367667,-0.986633064376215,-0.985376840616733,-0.9813096039751662,-0.9723624890304228,-0.9559643868256107,-0.9325342544831855,-0.9096656369164771,-0.899581694111441,-0.908724883872281,-0.9322495280800244,-0.9569512251253143,-0.9732409369748258,-0.980380750794037,-0.980498442426152,-0.9747730614775065,-0.9604396908343619,-0.9286763275529073,-0.858486581778635,-0.7162534823828307,-0.529862791756945,-0.4388455111387692,-0.4825913068822206,-0.5610912200505934,-0.6135747910163797,-0.637048067925244,-0.6405239052248883,-0.6308703440807939,-0.6122269264714094,-0.5760993249836194,-0.497928712232745,-0.337501091070765,-0.07028274457910719,0.22799111396167282,0.45345710950627555,0.5931228384211215,0.6755100850041064,0.7287542616243464,0.7706863353088383,0.8132795906238628,0.85693528097325,0.8983946524238181,0.9333608063832164,0.9585075864576669,0.9741040960761176,0.9814565480160415,0.9821491463636874,0.9749344080854814,0.9459842684321053,0.8323186665994446,0.4763658566760418,-0.06843323673420683,-0.44395806931914544,-0.624962507718119,-0.6712540617217778,-0.5546875476487625,-0.2289756719629595,0.15277345378762108,0.3547739961655364,0.427458643861691,0.43964756581262737,0.42416752592089413,0.38233004779212215,0.3155903995334726,0.23778706036291883,0.16167315055235226,0.10740777368691028,0.09539654309576388,0.11181598399167751,0.1383771779349969,0.16791944154148344,0.19900860346298355,0.2254604681835741,0.23892837839809142,0.23623601186618476,0.21283899633692394,0.17006903207679186,0.1304261999148879,0.135329037396044,0.20795681652222112,0.32771972350110945,0.4518094807518713,0.5460120553248845,0.5989441712738544,0.6261782212704231,0.6429234384266017,0.6655028408811127,0.6997757384117572,0.7479771820780475,0.7998591775384126,0.8459419188460227,0.8762817938583977,0.8692451926730477,0.7996759973205844,0.669378765648236,0.5387095922926399,0.47599045671898765,0.5003991327892574,0.583423895949407,0.6780562433413458,0.7555195594054803,0.8021918531287017,0.8002710400114827,0.750192837296226,0.6807391779220608,0.6033504748214881,0.5178414681364055,0.4346841768055643,0.3849657179817009,0.40267818888279183,0.5040837522165356,0.6364243548418779,0.7374135096808767,0.8006438925972371,0.8331543046892227,0.8348164533424837,0.7975209800345392,0.7117232810157411,0.581068683815792,0.4147837928651134,0.24109484145964888,0.09858566514899618,0.0051653158643210515,-0.05352215727654887,-0.09930688302553727,-0.14868017543308784,-0.20926831070926483,-0.2867638903606796,-0.38908606867575063,-0.5448135724009125,-0.7492827822148206,-0.677299335317514,-0.4773754741276822,-0.3774211196977475,-0.33140155957151474,-0.3008335936831038,-0.274065085587021,-0.2527500318232923,-0.245308062922151,-0.25853337521673253,-0.30262056694267053,-0.38806213909773946,-0.5246646845248186,-0.7067968938933988,-0.8629918553222239,-0.9019710114144152,-0.856875515234045,-0.7950500247010442,-0.7372661399397005,-0.6831953047059172,-0.6359134330935491,-0.5990916199050657,-0.5710691520025337,-0.5471836087845982,-0.5101424658834027,-0.42021452615348187,-0.2351630278732707,-0.005011004355447985,0.19092629437922676,0.35676837286377205,0.5321737305935546,0.7234295975952677,0.876507310930459,0.9532007438522759,0.9765758201230914,0.9802885598471079,0.9797538200679993,0.9791263388168936,0.9787226009466002,0.9785366011039123,0.9781511154249799,0.9746264822534975,0.9546454895324124,0.8634388516698189,0.6345624033874437,0.4154653602885117,0.3168818539511668,0.30202649795599135,0.3591683158281286,0.48600261319208615,0.29897484832396765,0.14408508761410124,0.07466351616845139,0.030550787816524795,-0.011736969299358763,-0.07556762532299777,-0.18730493212048255,-0.24612008696357576,-0.22026568883825998,-0.2125484877677425,-0.22770640358551125,-0.2642162133274948,-0.3193294940853353,-0.39685058131948037,-0.49743053988506475,-0.6100786679416544,-0.7109809571668925,-0.7773596668051991,-0.8022750416998784,-0.8034631636994725,-0.8001934684298118,-0.8055713386469784,-0.8232763827376033,-0.8491640681347202,-0.8766182600660862,-0.9000415738282193,-0.914462873865662,-0.9201431702676559,-0.9240649121786437,-0.9332328412927777,-0.9470711828362675,-0.9569503056927804,-0.9545276346859257,-0.9420468032523102,-0.9321123240830362,-0.9324767187361431,-0.9416937220382756,-0.9536156963669796,-0.9603879599979936,-0.9601847642783022,-0.9573033355981908,-0.9553201131848114,-0.9548639800140708,-0.9549620352300122,-0.9557488529066502,-0.9571564941530618,-0.9564392749753807,-0.9508393141417467,-0.9428435577768098,-0.9377983508196771,-0.9388872725284467,-0.941433599568629,-0.9381065934728399,-0.9267100241150299,-0.9146171655550989,-0.9065699887652537,-0.9024045644282953,-0.8999082803321505,-0.8940209749017998,-0.8780496176018491,-0.8553733441359801,-0.8318128253022953,-0.7756035349759042,-0.4716112873135838,0.4821965985470373,0.8586191023762614,0.938544122180217,0.9643284525843041,0.975104904506582,0.9802086732456272,0.9825559940208072,0.983169454331889,0.9824936508418146,0.9812231458413361,0.9803965630401131,0.9804753769354683,0.9809147473359854,0.9808699705612496,0.9799705308555844,0.9784107774790735,0.9764403053325702,0.9734735232566425,0.9671424888539388,0.951723449848141,0.9080237344237658,0.7346182057153658,0.05121056389771302,-0.5551719373152553,-0.7325406124027218,-0.7963498390332832,-0.8279315711199805,-0.8486073962112554,-0.864641166227662,-0.8797739005195501,-0.8947433906869553,-0.9088797649164406,-0.9208725036499296,-0.9296787035652662,-0.9349176396176812,-0.9377275174362035,-0.9398025986111554,-0.9421743632211056,-0.9450980211202563,-0.9483576727135956,-0.951054017443258,-0.9515399378823609,-0.9504505705768085,-0.9514087390912308,-0.9557364733572467,-0.9592551030832244,-0.9565104839705174,-0.9432444768673914,-0.9216654674822067,-0.9024542218025744,-0.8962570375577409,-0.8995389180785492,-0.9022534392294945,-0.8989380039227778,-0.8783437029595617,-0.7931938605593085,-0.491374677012714,0.11886868742786312,0.5201048917704055,0.6603540950579567,0.6833340131837782,0.6145137537099745,0.43196475503886717,0.13903721127883592,-0.17834994320830977,-0.4451411073034236,-0.6447681158770118,-0.7815385866786696,-0.8652209086129462,-0.9117119476134828,-0.9338401134557139,-0.934145249523184,-0.8998924418255385,-0.78583643557926,-0.4968465222362473,-0.050794422867226664,0.29982305986226054,0.48269404592359844,0.5602496089697042,0.5858488869623841,0.5928983246592391,0.6040118304829507,0.6292830156012261,0.6695007686520758,0.7100588962942869,0.7314395665385183,0.7480780114201533,0.7808196429152781,0.8287292458179718,0.8721935694167336,0.8924842101198917,0.8779086566379908,0.823710231962411,0.7555246161288748,0.7158854004180588,0.7216081034033832,0.7658570567711002,0.8304633930038363,0.8966248483970278,0.9467878539900174,0.9674139220305439,0.956772393759004,0.9222688997918282,0.8747790784384677,0.8208815021314455,0.7585186991162414,0.6765139434911849,0.5526525207508062,0.3613649690825933,0.11355702162293489,-0.1494260363475022,-0.38101716920400375,-0.5582571991180358,-0.6858270332212638,-0.7754087049591503,-0.8392872591832429,-0.8837957085671106,-0.9135533413979052,-0.9339946625920111,-0.9487449443608006,-0.9595948547430152,-0.9685210807538038,-0.9771960350414959,-0.9862754740289262,-0.9916465307661726,-0.9871156932194649,-0.9681930410610952,-0.9162388550977584,-0.6708005340217342,0.5954500973954596,0.9508838149258801,0.9856916164752395,0.9921038590829486,0.9929474020439091,0.9898272612224184,0.9814469540469501,0.9658847012899572,0.9423164972339575,0.9131201586944327,0.8856276440763021,0.8683081266515404,0.8639947430333548,0.8698925279592293,0.8808002405152141,0.8870725438824728,0.869387217715737,0.7836148470717631,0.5346887930686024,0.07130735318127517,-0.3848257856498309,-0.658673723472197,-0.8003111246342645,-0.8755224726718259,-0.9150678627431105,-0.9303921154828502,-0.9284539034563094,-0.920570418728912,-0.9206166653978513,-0.9311957124425441,-0.9386293066015771,-0.9312247589378804,-0.9116279626821273,-0.8852395434549682,-0.8570002377400474,-0.8318941873153801,-0.8139369988692547,-0.8046289811905033,-0.802641748058948,-0.805438469787445,-0.8094136313814082,-0.8116616404055604,-0.8159811780146532,-0.8108006179636459,-0.745102497215155,-0.5815175408655485,-0.3837736152332998,-0.23472289444767763,-0.16094365737621116,-0.1543236803507337,-0.19127479863824912,-0.25512861887437316,-0.33162615165240206,-0.40314880762610505,-0.4560395390806361,-0.4855112813731345,-0.4933198266214135,-0.4854154369987584,-0.4692441885085346,-0.45676367623762304,-0.45652315630046497,-0.46606683286938744,-0.4689789153341049,-0.4513297823769556,-0.42073700715693363,-0.39448782032138774,-0.38280503883671313,-0.3870997790334121,-0.4001043284048133,-0.41842731413808615,-0.45082309206242765,-0.5130095412814675,-0.6209577680674108,-0.7576935147689333,-0.816540192729832,-0.7488140861330874,-0.6725523026843215,-0.6431251856224663,-0.6509750896696566,-0.6865874757787043,-0.743355169996939,-0.8273682960089114,-0.901941372323518,-0.8628201659055321,-0.7192807775701128,-0.5665580550390751,-0.43557390144449293,-0.3287166739090464,-0.23594224804634262,-0.16776558543068804,-0.1248681447204382,-0.11151967497215673,-0.1278255156364965,-0.15842024505221455,-0.1899592080874461,-0.21415985789323172,-0.22447903744157555,-0.21996409503748515,-0.1965023457438693,-0.14504719546010225,-0.08800845119205009,-0.05286585301483019,-0.029040191712029775,-0.00012377430283565328,0.054306786094566115,0.15111339942563895,0.2827466646702938,0.3998081528715855,0.4819498173367189,0.5321519721921394,0.542587318382307,0.507493060216256,0.4374761737753321,0.3540017172749145,0.27572846684703306,0.21385396469086862,0.1723113645776732,0.15365154587336677,0.15393366646627535,0.17109112937074128,0.20584916400825767,0.26231385598676615,0.3230022913162309,0.34911898100960626,0.39499521161574513,0.5297191526239201,0.7119695938565792,0.8497210572442755,0.9254885012341874,0.9619564081618351,0.9779195655007104,0.982992723491629,0.9804870775022337,0.9697085616106599,0.9511518902272329,0.9302728849620566,0.9158417121352072,0.9166986425340219,0.9311040139694241,0.9121114934111301,0.75650323543606,0.5150010252428229,0.3170583429003858,0.16608627515150115,0.028364777673737927,-0.11166487737411422,-0.24129843899520098,-0.3394088609799298,-0.4071304897447683,-0.46263298374610146,-0.528018483179421,-0.6094592756317735,-0.6866305436674061,-0.7227472430537449,-0.7326512196513933,-0.7495915729508142,-0.7866153933796171,-0.8411904875676325,-0.8925759088393296,-0.9188373613828344,-0.9221472850174481,-0.9154695208482078,-0.9084606706752225,-0.9006100905618786,-0.8792832951427682,-0.8274277936928344,-0.7470595915843224,-0.6681256365535069,-0.6199955861472155,-0.6132947004586503,-0.6508939066353501,-0.732417689737437,-0.8378115710703977,-0.9083474819983042,-0.9093928458529581,-0.8714754463776618,-0.8256501926272046,-0.7826818580526436,-0.7489046762685398,-0.7350640500154522,-0.751166455336515,-0.7981553328545183,-0.8499175662456215,-0.8552591454239149,-0.7904773299074045,-0.6916055421512316,-0.5945322514581335,-0.4962919378872152,-0.3747965556533945,-0.2052915371407105,0.0013508568465561445,0.21763869288218743,0.4306058478433457,0.5774672073403857,0.635606544225646,0.6400743983367625,0.6302632595302834,0.6259345295787556,0.6319286599969416,0.6486053996367702,0.6718469386263187,0.6981608091124925,0.7212418860874072,0.7373784387754541,0.7453228657033104,0.7528245258716958,0.7675517297557621,0.7884204841399233,0.7999946564145919,0.775193213096101,0.6990434214080489,0.5856692149838647,0.4521406617673773,0.31329259487038763,0.19780799225099455,0.12900420489768194,0.11090755601783668,0.13114442222333575,0.16654811830373914,0.19465486399658774,0.19048330575708608,0.14575226485311185,0.06948643991993113,-0.02649255463807299,-0.1302268325829659,-0.2247067006479193,-0.2964279887138312,-0.35032779751116094,-0.3984408882670573,-0.45325575665558826,-0.5166755815309834,-0.5835669130447019,-0.6486994326358412,-0.7099235994111396,-0.7657642015074256,-0.8062454030225679,-0.8305992568788407,-0.846052596613066,-0.8591797669219416,-0.8727046801312854,-0.8802431030115007,-0.8743290476453036,-0.8548152346044438,-0.8206303706451851,-0.7497621089573432,-0.544571088708423,-0.03359593539700828,0.4695559724186699,0.6698270291698589,0.7305709212399639,0.7373656474678926,0.7067478410501697,0.6286478444615653,0.4705067226152802,0.20381944023909027,-0.10519180836214254,-0.33068837806416485,-0.4424569700789288,-0.45445373275254836,-0.39499449311551676,-0.3199731689253538,-0.2816575250352959,-0.2757534250606159,-0.28315574091545437,-0.2736992407200855,-0.22430122392017407,-0.1369658413869672,-0.03993199292649785,0.050423648649822406,0.1359515825755061,0.22245677799997154,0.31912476800045025,0.43922663752747676,0.572522043370923,0.6910818092833275,0.7701260735388405,0.7447313054148421,0.5518080129571437,0.3751590860278969,0.29504664939662795,0.2749513705177883,0.2879177705828211,0.32396048168408054,0.38469980672451265,0.4817471822015677,0.6213471959341785,0.767786211014792,0.8509102800601025,0.8742947209646816,0.8809331319704777,0.8878084490390024,0.8946159145953901,0.8915709134905859,0.8591384111131336,0.7625658668568936,0.5772510785148754,0.32070599784986153,0.015458309391932974,-0.305776470317834,-0.5630382567149063,-0.7135688388839583,-0.7933907922825288,-0.8366755182867699,-0.8601113943475192,-0.8678273026566464,-0.8601054256143884,-0.8419361553915117,-0.8220097232352145,-0.807388029844096,-0.7992137898207844,-0.7894046815750849,-0.7571009245503705,-0.6667685764699874,-0.4925976841195228,-0.26246286159886906,-0.03812043606528504,0.11955557450329855,0.16265175751937622,0.0626449456531806,-0.20693697726038765,-0.548259874342798,-0.7748734222620585,-0.8823221487316341,-0.9312734509680406,-0.9497253957109163,-0.9389051533208409,-0.8907137591629175,-0.8012037564159189,-0.6709609506792246,-0.47246217931302076,-0.12616753692125907,0.35501720875926085,0.6999277259062281,0.844623417396143,0.8970827012096089,0.9076885650451426,0.8932093645085125,0.858413219676523,0.8032764861690783,0.730181115467281,0.6708506322109674,0.6797289858237499,0.7512962879342819,0.8327783605425183,0.8979839269077952,0.942475854438933,0.9666630826945184,0.9720114602486858,0.960879265559524,0.9359763672345403,0.8978833794632078,0.8408521404927534,0.7317311592276645,0.3541411336646106,-0.7156311812875851,-0.9390370936985806,-0.9547649188687529,-0.9591376455897725,-0.9636786819822782,-0.9658300316889299,-0.9598134812213495,-0.930747213056265,-0.8095684725022818,-0.4047187044828123,0.13925822604330845,0.467425509545355,0.6547879400590032,0.7577020663765205,0.7906466045517562,0.7627927034111318,0.6640182208455336,0.4297769137504782,-0.016375150755898182,-0.4461258680635433,-0.6610922918605868,-0.7535914709354216,-0.8011758875535017,-0.8320848488954543,-0.8502260331087839,-0.8529421981422202,-0.8459291966537822,-0.8426967892334927,-0.8489700659795102,-0.8607367163151581,-0.8718153854305701,-0.8769807752114868,-0.8742783648441663,-0.8663144257521008,-0.8561894244585091,-0.8464351195038495,-0.8345406875102779,-0.8108011859835804,-0.7510361172913113,-0.60160672303875,-0.37209560645117074,-0.2761873080171702,-0.37525746653231357,-0.500663215019761,-0.5207919052383984,-0.45194819211881326,-0.3680780852423037,-0.3235074055674516,-0.3385783674604988,-0.40615455635302633,-0.4901733182731077,-0.5534559127523406,-0.5884712326481677,-0.614083573428216,-0.6517018262581573,-0.7060309410667431,-0.7616873024623926,-0.7848985273700766,-0.7377760138525243,-0.6206594138478189,-0.4313395981956554,-0.16596211791983193,0.12493780302654175,0.356931656059455,0.49248221898563904,0.5388341476267171,0.5169685798387048,0.4716454324241889,0.46524774965192955,0.5296532361339347,0.6485172617271565,0.7776504491098688,0.8724909397125677,0.915854718161797,0.9208572524836337,0.903096076009875,0.8694491684894806,0.8185971475499422,0.7484077686643111,0.6624602101143894,0.5844696569545601,0.557657715973848,0.6287237437428943,0.7325980759181597,0.5837086396964365,0.4168069696880175,0.3338195697470171,0.29754425649190386,0.30543544307323106,0.3775131645436834,0.5326766998643124,0.7188413140303164,0.8308482375500422,0.866416018354809,0.8728642696198206,0.8697026756873608,0.8493841999245794,0.7678270234059462,0.5022192035504086,0.0595327725031194,-0.20482440412176622,-0.2628458444218614,-0.18362750954549065,0.011779261486549737,0.2643895813398063,0.4661164661731819,0.5731679997802005,0.5922130926137331,0.502717071059944,0.17837935479850323,-0.4243119608799294,-0.782626124998088,-0.9010550275193199,-0.9458028917995471,-0.96595351662051,-0.9760422167833346,-0.9805163977407851,-0.9805484189567045,-0.9739205519216932,-0.9539486670576687,-0.9051721061295526,-0.7924014769583438,-0.5450230135683742,-0.11257784429513856,0.3438953417978028,0.6561321054058669,0.8386947462162352,0.9279399103168203,0.9586416907311437,0.9634790748718416,0.9598692665511562,0.9531469505971338,0.9453476061337825,0.9367864093158713,0.9254563015174624,0.9079078509180618,0.8786285396620054,0.8275039569712237,0.7273501870184749,0.4918175430038159,-0.005539964949232606,-0.4587995747941765,-0.6505625167050199,-0.724635518564341,-0.7582140983545296,-0.780935581330623,-0.810349105476251,-0.8483767633386484,-0.8866073304006299,-0.9121871600282367,-0.9134202322308493,-0.8696171679205993,-0.7375209531560493,-0.4629387235719309,-0.1099859021402453,0.149169545247847,0.255388364221818,0.268816235663561,0.2470931737230124,0.21386543285528067,0.17550395908479102,0.12346096332927196,0.044226999732757476,-0.06416540145113006,-0.14773958557822056,-0.12873330744452893,-0.04219818514903535,0.0025416092150311906,-0.04308601201236106,-0.12880488964538678,-0.18813599696470007,-0.20375498124819233,-0.2395257470598469,-0.352265078136902,-0.5080641034941267,-0.6226185624225438,-0.6723396452841661,-0.6757660574716797,-0.6448110528507242,-0.5774280885255703,-0.49293817206218066,-0.4227436432712687,-0.3942399216625533,-0.39769485415720957,-0.3958189017000735,-0.37980777286478207,-0.36643679526678147,-0.36707828465171544,-0.3776918560351793,-0.3875524167945941,-0.38661866572437237,-0.36339362641499784,-0.30676779666302056,-0.21237632404109236,-0.095705002611268,0.006695291566673967,0.06689890546501913,0.060066036487369676,-0.028854564726541715,-0.17671145821190298,-0.3370995983956076,-0.482552601538953,-0.5929951923556608,-0.6511523540266543,-0.6589988962498434,-0.6426142289285921,-0.6283426745213829,-0.6376022001512854,-0.7022566105597047,-0.8510344818310074,-0.9605350897049652,-0.7899559638778509,-0.6253814171153671,-0.5713481842948079,-0.5952911112635908,-0.6734716315234425,-0.7750451747805702,-0.8661077597194952,-0.9233120461364254,-0.9489674771362332,-0.954007132176746,-0.9435344913563904,-0.9122328096524159,-0.8300748314296116,-0.5566167577524169,0.3007682919219642,0.840337908178162,0.9458666964848732,0.9715237968718476,0.9795114350974206,0.9818306024838193,0.9816386855582205,0.9796100646335059,0.9755403916033286,0.9687979156055808,0.957915613001798,0.9407288732703918,0.9169648468548408,0.8912445862617625,0.8697581335480885,0.8474479317275575,0.7825532937245426,0.6382776432058485,0.49022346311481824,0.3989219605225541,0.3567213743527138,0.349884860648488,0.37700257407588716,0.44923576585227104,0.5901290630000096,0.7554772257136708,0.4326544207544438,0.07223744433141871,-0.14931389207847767,-0.32583045965169954,-0.4883713805646311,-0.6426631865405499,-0.7801398227244285,-0.8779417656899293,-0.9270130553786683,-0.9431658879544571,-0.9464907366600729,-0.946588989094951,-0.9448435979073015,-0.9377005525876155,-0.9200882272659695,-0.8883723878231177,-0.8444894718848556,-0.8013790842994675,-0.778677755501455,-0.7825224108257571,-0.8032049396954101,-0.8265842558651114,-0.8458127169671174,-0.8616874494360672,-0.8747010955128302,-0.8833057355428011,-0.8879034768348028,-0.8906757368767715,-0.8901854851771551,-0.8873952067065668,-0.8879451538937381,-0.8951325847699244,-0.9058349003356189,-0.9148104684746327,-0.9196390476812167,-0.9206392387569458,-0.918217675827597,-0.9104256322760712,-0.8997803201192033,-0.8930499830470757,-0.8936564851032727,-0.893996852745293,-0.8874023959404401,-0.8732952561595808,-0.8551478637209329,-0.8433277982576607,-0.8500460787002521,-0.8724579589220163,-0.865479365704277,-0.7633427175018888,-0.5750729684064372,-0.3512405617312584,-0.10540690251372138,0.180732323243341,0.48164065313223203,0.7058164179174745,0.8264342729960906,0.8870204071753105,0.9185153730730791,0.9341865802119113,0.9411910588968663,0.9438860981770982,0.9427012704736019,0.9367390740002713,0.9248411877388855,0.9070344513551558,0.8827862460266874,0.8464708365840297,0.7866509978881667,0.6834730307292546,0.5222437503396744,0.34006270944124994,0.22672080539111092,0.2298606861320649,0.3345888801927071,0.49265869631895187,0.6574003098861634,0.807033560812871,0.8840371572992937,0.8242896226632164,0.7181659587956344,0.6440439871914553,0.6057175732443963,0.5922189576789099,0.5865240871639129,0.5741016646628633,0.5412520381068051,0.46503316050650767,0.3382765086238264,0.1949856042596436,0.08151636292919812,0.015563602315251363,-0.0230590774728359,-0.0553028208415439,-0.09258502867769693,-0.1282849161846867,-0.15071998947769322,-0.13198377233265102,-0.04371467054586165,0.08132766812041779,0.21672766768945956,0.3578995371943556,0.4603271517431895,0.46925847447292385,0.3960470514104775,0.2845220827966651,0.16667689006087882,0.04690059793122164,-0.08152663740620583,-0.23257981823604393,-0.41373539922471164,-0.6003891219276337,-0.7054636433358498,-0.7191525560996797,-0.6920348097221004,-0.6512062871664881,-0.6100982888968312,-0.5784790078952862,-0.5592664938540245,-0.5537924378553417,-0.562731729040838,-0.5846470065547614,-0.6143881457568582,-0.6518657512462435,-0.7024267354938843,-0.7679271373192271,-0.8252183833363085,-0.7227390928721787,-0.33796556903018843,-0.01494146777586452,0.15866022642284525,0.24814965532731326,0.2860518183973454,0.2840668137574672,0.24941780693961682,0.18644609969454393,0.09043639231283354,-0.05664981145505955,-0.2644349234508028,-0.4832318004031656,-0.6404712624093482,-0.7252201621299301,-0.764221947030812,-0.7816592655613345,-0.7954282120663018,-0.8095394975516185,-0.8199722885462357,-0.810004895808131,-0.7412819073895327,-0.44341593880146113,0.402025944767076,0.8373370676989008,0.9301396867112738,0.9578629556722051,0.9701477853516027,0.9779052973135623,0.9833338571995865,0.9864024733056346,0.9866729508928308,0.9830350392194047,0.9728230561637906,0.9487772392472937,0.8902508095876066,0.7436868508520039,0.4215747259689544,-0.01738509352986,-0.359511534355586,-0.5688690806676894,-0.6914914347896688,-0.7629356540968923,-0.8002706883082611,-0.8109859319221364,-0.8072996891881348,-0.8025105244486161,-0.8033210226989994,-0.8100239404814479,-0.8213389142209362,-0.8330699805210753,-0.8419716882827313,-0.8476465294575501,-0.8517558750986276,-0.8569181430153104,-0.8663682307085684,-0.8804240991418915,-0.8967468334492108,-0.9115185306198368,-0.9222929518487706,-0.9281438044992849,-0.9288915222276828,-0.9252218407577536,-0.9181750712233588,-0.9088475651459551,-0.8994279691671252,-0.8929722851953066,-0.8915814298260809,-0.894326131397915,-0.9004464449191883,-0.9063367069385908,-0.9082196108904704,-0.9024662068403777,-0.8865351252430738,-0.863222243137199,-0.8412511727499672,-0.8236507866702228,-0.8088569246252832,-0.798214949780914,-0.7980403076493175,-0.8091950191032026,-0.8286520614987127,-0.8503947638415245,-0.8673630507895463,-0.8776616702755102,-0.8818365338744273,-0.8769701579411298,-0.8613304870198666,-0.8396584533894851,-0.822205302128261,-0.8121346377487522,-0.782842586411704,-0.6594613297394147,-0.39097803852260865,-0.03707858175944973,0.2684401731225699,0.4719465428668097,0.6012733727422905,0.6784373825758724,0.6994496438318133,0.6488989451855969,0.5277766059280926,0.37446991175736566,0.26596394532402473,0.244400197665151,0.30483400307721364,0.4149786856914934,0.5306884395699936,0.6287446144969472,0.7066390455367508,0.7561524349390939,0.7444516467043583,0.6447296449536186,0.46087753050908126,0.23687052916767562,0.005394575919413393,-0.21910441665468772,-0.38506076090913355,-0.46447413714762376,-0.4642070450034101,-0.3583699732479568,-0.004482506668607976,0.6021829787709355,0.8738086288119512,0.9405047412514698,0.963281032711986,0.9751186895691422,0.9823131271935491,0.986530085230963,0.9887334532646557,0.989620616323301,0.9896817609888056,0.988897825680493,0.9853647209190928,0.9689162205411586,0.9060115071905305,0.7749154197839937,0.7091788674507961,0.7956311396018064,0.9046194726934258,0.9580724447549838,0.976893869580589,0.9807762799671099,0.9765417691227145,0.9647988730224267,0.9419282653275869,0.8942889152403892,0.7788324908745239,0.5148443410209401,0.09165857796677503,-0.31017926899040765,-0.580774654992826,-0.7475272744632077,-0.8503043790934062,-0.9106243073340697,-0.9419519065322655,-0.9541677221250668,-0.9536408416030048,-0.9449154882621551,-0.9308956254954743,-0.90961044991426,-0.8662794554168017,-0.7563722545258288,-0.4793398190191119,0.017838425810890148,0.43930013496945897,0.6485415986767763,0.7470902199508791,0.7975227365202039,0.8197405559288747,0.8185347168453021,0.759590482618105,0.32328126142924396,-0.34815763169482583,-0.5369950481367411,-0.5869919161177354,-0.6010285011632509,-0.6105005787001686,-0.6364182396391106,-0.6927532058981338,-0.7807991634798367,-0.8823902520011582,-0.9564291015418199,-0.9756388006378521,-0.9581268740955072,-0.9333133398520298,-0.9101635636132691,-0.884125470805361,-0.8493895814257525,-0.7986980572508553,-0.7175263336692713,-0.6109743360460511,-0.5190069322777461,-0.47691377730020157,-0.5010150451314971,-0.5922733648170684,-0.7093157665927979,-0.7536569791473673,-0.6851096449742181,-0.584426578075349,-0.5046263202975525,-0.45638479699429385,-0.43504211610575844,-0.4291250463261901,-0.4264429028629784,-0.4186109209583656,-0.40103960097854274,-0.3742565854058128,-0.33740744620352536,-0.297850117024185,-0.2742002193658314,-0.2754812968210314,-0.3038149058789844,-0.3502618433953173,-0.3961343607489904,-0.42202190263846345,-0.41020619146750825,-0.3672635657916177,-0.3351987692935249,-0.32933522035536017,-0.33980136841034964,-0.3573306079107258,-0.3828290022209835,-0.42337414584471,-0.4902928147104025,-0.5896516263102479,-0.6971456734491625,-0.776169464324744,-0.8097616455464335,-0.780430629442019,-0.6625899977756863,-0.4778700432222294,-0.24175470715751654,0.06814407512159183,0.39468479811957635,0.6145689328428466,0.7248501090840346,0.77416936170285,0.7853747637894377,0.7538702967075005,0.6610736493988848,0.5215251120225283,0.41139014067454166,0.37682084729631987,0.4151891120108829,0.5059847819986139,0.605795399888502,0.6640608433032074,0.6748579382967491,0.6556993055969991,0.6197754172477481,0.5738197060483048,0.5265184766833062,0.49621103352326473,0.501757734015965,0.5567296796810149,0.6462057199922759,0.7226597062229465,0.7604305749487864,0.7745022128588437,0.7777840742785195,0.7594957603123421,0.6813824262458347,0.5257596537102086,0.36643297146076215,0.2895995038635424,0.31780043951613535,0.42577048289066566,0.5656831464909489,0.7067996010693838,0.8289414240797931,0.9103277196257032,0.9375035571255904,0.9234080740948615,0.8873893802619395,0.8390019217363753,0.7857835772560912,0.7343567977314914,0.6963829643986277,0.6769587610941947,0.6739247683136074,0.6905956286582696,0.7380180072555003,0.8072786789333283,0.8590604626857813,0.8841301670991395,0.8915041459851238,0.8835828381969457,0.8560479980230932,0.8025543031541092,0.7177637377072924,0.5977700696442324,0.44147597345200357,0.24004909378722897,-0.03880646666145353,-0.43235382654710763,-0.7337512891270768,-0.7996898201722317,-0.8107220930700136,-0.8292847421349294,-0.847485436460579,-0.8585816386291186,-0.8645120237518664,-0.8639810681567791,-0.8504446338592075,-0.8208865747354037,-0.7818724333203106,-0.744027689561517,-0.7101177443662238,-0.6760474306301925,-0.6445621002049391,-0.6250622359659073,-0.6262382941313609,-0.6472879353398763,-0.6891296713603885,-0.7563986361516987,-0.8374126553217609,-0.9050192518462565,-0.9403496452661565,-0.9563201619843275,-0.967265691652174,-0.9734990645993529,-0.969727226293343,-0.9566883178258316,-0.9417028162628994,-0.9330409685077692,-0.9352764955801239,-0.9452725270163402,-0.954375794943826,-0.9551780763564772,-0.9434116702939283,-0.9137429983540195,-0.8528448202773397,-0.7049096030419315,-0.30470276884474845,0.2852681599728597,0.5959396000578981,0.7321279906365559,0.8211737701930172,0.8797296728384353,0.9006814840430134,0.905835482554292,0.9161141719999876,0.9333684864829055,0.9513530594788672,0.9657137419722489,0.9751051556952182,0.980318785158282,0.9821761264578253,0.9802244259869164,0.9708841488731382,0.9401135765182059,0.8391411410195695,0.5725762110743453,0.24581484552285962,0.06605538206394053,-0.01537714919124059,-0.09150348587362202,-0.19680737210101812,-0.3273049312756978,-0.4481346951917544,-0.5121111447156868,-0.5207042921857022,-0.5045578277381558,-0.478755716715546,-0.4518660671416796,-0.44376217297912596,-0.46792224504984925,-0.5144521335232687,-0.5655309938234383,-0.6098044097859087,-0.6455789304989088,-0.6744021325450752,-0.6948991739542183,-0.7082572105169244,-0.7125862756613467,-0.7130828767722469,-0.7176214158375982,-0.7296394332547702,-0.7476222017809031,-0.7732353554308027,-0.8067553340373301,-0.8408575041361344,-0.864621620060833,-0.8692826630881826,-0.8527455807531416,-0.8270684336028911,-0.8098552414648276,-0.8051890148855915,-0.7994366588037055,-0.7740597408559224,-0.7085214622212429,-0.5617713948632234,-0.21901208513905884,0.23053969063067734,0.47849300076737905,0.5750739938011614,0.604407694779506,0.5918479630269147,0.529617712758024,0.3870966787956691,0.1537925009345602,-0.1067674988678866,-0.29278736525704574,-0.3741623061439628,-0.4053576161198242,-0.4256789521820128,-0.4457980576304134,-0.44563779083739724,-0.4125967824814406,-0.3593394289745473,-0.29565489314413,-0.2257533780110962,-0.1559138822605007,-0.096881068620904,-0.0564871935044401,-0.03780511868106178,-0.026432815815235364,-0.018474914581848207,-0.00841303591901799,0.0023718784493210352,0.00841567051577762,-0.0015060396370203712,-0.04120214062258967,-0.1168377081537848,-0.21637279021439346,-0.3159770899903284,-0.4256532498187216,-0.5663264400283897,-0.7068121782709222,-0.7761814077253998,-0.799281333639356,-0.8062712910074903,-0.8013132394858407,-0.7863901954621434,-0.7793664111367961,-0.8021841571194409,-0.8513218335701151,-0.8986155242540171,-0.928201421415182,-0.9410286003198292,-0.9360312045924812,-0.8863253242530038,-0.49776474223940687,0.6031254928556307,0.8578524344144264,0.9192715947353106,0.9476537373510685,0.9655216490219092,0.9770833973084484,0.9835506459177715,0.9856237773082426,0.9841926067070849,0.9799151596491955,0.9732539345875308,0.9650551002066305,0.957781600031244,0.9537478319564834,0.9509457451745961,0.9362446488009452,0.8475291494494939,0.5477364665244981,0.20563936627241747,0.16177447518370192,0.3824052230524572,0.6447426447574319,0.7969817946946861,0.8721655259165775,0.913466271442807,0.9377994745623669,0.9429023740086446,0.8623704486062517,-0.06971270473096793,-0.8348548996574789,-0.9375858649661497,-0.9607460133408442,-0.9664520152344356,-0.9689641174349741,-0.9730133185991147,-0.9778419600273875,-0.979877637558731,-0.9765632845910498,-0.9687698917978954,-0.9598539717332141,-0.9527953256797921,-0.9501995276849206,-0.953583884408636,-0.9626789773371585,-0.9749781042069107,-0.9851762002301169,-0.9887655775730588,-0.9858290290057963,-0.9807626551363576,-0.9768526234592789,-0.9748818549020968,-0.974618974416611,-0.9757755191248141,-0.9757340004583731,-0.9677918470024528,-0.9444922384579842,-0.9035634133753182,-0.853735589989189,-0.8039852221992373,-0.7511949668010387,-0.662548859505556,-0.45606850513352026,-0.027174383997454362,0.5240371433725383,0.8550413872968149,0.9511140450186141,0.9660841829941401,0.9745231684549315,0.9849910736932506,0.9845110114202089,0.9707446180362067,0.9515397021758681,0.929679329857172,0.9015452010839421,0.8651204828140726,0.827277076292243,0.7996494900449805,0.7914170978987533,0.7978150382007595,0.8037119178683501,0.7960350916481351,0.781346756614487,0.7736343078072153,0.7348754760337952,0.4785498878952636,0.22641148151490506,0.10525682801897812,0.0052181479029970584,-0.10602842815328982,-0.21543698225097677,-0.3090992524907423,-0.3704358201814016,-0.4012409653708384,-0.41295286580335655,-0.41492743574709606,-0.4150345305103473,-0.4151687988839946,-0.41882594318587607,-0.43547203809162416,-0.4791054650701684,-0.5644599948061744,-0.6838421092808548,-0.7435452476522766,-0.7307162915455616,-0.7222714683800728,-0.7404163547519497,-0.7745993107171519,-0.8075596401865561,-0.8187601312646904,-0.7905384938093073,-0.714620526493938,-0.6205478829990209,-0.5544831684468828,-0.5389517504940943,-0.5738699222551442,-0.6607567391130936,-0.7768097795032134,-0.8676962237982732,-0.9100150252792092,-0.9209151745493378,-0.9160194212043773,-0.9023892152447544,-0.8789398520623303,-0.8397061821306285,-0.7766597283018416,-0.694308580947288,-0.606298526371315,-0.5099165185852567,-0.34690285147084937,-0.03842813519542365,0.3417656866017256,0.6008845860356372,0.7306958257367532,0.7945882593855239,0.8292174977233752,0.8511625839837078,0.86973412674202,0.8910250993138344,0.9122114199592166,0.9228221388767963,0.9205890119717294,0.9117611962253911,0.907372521848449,0.9170685343210202,0.9410875146971249,0.9682939701814272,0.9865773389230024,0.9920364104326568,0.9874669178848916,0.9778772692316997,0.9670377701105103,0.9576809286633106,0.9507053346353773,0.9374148093421992,0.5834772964461263,-0.8601930201106528,-0.930401375119854,-0.94308702410751,-0.941759739268987,-0.921153959040014,-0.7948971124957972,0.4933633213437461,0.923790559989999,0.9544679775948096,0.9562396581015179,0.9460673929808155,0.9122534332915122,0.7848285105464752,0.33026999270118423,-0.2284174228068937,-0.47606627536359164,-0.5861462683505735,-0.66512237328004,-0.7493359587589421,-0.8375437623349407,-0.9000351617568778,-0.9048833079697153,-0.8672541061240369,-0.8232303599251276,-0.7909908985532629,-0.7747863198796464,-0.774960500747209,-0.7920503247595112,-0.8253492632480375,-0.8671455729073,-0.9075449836024918,-0.9402665514355012,-0.9642468940568805,-0.9783254014277838,-0.9776162808978991,-0.9541483802512108,-0.9056193650463831,-0.8438592753925682,-0.7866285659556085,-0.7426975460321792,-0.7096442220804765,-0.6790573835215288,-0.6402965846755626,-0.5921819620800781,-0.5411625615587544,-0.48395400287042706,-0.4151588275565694,-0.33241471833160363,-0.2399584853247557,-0.1336337285002158,-0.012536094549305066,0.12484147990591135,0.2521089711994493,0.33259248657832463,0.3592270216623209,0.34343231646774713,0.3020043452196714,0.24514238314481027,0.17330522521536965,0.08097772120098214,-0.026876287942491434,-0.12963240541807453,-0.2202780020446613,-0.32192388001552935,-0.41694957826229806,-0.469512334465759,-0.4873247825116917,-0.483113469074386,-0.46585879028447835,-0.44868191374231947,-0.44879548399627883,-0.4815151258684294,-0.5361189202601224,-0.5793395598577626,-0.5840451579103324,-0.5484636984769167,-0.49081346268549014,-0.42597911821448003,-0.34627607453459197,-0.1982026165574274,0.1424480285997122,0.6470026545694776,0.8890378876753214,0.9501301885721716,0.9687759266226111,0.9748381658053986,0.9744568670010625,0.96857592071532,0.9581000220795147,0.9452595660641234,0.9326207852502245,0.9212736192463116,0.9028778907614737,0.8208618606855681,0.44120757341255656,-0.16704659480749587,-0.45428531730060145,-0.5090228330981206,-0.3307536332922094,0.1838131878091799,0.6054748115094364,0.7803268963515909,0.862893875183545,0.9080499591231184,0.9344319943600092,0.9481134753220466,0.9488152786895514,0.9212433426140654,0.7432804170188471,-0.496469192674474,-0.9293327928781104,-0.9752012140499269,-0.9837184458049285,-0.978537453925734,-0.9590458001005381,-0.9231147174890769,-0.8762093249157368,-0.8334799140368059,-0.8132833861008588,-0.8208773477185641,-0.84439145580688,-0.857076706551616,-0.8486970576911811,-0.8364237839349663,-0.8381315400223346,-0.8602846105522602,-0.899555231859058,-0.944068967608789,-0.9712037394029808,-0.9391857848985975,-0.6733474438007513,0.3298251326929289,0.8373392297247043,0.9404837740831272,0.9689105961311183,0.9780744708184497,0.9797374115537464,0.9766558089134142,0.9689959158081818,0.9578159003780226,0.9476190216756347,0.9430518021615639,0.9431099920494516,0.9431254658341987,0.940732529992691,0.9330620412314636,0.9098181161364987,0.8383915005320082,0.6145499517930033,0.19160317815118721,-0.1273711367981825,-0.2701768929267162,-0.3327770183165506,-0.3712100385068187,-0.4126148156907552,-0.48178890256773466,-0.5900988070944059,-0.6971829181601917,-0.7471227895646793,-0.759579621210097,-0.7696427607462275,-0.7795467245471353,-0.7854607136595702,-0.7876474100110908,-0.787342225183249,-0.7850003838881808,-0.7764186264872134,-0.7574434503386936,-0.7336628926470687,-0.7181134977593256,-0.7197360140533219,-0.7372145153612327,-0.7614710270200306,-0.7801277443311458,-0.7807968780590225,-0.7586368350715496,-0.7233656692322562,-0.6938419422277459,-0.680492348354268,-0.6854689618847033,-0.7015673619272655,-0.7193107741457757,-0.7375992754378382,-0.7555684604813239,-0.7698937020300559,-0.774270344069373,-0.7701220962627419,-0.7603363675492618,-0.7429960296016367,-0.7165010973339658,-0.6830127410973621,-0.6451572029167991,-0.602764333087087,-0.5447283050958931,-0.44992356505765346,-0.3074951485866467,-0.13947678913668118,0.008612223326816574,0.10190354924078683,0.14723685951944512,0.1600645477545518,0.15179600726090423,0.13552043962392243,0.1293834019165676,0.1360007845251883,0.1569764016141554,0.17749979715435987,0.18715237244837446,0.2000768235248026,0.23543435241640012,0.29899588963516455,0.3842138332004355,0.47091843253371124,0.5335109783593874,0.5485749625939088,0.5340274028310901,0.5310755712270845,0.5587615203327522,0.6112000140756071,0.6586958765703224,0.6788118409001415,0.6845195405964001,0.6854030482254383,0.6786632757571267,0.6538687898015257,0.5949842099966002,0.48467653992778315,0.2820206803700235,-0.030103635028552348,-0.37927380594616983,-0.6473940505699174,-0.7915714216521003,-0.8554294312123576,-0.8780189245573355,-0.8763199361721621,-0.851421826866166,-0.7590204475433359,-0.3550229204582217,0.42457992615414486,0.7542492690022164,0.862648568993077,0.9120286100881307,0.9382504549915013,0.939498222528682,0.8868289776472383,0.7864795971548606,0.7250375059605457,0.7445534404384271,0.8186174636429907,0.9020922584535401,0.9605729002544566,0.9884175819943903,0.9959374988018,0.9926279105212422,0.9840833312108175,0.9739095538671613,0.9654923931492561,0.9579154731949947,0.9332915384640994,0.8430662784265219,0.6227877533842862,0.20674568864618578,-0.40279915752721074,-0.8496730179882334,-0.9592253666562232,-0.898473160298824,-0.7546265681831787,-0.5904300002059223,-0.4698529865335671,-0.4295994008676811,-0.4695702310297159,-0.5770628628876545,-0.7289815693669993,-0.8612992457645755,-0.9038684913002223,-0.878618481509628,-0.8485809779799284,-0.8316074073343704,-0.8219705383307206,-0.8189869872432363,-0.8321903780255523,-0.8685599853380286,-0.9095117453271361,-0.9241088444259861,-0.9039093925073595,-0.8660562699541974,-0.8339788530361759,-0.8239067141180849,-0.8388371830447235,-0.8705374417164753,-0.9042611040702543,-0.9290108469612263,-0.9417543480174487,-0.9447956448530003,-0.9422796101540438,-0.9386842360600339,-0.9367520619427769,-0.9361569586566816,-0.9352825594278994,-0.9310224718812978,-0.9195703471905071,-0.890760610619264,-0.8383629131172516,-0.7666253441261076,-0.6859020826712283,-0.6052174487531806,-0.5121053359395544,-0.3946405310517185,-0.25409212674814474,-0.12421758316763502,-0.024118831356984297,0.03933084556611663,0.08001600302902635,0.12880136741240286,0.18886243181275136,0.22837309724656313,0.20571540262603122,0.09040820811966158,-0.10436451992362526,-0.29713335525001283,-0.43856793258600246,-0.5313530087040077,-0.5870412363279517,-0.6178295681104776,-0.6421239074221237,-0.6650033304772796,-0.6894259088159234,-0.7201994436990216,-0.756909228028823,-0.793946562466899,-0.8240495375368634,-0.8444155102853972,-0.8547217057705437,-0.8550234532378815,-0.8390555630851495,-0.7795642767249683,-0.624946764515715,-0.4001176063804674,-0.19539601009837287,-0.02203319744282044,0.1624907920910146,0.40078355555066897,0.6610124504901715,0.8454621739681871,0.931124161909861,0.9631668025822882,0.974105959722558,0.9771037758647382,0.9767090690891693,0.9742418803584931,0.9698695016681336,0.9633715924260289,0.9539865174796301,0.9394056952450794,0.9166900317712448,0.8858393545865688,0.8487753363111744,0.8074596534297405,0.7581093319822446,0.6884170668274496,0.5617765647026504,0.2834944424692184,-0.17016256314610023,-0.5151867053724397,-0.6576405377763506,-0.7083702785176639,-0.7359298813004906,-0.771881964721507,-0.8232330474280581,-0.8757071308589321,-0.9089694846654305,-0.9231466558314213,-0.9299146988511656,-0.9362961866356155,-0.941509377364044,-0.9388845112206272,-0.9186706746607879,-0.8783304418383286,-0.8128430176572843,-0.7049861863704133,-0.5726070694726209,-0.47790152977865674,-0.4464922312428743,-0.4680558526553213,-0.5366767988803114,-0.6567516798988344,-0.7972026631696673,-0.7396623380703551,-0.5464429593662545,-0.4450098512083823,-0.42354197642952823,-0.4551547419401037,-0.5076083233983453,-0.5009063005699459,-0.3844251406411283,-0.23965602698802366,-0.156207382530082,-0.12949128403879934,-0.1188237377925277,-0.10587638665259286,-0.0972480793910109,-0.09184064506410572,-0.08412060375400827,-0.07180447836681504,-0.05753015427798437,-0.040959581034397965,-0.006570387859486358,0.06729240534700123,0.13434174677876456,0.15350026986319912,0.16412317529069595,0.18057432946819998,0.20268627432474196,0.22549520564415185,0.244675057663822,0.274816991381961,0.3371376873059992,0.4371775018560859,0.5540852622363206,0.6587782905830099,0.7378258439198803,0.7841133343716052,0.7946112730376772,0.766662296173744,0.6769418851333888,0.35379205748706444,-0.5073722704995798,-0.8693420945366991,-0.9257465551357903,-0.938720942279685,-0.9407005692915645,-0.9397808602539627,-0.9379304813192314,-0.935099682530249,-0.9208370742040536,-0.8617616491218487,-0.715547338243603,-0.5290483244590115,-0.39337586095763094,-0.34361907466851505,-0.37893307272365145,-0.48169907936832024,-0.5741179199375843,-0.5613876483535398,-0.4969586056551361,-0.4530259638961241,-0.4630638133022794,-0.5412925065583662,-0.644268211359341,-0.6874652102688105,-0.6790047681634108,-0.6701277242908851,-0.6742768894730046,-0.6876541369610705,-0.7044188528539931,-0.7189362171075041,-0.7200828726088102,-0.6648868797496421,-0.46416701968295104,-0.09485295430420845,0.3980227853392687,0.775946894982395,0.9108894921506919,0.950889969852819,0.9679540015053962,0.9783584499020098,0.985498287002908,0.990291933148671,0.9933966382098529,0.9953191493442071,0.9962342844135297,0.9957812834755937,0.9920153967407352,0.9806377006926157,0.9569639309915834,0.9197807197538364,0.8671151367891269,0.7707414270466263,0.4796590671574787,-0.1069282099131544,-0.4661233829218204,-0.613971366202023,-0.6964029926693138,-0.758091802937093,-0.8094051033469436,-0.8508501191329252,-0.8808278748995158,-0.8978375477673595,-0.8999701508401521,-0.8884966787307043,-0.8715254768347859,-0.8577067504394229,-0.8514137353679129,-0.8515409038479462,-0.8565197249926904,-0.8628782141905639,-0.8694333684585441,-0.8798375442482497,-0.8941151578275461,-0.9033714720321436,-0.8937462373544819,-0.8615242798248739,-0.8227351217703768,-0.803930162670103,-0.8211747420001266,-0.8737669127037975,-0.9314810177909689,-0.9532519827804765,-0.932619956105321,-0.8952986583970199,-0.8646455338337715,-0.8475800204302295,-0.8439407965082526,-0.8519035784051878,-0.8583046471828832,-0.8458222318226956,-0.8053698766158703,-0.7402350761266847,-0.6597472798153508,-0.5797995383833663,-0.5277262625240351,-0.5155518210199123,-0.5167092122673004,-0.5048961651014575,-0.477582585149398,-0.4354613191023516,-0.36367726029708636,-0.21131199913874182,0.08407294489494792,0.4531296153924308,0.6953812563682666,0.8069626711269107,0.8592048105017538,0.8862129415430291,0.8991450852982487,0.9039051602128282,0.9033022769238341,0.8965706534813149,0.8806870632932103,0.8507829537464016,0.8057038081970462,0.7505739563208458,0.6959042792802057,0.6505974133165582,0.6222480023775427,0.6152164595594425,0.6430578966542803,0.6948150618886001,0.7271388093177723,0.7234162315186713,0.7069779554569898,0.69889699675919,0.7283029914057251,0.7980529908654342,0.862821748508316,0.8995756030084767,0.920348253447303,0.9324088589529054,0.9355297707012791,0.9285181623001243,0.9086392222680066,0.8617101988674521,0.7355540564836198,0.3915856083477463,-0.18228771243233893,-0.5596285923845031,-0.7093033305325596,-0.7551639584962118,-0.7391951100504435,-0.6551239406305931,-0.4719975126739827,-0.22020943333288293,-0.04787167723487503,-0.027209437278545755,-0.11492201285423445,-0.2401782593653357,-0.3512193000991306,-0.4373998300171187,-0.5082899171421614,-0.5742271883142238,-0.6323648314523856,-0.6568071361853735,-0.6159556131852246,-0.5289683764524487,-0.43879854793446915,-0.3665921594756808,-0.3156571808415138,-0.2812439179750436,-0.24920833755130772,-0.1662577546921649,0.3090797140130431,0.5439145445522147,0.5939978560709464,0.6441032013038231,0.6841758685946777,0.7012512392108341,0.6885821784868448,0.640946844772559,0.5460735317591989,0.3844965065863246,0.13247631901777335,-0.17556441769778697,-0.42537886174193806,-0.5637396296877479,-0.6205477676686031,-0.6365519808746981,-0.6183498270321033,-0.5182811789389703,-0.2945521668665121,-0.06732584306011377,0.07696845170721534,0.1522231200814617,0.18377317319985806,0.18057279119063324,0.13523536786444357,0.06237214015932745,-0.00014382377905092664,-0.048238259274795796,-0.09128095984373741,-0.13589028948296136,-0.1845044040314812,-0.22867007047870178,-0.27402889622662785,-0.33865130485306605,-0.4285710779504906,-0.4769878730217405,-0.3951674823224508,-0.21913549790618592,-0.01252463118766019,0.2225600366734438,0.477376720455348,0.6763922459778255,0.7095707120740055,0.6696659391010275,0.640339149317925,0.6274499683422637,0.6151612261054593,0.5854836365169189,0.5092917465079374,0.3707074544726649,0.2065028344211023,0.06239180071377639,-0.04893684914582493,-0.1389530594266681,-0.2199728584532407,-0.28001403045626366,-0.2943139731569508,-0.28034583820179115,-0.2761260909101157,-0.29002975920092344,-0.31633609546252167,-0.34824196614093406,-0.3889320167271654,-0.4423003588663387,-0.5101800712709931,-0.5851076574133794,-0.6588901362130314,-0.724579227822374,-0.7731277014779346,-0.8029939710177755,-0.8189805875825034,-0.8260246347835711,-0.8253561154051322,-0.8245121289490106,-0.8369094357319545,-0.8688537108565224,-0.9124399531674745,-0.9490935871916021,-0.9629232402598922,-0.955695963713875,-0.9371783769728699,-0.912912132126998,-0.8763049694765114,-0.7969327328808293,-0.5827981455427527,-0.11223672824755115,0.3640397461660503,0.6157353830880877,0.7340515937577057,0.7968819651391016,0.8361320267024946,0.8672289531564217,0.8968159611112217,0.9263989871307414,0.953258056946761,0.972505298440141,0.9795070330560735,0.9729782898315368,0.9581920359625333,0.9436362266458859,0.9325007252537157,0.9032604734533383,0.773344163383961,0.4468041182889867,0.06661074807027174,-0.20686431064851324,-0.3866956213814111,-0.5158034934679514,-0.6202012548670427,-0.7102246219805513,-0.7907476879564975,-0.8603998868460009,-0.9160425889721115,-0.9496876007251025,-0.9629730254295352,-0.9676674068596219,-0.9727503555054972,-0.9772295738038839,-0.974773229602623,-0.9565107784540894,-0.9142104763533733,-0.8549739997505079,-0.7999409634708119,-0.7663112558185907,-0.7594539652616487,-0.7734483680221462,-0.8017214081498913,-0.8373744055068082,-0.8695305808092259,-0.8866530010186271,-0.8778265087006724,-0.819116121183349,-0.615358873591762,-0.06731058572474372,0.4211043412400242,0.6228742319967281,0.7105554579967731,0.7523636784607632,0.7698061513224139,0.7696748515330789,0.7469453702354067,0.6893035035444268,0.6011719510582102
