-0.7737865022063489,-0.7989572383622334,-0.8283702742661673,-0.8508676824040298,-0.8626869314731888,-0.8681969181505241,-0.8719300909953018,-0.877669294363035,-0.8865156371816382,-0.8968571608111539,-0.9102235424420939,-0.9281302612414221,-0.8080696151521405,-0.5365454063186733,-0.4019943011543149,-0.3885861765337659,-0.44528975545784666,-0.44739989521204615,-0.34781975967980755,-0.25297695427718186,-0.17452814901032557,-0.09462873761166653,-0.0031529239325976035,0.106197200520057,0.23494505858100356,0.3703435620647989,0.48552236277011446,0.5691976827504105,0.6352424625797363,0.7327848286161837,0.9163126770268752,0.8034108997631144,0.6162686700753299,0.5991554232979819,0.7067640912517554,0.8337910938820117,0.792834601410234,0.7182310827186235,0.7096588764169265,0.7471258146092671,0.7947174561502094,0.828918442183453,0.8445409338139535,0.8470790914194267,0.8396820199689343,0.8252958324855987,0.8065961409097827,0.7930731697694164,0.8385244958875233,0.9446501747782459,0.8401020830352564,0.7088927638707071,0.7140471171998217,0.7803062162951602,0.7121422254904629,0.5682425606559183,0.4829120433491087,0.4431540925735312,0.4183629426328792,0.37945042323067946,0.32117936367559724,0.2567193429476741,0.18992915574483787,0.12158056913995342,0.05078720732578125,-0.04732092865064984,-0.08247052781658033,-0.09364908347490941,-0.14123321973080513,-0.24981166520693285,-0.36108370316126376,-0.39998017618488135,-0.4410749069353285,-0.5051147787584953,-0.5815550852637486,-0.6525129322810135,-0.7058691119211477,-0.7387319886906034,-0.7612115344740684,-0.7852848502494466,-0.8155437806224598,-0.8467561643574815,-0.8900664368368043,-0.9640875528331709,-0.9099744670448342,-0.7334291880164848,-0.6875895788172065,-0.7921388291186763,-0.9501082895158547,-0.9445712489429328,-0.8572877089271439,-0.8188710652892376,-0.8283430983017246,-0.8514904096889525,-0.8577155872744711,-0.8347715845852115,-0.7731310009307375,-0.6711028722372299,-0.5505289611252602,-0.43981091140640655,-0.35063665036907443,-0.2891264075103176,-0.21787050342305586,-0.08843713321063632,0.028441571235837147,0.14951860292698924,0.37980310648725435,0.6516406120004213,0.5841531801390422,0.5428635900173581,0.5777969902012923,0.6592031437052147,0.7592266911611395,0.8519677026036946,0.9148375577066693,0.9204490964177148,0.8595414412254092,0.7712053331666716,0.7022407527622749,0.6711368062579541,0.6606415354859154,0.6213912748164583,0.5914736672405074,0.6312211575477834,0.7503629052838275,0.8672800469921287,0.8466438589948998,0.7873060109676675,0.7853776688488948,0.828948149009528,0.8712396035355253,0.8790994924064969,0.8559544302947694,0.8169221526642876,0.7663349734425535,0.7060480287335374,0.6325332370633082,0.5497002162166564,0.4921019844573839,0.38405239280481873,0.22120102707679185,0.15735484733891356,0.1356535951022644,0.10618748543938424,-0.07851307833442497,-0.352792299464026,-0.4823321093765342,-0.6375425683469546,-0.790406739750838,-0.8819296601189704,-0.9137840494954311,-0.922818598095905,-0.9294093682530852,-0.9371811362304657,-0.9443824380169158,-0.9508378781382699,-0.9539079398123473,-0.8892195295315664,-0.7030684122641396,-0.5875899191231255,-0.597598181195327,-0.7135578166059255,-0.8773181009216963,-0.9498491411352616,-0.9313439349979121,-0.9183932805861738,-0.933296186206979,-0.9574694611159364,-0.9700221822882268,-0.9630717633916789,-0.9427972095059838,-0.9189781628185586,-0.8946967856030215,-0.868429488349697,-0.8423199838162211,-0.8489723019482868,-0.711540209529733,-0.4242637563676949,-0.3035593470062266,-0.3051090307450318,-0.4557008601104201,-0.7183650196665456,-0.3432527302211492,-0.10724283374072587,0.10374076980460017,0.35150677193852414,0.5644211536871605,0.6640669844384428,0.6938256746753906,0.7157164543056781,0.7522014293027104,0.7962968077089408,0.8366302102389107,0.9054750906131863,0.9598017449357232,0.7364875027111222,0.5738298346261207,0.5482376265153307,0.6047408296895741,0.6961314138570881,0.770722620380486,0.8278908678445379,0.8766667428415693,0.9107231089146093,0.9256746722435819,0.9223898537573562,0.9035656680369045,0.873279942078715,0.8446620795638298,0.832042577857326,0.8349296284845001,0.8464965913819912,0.8634092347320903,0.8794612688168342,0.8827584816741335,0.8666665373919445,0.8407638692594337,0.8165024806079818,0.7895315439360001,0.7455190087994222,0.6688482411884275,0.55971047712131,0.42086082778878825,0.2444731044692798,0.01744706786889999,-0.2647060397736046,-0.5349873300672205,-0.7039095046993653,-0.7831307570011177,-0.8220370261131643,-0.8409839806434658,-0.7240111595612277,-0.49529103556335974,-0.39894236241996955,-0.4275892279365126,-0.5801971576159949,-0.8403214398235451,-0.9749866338576095,-0.9667201727414482,-0.9629924582236797,-0.9757753662658142,-0.9865040783062984,-0.9892015290517504,-0.9863993043744875,-0.9821030311822475,-0.9782817718662635,-0.9759150069126077,-0.9741569183734772,-0.9710632339116673,-0.9396445362080287,-0.7354020898524121,-0.501049912650799,-0.4166071914411775,-0.46584879901086795,-0.6777868941525165,-0.952000956420764,-0.9238376795457215,-0.8452267992698944,-0.8200993380124865,-0.8194868483872148,-0.8129102524637548,-0.786876895767647,-0.7286363271961808,-0.5982840619673975,-0.3560501452612073,-0.013710082251086293,0.3466004366163465,0.686389785120024,0.748771732835415,0.5424182883375683,0.5015441257471104,0.5788754122927622,0.7622341572009662,0.9303488529284805,0.8650505932095994,0.7667258254897217,0.7574931338311393,0.8075574395798379,0.8598265941318605,0.8905974321037151,0.9051776029207595,0.9105223126131944,0.9103078093640439,0.9048199566735834,0.8955654386688569,0.9001936144572712,0.951597764778406,0.8643123806828724,0.676311233796691,0.6190618366722421,0.6815836568382839,0.8171626787438132,0.8266111613794362,0.6875040619948602,0.5974872607674167,0.5772103417531342,0.588967900258501,0.5971225168075881,0.5842073707036545,0.5491071413444955,0.500944562391625,0.45083835192321886,0.39720136825358215,0.33053045665865083,0.2658601300140241,0.1597301166561839,0.004683520223339814,-0.06422656322449243,-0.14778384696886784,-0.29703765263119447,-0.4593264112045632,-0.5152687653234553,-0.5623930395139632,-0.6383148755526697,-0.7223163597805706,-0.7831858620842976,-0.8076172374838467,-0.8043382629751368,-0.7903565640012954,-0.7823880545628517,-0.7855616521447417,-0.7948864784516879,-0.8030180160022604,-0.784695230035157,-0.6546321787677506,-0.5219159759471695,-0.503771741781219,-0.6123726113777255,-0.8356970435782816,-0.9706715095837386,-0.9209905770149501,-0.8685373505381816,-0.8544180247822595,-0.8567612966851297,-0.8593959509667851,-0.8516092072401584,-0.8230297794268036,-0.7651130919482173,-0.6806759400418785,-0.5781573640584838,-0.467634086657836,-0.3730018847076608,-0.22082662739968031,-0.03717139359312976,0.06481619287934888,0.16771395732578276,0.3468953830685805,0.4820511172569246,0.4425712942223632,0.4434816527195365,0.4991403406014854,0.5854926884205045,0.672076734767128,0.7375890969070044,0.7793567766607957,0.8058808861058404,0.8280265008607974,0.8493321090400198,0.8713565079788527,0.9077558129618131,0.9655894531357045,0.8954800763449038,0.769324878495297,0.7486838164941819,0.8191012158741497,0.8907085977352761,0.8638979340168674,0.8028999269347405,0.77762049520493,0.7873041926841816,0.8057576851674719,0.8077132363916812,0.7845765323279332,0.7439536737406999,0.7030994052809216,0.6826861960768865,0.6865394363102963,0.7047776072036751,0.7214838312106651,0.7210509677739383,0.6915476095814377,0.6274257823644804,0.49589987662942436,0.261991662080698,-0.03991357014696394,-0.32647334948544776,-0.5494855981916341,-0.7084831962339972,-0.8107954853479489,-0.8648693880112884,-0.8829510232056644,-0.8814218053354621,-0.8778092653335801,-0.8830092248219169,-0.896672349632598,-0.913538848789145,-0.929925826349593,-0.9460306753452039,-0.9604923141417581,-0.9643633567069773,-0.9475221005945098,-0.9226150304560361,-0.9118449552927541,-0.9203721022431676,-0.9286131952521866,-0.9142088219478202,-0.879404232231427,-0.8404538522403657,-0.8088165609536443,-0.786452666679371,-0.7693994502534787,-0.750767922638291,-0.7266907037784586,-0.7001542302172767,-0.6798689664664633,-0.6670123860450243,-0.6537351770852541,-0.6323993523979303,-0.6023300678580921,-0.5544028159724136,-0.4850298689172043,-0.39872727307190875,-0.2888695766126029,-0.1491972380479255,-0.003587014563531821,0.12132381631531639,0.21720889818638275,0.29114097216477763,0.3680734890170826,0.46662921333762214,0.5770822941729591,0.6749741204813184,0.7305050052829458,0.7345463886834221,0.7089524064374733,0.6890358468781825,0.6997352472529499,0.7450622809979228,0.797656816564921,0.8237331604512592,0.8270123609434755,0.8359062461295065,0.8588970551519343,0.8823537256127046,0.8913031090122016,0.8849449236954495,0.8728855778390051,0.8640446584329843,0.861774877804321,0.8631145905298897,0.8638097947251937,0.8643319545948372,0.8632334594207332,0.8617267501739563,0.8597540049106169,0.8600668345754144,0.8611452264873437,0.8604468940206661,0.850169394312245,0.8229368852901411,0.7739777311685039,0.7157613204081918,0.6563169626205932,0.5505511166865106,0.2778329633573989,-0.20091995149007463,-0.5493909927091594,-0.6928980919979236,-0.7368655633082499,-0.7457512591062249,-0.757276704200882,-0.7717888585483591,-0.7767829821945346,-0.7643189611277175,-0.738802271749079,-0.7149667426407369,-0.7101274906812712,-0.7373078975521776,-0.7929405625586763,-0.8613282266266873,-0.922541833932615,-0.9575887951035448,-0.9673858568199334,-0.961520817365338,-0.9491311611300741,-0.9354937342503787,-0.9243176651119784,-0.9165501658586451,-0.9115354129173092,-0.9086852791921439,-0.9101019560731431,-0.9075003707917592,-0.8792586835598979,-0.8259835208620447,-0.7705050536426911,-0.7277590571931998,-0.6953092348724632,-0.66520573096966,-0.6342510602417244,-0.603303905112057,-0.5809339838063393,-0.5615133564476282,-0.516588770829061,-0.39895268377428894,-0.1464850557486697,0.20090108276939153,0.46456864658194574,0.6170602182563402,0.7139422510574155,0.7796242577341067,0.8281191015795067,0.8736633074360212,0.9039189959933406,0.8443768307189436,0.7110314784160613,0.6169623117106988,0.5956474035733954,0.633164414676681,0.7107803242075822,0.7988273931466322,0.8670544341436269,0.9054489433074181,0.9245784499174355,0.9334657685168307,0.9339882306932765,0.926599329194982,0.9140672612982682,0.9021870165566245,0.8980487610765461,0.9015385909406883,0.9089377190492802,0.9155586564851208,0.92058762291263,0.9234883109739805,0.9237992515312619,0.9191670915418155,0.9102901439056212,0.8945399177601198,0.8631419049315888,0.8117801831573117,0.7457111466082724,0.6713877447217621,0.5808618176286551,0.4535633434824792,0.27887359329290273,0.06214900983973449,-0.19097842834235018,-0.34314827352391913,-0.24589902314894585,-0.2030919409144211,-0.22786763698205945,-0.3313792949642327,-0.5416044416375155,-0.7490547430362262,-0.8196906339462798,-0.8582116471381404,-0.8954433383450662,-0.9081069251473303,-0.8987701115272746,-0.8866851300747244,-0.8834011743403214,-0.8859437130208848,-0.8871067214259618,-0.884862529142047,-0.8863950475070381,-0.9018338066496362,-0.7366224249928275,-0.4685239299038082,-0.3613507463141043,-0.37488161539317283,-0.5000607915745697,-0.6538463225806475,-0.6616565732428513,-0.664429336667114,-0.71571951032419,-0.7837953968354574,-0.8318723009982134,-0.8391993334941926,-0.8086125356217869,-0.7504208866104316,-0.6754307359400431,-0.5942431212400533,-0.5023042184768512,-0.44626247921167733,-0.5808337572017561,0.04500392569293633,0.15663486038508995,0.2641269664074849,0.4638399423437125,0.628128762748096,0.5667994526133889,0.5294326038852564,0.551045014658776,0.6032762766798498,0.6577437107206217,0.7041726261114277,0.7462323472694045,0.7838781501936903,0.8124973382977202,0.830188774456462,0.8425656694626068,0.8646932930448568,0.9377961127235512,0.9557843274246314,0.7930398471866102,0.6963508093108306,0.7038999228328335,0.7558710202705354,0.7635417271736173,0.7135234208622239,0.6694722034040064,0.6597922797500078,0.6768469133658783,0.696284307152977,0.6980139293351456,0.6801404181805276,0.6447856332911401,0.5978106287666495,0.5412597361012305,0.48116207679568024,0.4231828559776207,0.3691810021530914,0.3056675079028559,0.20074263002234177,0.03406481342618627,-0.17213443758599173,-0.3591393964298799,-0.4918387579986013,-0.5734648655154466,-0.6189406154086906,-0.6392760878495564,-0.6467011765578343,-0.6542596720576871,-0.6759644580860334,-0.7096881957722705,-0.7467800221710327,-0.7859382940668566,-0.8280973595472529,-0.8738501378297155,-0.9130334147755743,-0.9388172384161821,-0.9495999040167125,-0.9474202488629636,-0.9382494496663921,-0.9271320351813339,-0.9163129398999961,-0.9056727394077215,-0.8934136784929542,-0.8767656728521378,-0.8580613313848496,-0.8372188121514854,-0.8144130852653587,-0.7918366876625235,-0.769694785594456,-0.7450985319564571,-0.7169966351028608,-0.6869649226413005,-0.6499148399168199,-0.6006044085723052,-0.5379448474339054,-0.46262291580637693,-0.3763772786776185,-0.28382901554029083,-0.19121325996270114,-0.10065186264067813,-0.017320478806959298,0.06311887566441778,0.14054961036735755,0.21399342545850222,0.28165995477124034,0.3388728448196957,0.377132621727276,0.39494011443310234,0.3952600437404131,0.387094304957744,0.38756007852093677,0.4087059553506793,0.45404250973027926,0.5146499213751516,0.578005614278309,0.6362634979869964,0.6890474187320563,0.7366224576547682,0.77621368668527,0.8056860239631914,0.8253490391788545,0.8363499844742489,0.8388659708828393,0.8336507705530329,0.8253141913135665,0.8216249035107892,0.8292280196391811,0.8500301258337469,0.869947792372151,0.821797188155535,0.6558998466117397,0.5286487046669475,0.4925209830898498,0.5257370491909696,0.6101822122392987,0.7072456026677318,0.742929768042723,0.6887513083532586,0.5230230290483013,0.2179013410740912,-0.11156072007789854,-0.38113489772501147,-0.5849796531761733,-0.7237887383232654,-0.7848755975166347,-0.7796699381371947,-0.7412355011241725,-0.6990629211943782,-0.6664399133566712,-0.6438442320775084,-0.6306100835192983,-0.6274591620729295,-0.6339086819397268,-0.6558762633613915,-0.6948705845447365,-0.7483887545554975,-0.8157903539428917,-0.8890057528519028,-0.9498965616266503,-0.9837202465731887,-0.9946721002606876,-0.9941134796071052,-0.9873089299682939,-0.97654440136293,-0.96685005637452,-0.9614662041031992,-0.9578922166139795,-0.9474709788559097,-0.9220108820474655,-0.8839055171255695,-0.8498955031066319,-0.8379914247005572,-0.8579442067962981,-0.9008989528514548,-0.9497257951263245,-0.9548760108665629,-0.7718509426872764,-0.45057252260490627,-0.18138665293506362,0.025366335388059786,0.2231338792816268,0.4109852473573523,0.5266263729108512,0.6030612678865956,0.6693651208936434,0.6958478391958359,0.6700858057938535,0.6374275145024133,0.6419489585842196,0.6953047461950883,0.7807737650858178,0.8655724998615213,0.9144927927902166,0.9209175482055777,0.9057576748007082,0.8886379954838403,0.8782366334093415,0.8756024348460985,0.8752895330469471,0.8729741371194126,0.8713821235308056,0.871755182834315,0.8745767326479402,0.8797823965150154,0.8892553900349454,0.898323197079535,0.9023591729003858,0.8987985272511759,0.8849146308729278,0.858001155945,0.8192464544056695,0.7789817750836354,0.7403599879832798,0.6964501208147204,0.6572339311591142,0.6366348393704012,0.6230389420068442,0.581011642182658,0.4655177596964789,0.29399006574876835,0.12354479464178623,-0.04388435111845224,-0.1680712453875715,-0.18022291556961176,-0.19168047649925535,-0.25050532801036185,-0.38781736798400396,-0.623183918837076,-0.8029151373506697,-0.8163167697519386,-0.7900444096671208,-0.7607697464014882,-0.7284538185607047,-0.7074273137081926,-0.7129279804921989,-0.7391809467931486,-0.7713466697842647,-0.7927903479312006,-0.7963835339088579,-0.7906539764675518,-0.8009355611373008,-0.7140354958508643,-0.5133403240532384,-0.43123279338080867,-0.47330354668485153,-0.6096060932021594,-0.7247743549485826,-0.7365438826364512,-0.728618342906994,-0.7356411010805144,-0.7449827312984223,-0.7401407399222968,-0.7044504051566013,-0.6329549331156958,-0.5427946200221255,-0.46203846258828013,-0.39031017187993533,-0.2803088135946638,-0.1410090404850394,-0.004171053036898838,0.09215216358335616,0.14877602710332052,0.21056581771183575,0.31796682772638674,0.48143096545518604,0.5452669522474475,0.5520105843143701,0.6089254313057835,0.7000981888237783,0.7843167296166969,0.8375368624870645,0.8620032021517836,0.8657078154085734,0.8515282734449354,0.8273737183774326,0.8039251033955371,0.7996206214761907,0.8715680150246913,0.940780982169013,0.8130928199113928,0.7442698222033653,0.7972537016821877,0.8771607137150198,0.8427395490653199,0.7512012296287075,0.69149959495589,0.6667560621261219,0.661655292333824,0.6629574952471589,0.6672306757897171,0.6701936497321187,0.6649592621352468,0.6522015158629897,0.7015905200226477,0.8045731961687167,0.5175214551220308,0.2907159124774669,0.19451484130624774,0.14599297959655425,0.09881264914719762,-0.0011484254393382717,-0.1425970806613542,-0.22397275109269482,-0.2752001348957495,-0.3294103163622918,-0.39890579779016205,-0.47907751801057874,-0.5572914251004902,-0.6204483842757209,-0.6624950740899458,-0.6930058142186108,-0.7509571243389573,-0.8812568924810132,-0.7950586813416767,-0.5495314458598274,-0.4211295869765485,-0.3925241156762861,-0.4561982234938672,-0.630453250385879,-0.7811427387530285,-0.7206642764260455,-0.6564572609935723,-0.64709456814567,-0.6645914207914244,-0.6780339433501773,-0.6744307399347291,-0.6515691241069431,-0.621217604255942,-0.5923513314724165,-0.5823197976719362,-0.6614750480074424,-0.8851261497296571,-0.5004050578984106,-0.2236975585817012,-0.12883351008854818,-0.10788083491632806,-0.13931293132102734,-0.21421171306876433,-0.11706250676938891,-0.0031493129757308265,0.09340012121167232,0.19389782950724788,0.28672086176201705,0.3543120164445947,0.39794116144841984,0.4411565117831141,0.48706910903961315,0.5298477117028817,0.5981997125432088,0.7869719643968338,0.8312014204184324,0.57198795497441,0.4557342698253822,0.46109052960254027,0.5790105329433606,0.802406804463418,0.8708988899844354,0.7364201774390216,0.6569203433937789,0.6511062212190694,0.6858072443194104,0.7236745934266012,0.7346033009197348,0.7085930241146887,0.6543335102694284,0.5910693797775625,0.5350081349980832,0.4921125465598322,0.4607220233220068,0.4393339222797882,0.42562140969125484,0.4177614039878971,0.41209399948717584,0.3963924974726318,0.36020658397378413,0.31007083410572667,0.2571883149739901,0.18758111021928187,0.0708340208750342,-0.11654381334297058,-0.3311975915082312,-0.49757255718831667,-0.5942363633536729,-0.6438279294205471,-0.6695932431817135,-0.6822900851494165,-0.6863331444488089,-0.6874679401200641,-0.6810969809826644,-0.6699255070440298,-0.6629792592779263,-0.6663495882565197,-0.6813086288068346,-0.7025782730714345,-0.7221985020678199,-0.7335485859378584,-0.7304755838512005,-0.7122246743936556,-0.6839518878306711,-0.6584751933108033,-0.6479671842283862,-0.656312557931158,-0.6779799164439113,-0.7027549589168437,-0.7246910552533808,-0.7377166964632118,-0.7344329880427335,-0.7113324195612767,-0.6766286611474799,-0.6324985929147504,-0.5761947622574184,-0.513471887565802,-0.45194926773549204,-0.39449799968076366,-0.3387232878722435,-0.28232005146798794,-0.22578265592418895,-0.171557008210138,-0.11809904899215673,-0.06749379057977842,-0.019494412873200476,0.024467306583186632,0.064970687662145,0.10114654828279906,0.13641677425654603,0.1740060087266,0.21854992311793556,0.2733280848673935,0.336223859167146,0.40135193637052663,0.47035629714798466,0.5378081844880784,0.599612859543913,0.6545931732544233,0.7012682526955848,0.738565133648602,0.7644885915279411,0.7796282176383358,0.7861837527368565,0.7864004903192138,0.7834495933195356,0.7825146861405644,0.7814532030507501,0.7756721816407148,0.7605107169530515,0.7431813897453203,0.734476874563697,0.7389258789077869,0.7535912249599028,0.76676484547947,0.770354876501919,0.7587978726346274,0.7307206897426536,0.6901365201931778,0.6495406675600167,0.619975103016141,0.5926172787124534,0.5304039290271778,0.38935993796944796,0.19762525465954886,0.01338861936754172,-0.14950595091683722,-0.28946941545975124,-0.3959943232437,-0.471517329078729,-0.5336171143701091,-0.5976047940195985,-0.6757826840860263,-0.7603900743744963,-0.8283035801806492,-0.863842615685381,-0.8748751411420356,-0.8735951187252836,-0.8685283297270858,-0.859757617463202,-0.8528697446278748,-0.8555645501733049,-0.868457677220776,-0.8893404239015323,-0.916154973587554,-0.9431293347222452,-0.9638584193591035,-0.9763456778364811,-0.978844648148174,-0.9712686600001436,-0.9582174502057422,-0.9489506366264768,-0.9489483525730886,-0.9548680680589279,-0.9576761758908576,-0.9475567681637631,-0.9180397043645763,-0.8660109446257418,-0.7905541643366275,-0.6925413910984993,-0.5806126996229347,-0.48582416935467826,-0.39384205804202455,-0.26607246716908656,-0.14753672236878332,-0.05306970700365073,0.04961212077425734,0.1994737722089093,0.415499669582187,0.643602533270664,0.7787302171148344,0.8107840400506604,0.7881905947713278,0.7583180657054716,0.7460507858445202,0.7613785736554102,0.8006393295303551,0.8425213193691272,0.8683411113778353,0.8802905776398926,0.8880985094880268,0.8960473324230189,0.9036453976758596,0.9085620799941775,0.912013219657069,0.9144814583758593,0.9151433737915217,0.9122147989871348,0.9046022878574196,0.8906770236929918,0.874242734820126,0.8564243319695266,0.8389137916488354,0.8275003535985351,0.821648395239275,0.8171683651764196,0.8055444321189493,0.7773819611356856,0.7221398913076417,0.6448843987965276,0.6424880003922031,0.7541241838119881,0.3949653523993637,0.2585800824500132,0.2121299033944488,0.15450240540451318,0.016377645884664872,-0.12651077050199358,-0.22057080691394867,-0.3012319086734497,-0.38711262766463794,-0.4740955552391672,-0.5448685982665731,-0.5947914365029741,-0.6257205083466454,-0.6445585915339547,-0.6685882062120275,-0.7070205447717642,-0.7613175966895266,-0.8042755644658469,-0.6972367170130481,-0.5405865289178878,-0.49381471231915663,-0.5532085600926304,-0.6899221953645513,-0.7923262578768693,-0.7924783939165585,-0.7710097681291403,-0.7619388679789912,-0.7521434641444638,-0.7261818531254741,-0.68045197090787,-0.6296053666224878,-0.5903912074569913,-0.567310602402242,-0.5526704160266577,-0.5403220355265921,-0.5743438287441198,-0.6637038197925909,-0.32436051003825644,-0.14596648119973712,-0.08888860226031499,-0.07036764431395597,-0.023480137033347365,0.04046616112485886,0.1073795043757829,0.20157698822301745,0.33630991060132087,0.5027699749684145,0.6496732203461191,0.7434721638120682,0.7897906196871913,0.8082787281021407,0.8065887280408143,0.7871976726118164,0.7824436350377123,0.8942207536018367,0.8163004515107021,0.6280473666856302,0.6302842524879085,0.7507766531185054,0.8870162933395118,0.8796501460925806,0.7981044927444808,0.7530937994708374,0.7522243077948552,0.7683121400685078,0.7793551386600802,0.7768855995735876,0.7566293010397246,0.721554674378509,0.6800618278618015,0.6511207896202674,0.6527242032982774,0.677594399868262,0.6969452607659538,0.6942072758964815,0.6731985585668404,0.6390818211189784,0.5858243539394966,0.49685558714046046,0.3561380218870407,0.18905945231149224,0.04103805495245801,-0.061407320713090005,-0.12552521218068263,-0.19193458259115326,-0.308433622017362,-0.48880755422960764,-0.6648740768392009,-0.7660818056042706,-0.8109440163939463,-0.840175801311591,-0.8577261925862361,-0.8563381140079167,-0.8415213851998244,-0.8297272523998328,-0.8329651577628746,-0.8496712741049768,-0.8721388589985871,-0.8937042094936787,-0.9127394904936504,-0.9247834167423457,-0.925185251831665,-0.9130283310888716,-0.8944189149946589,-0.8826651006509144,-0.8814489431993664,-0.8796452742106605,-0.8636232633494275,-0.8361193672120365,-0.810195213688043,-0.7933444632489448,-0.7811037776269139,-0.765218761037165,-0.7407956204524794,-0.70569858917883,-0.6598026408565698,-0.6023182657607257,-0.5398133494948901,-0.4836919257201473,-0.4275441577589422,-0.36219094954894326,-0.27320334015094155,-0.15567461628618567,-0.008855509446576303,0.14737453827636612,0.2731395386276233,0.3639634057316276,0.4352514136984022,0.4896292716016528,0.517354723660128,0.5148644977829355,0.4970588857737993,0.4849984675430771,0.4887939592526354,0.5127954340219495,0.5552348736304796,0.6099412374287487,0.6684287287629446,0.7227101453275064,0.7666344384670147,0.7965012723169713,0.8110827342486605,0.8103320707245454,0.7993744831409259,0.7881925356287132,0.7778558289435967,0.7670881866410176,0.7574617694166487,0.7579048322529326,0.7647158497069279,0.7649914882713162,0.7484630452422181,0.7155678729955808,0.6761323966600593,0.636886173873125,0.5998108405985232,0.5625770413587549,0.5212080709253554,0.44906965734603804,0.30170803132458446,0.04804183322281804,-0.2972496123270958,-0.6129345503838322,-0.727047303432916,-0.6864212332964631,-0.47856563178316835,-0.2320930515273938,-0.10726589691150008,-0.04796502904875798,-0.03146322910972865,-0.0944421951652036,-0.30933526322957194,-0.5464825888589893,-0.713041575525643,-0.8205141879662827,-0.8666212685042027,-0.8783013571663348,-0.8808969533347333,-0.8837865768847207,-0.8875691378501926,-0.8905656987955246,-0.8904026433535464,-0.8871147086889101,-0.8776385407946031,-0.6828894524846023,-0.43672742267016407,-0.3646241547404836,-0.4220387951647626,-0.5792678542349115,-0.6553917639830665,-0.5834989786123336,-0.5158838848189535,-0.46589031669260256,-0.410201293690123,-0.34413508224881906,-0.2792624835853911,-0.22737114133753766,-0.19161587342444267,-0.17147430734615549,-0.162066702871297,-0.14856307190427906,-0.11646676999778321,-0.018640177889855013,0.14261110182608205,0.23007580446541062,0.3243528964128328,0.4610417004386436,0.5682505289703339,0.5347548974040123,0.47033325097964457,0.44509279163594245,0.46163804551781545,0.5110315704338373,0.5741908795346476,0.631682969420647,0.6705344032376046,0.6884813173063964,0.6873603031757481,0.6631534859532285,0.6287560191714867,0.631906077020426,0.6514166336731165,0.5955761156594075,0.5503907985952314,0.5599330172742456,0.5563548908045808,0.4854599499574156,0.41692451524017154,0.39365292120789686,0.4144936496108617,0.4692143565072374,0.544565003183037,0.6165731582619897,0.6534994087761763,0.642539652943859,0.5990497793212479,0.5460938085639886,0.4941149855139456,0.4464902432781328,0.39439412817843983,0.31780263453796853,0.19620363022095458,0.04622750668763472,-0.08705691678871363,-0.1805960256108498,-0.24313599044248002,-0.31478282904207733,-0.4201673822863307,-0.5440790393389597,-0.6555510423285401,-0.7314335219652162,-0.7810466090067035,-0.8165788079865309,-0.8435484786714769,-0.8630168221801382,-0.8733945421124281,-0.8783410038207037,-0.8794261087192303,-0.8765178187507068,-0.8697072021929245,-0.8568403272659281,-0.8328847331849074,-0.7962483756500115,-0.7519078399509248,-0.7104395714028783,-0.6810622812100826,-0.6662312934618307,-0.665428633760371,-0.6736065832353129,-0.68074250384853,-0.6838037200854458,-0.6940671695253702,-0.7287329422375115,-0.7841615089200392,-0.7953684728936103,-0.6898977588272747,-0.5528267492972858,-0.46468136304202784,-0.4262943156983237,-0.40622458992170135,-0.3525598861028024,-0.2555647259759606,-0.1592239582279181,-0.08552703278065976,-0.033097418041935105,0.009392673237689445,0.050842063329284364,0.10765882668630046,0.1919889231425199,0.31098068210162955,0.45068843279517995,0.5703233960716915,0.6516245561419718,0.6996906576439895,0.72568982189925,0.7371354710498351,0.7421434808794876,0.7496784618343212,0.7636880708939031,0.7799676642262995,0.7940771859771346,0.8047045725867733,0.8164286405159594,0.8299247532605298,0.8432755399756549,0.8510815531161818,0.8501664452613577,0.8412383330859823,0.8246879213618515,0.7999367796920764,0.7572657888160111,0.6739996455482815,0.5799016461609274,0.513949643290435,0.47456989859826726,0.4460349682261056,0.41770429917070223,0.3839239764352934,0.33640583664829643,0.2617893953833781,0.15024570441149873,-0.007222546514648795,-0.20858935334461806,-0.4117982538085972,-0.5632100568195425,-0.6527846663952794,-0.7019806674443125,-0.7352196475174716,-0.7661248063281202,-0.7940789172494817,-0.7804763839269414,-0.620821969402589,-0.3945885945690599,-0.2618928889901718,-0.2093305258259148,-0.2066076640751608,-0.24376735995090082,-0.32578806450887454,-0.46516438776333086,-0.6581283286582204,-0.8274720453252941,-0.8904860333326126,-0.8889748968528711,-0.878421488569754,-0.876114368930429,-0.8824909824795387,-0.8889267819888313,-0.8861212348329212,-0.8761779436747469,-0.8603377116223399,-0.6763552791121715,-0.43741277732301165,-0.3394597326066082,-0.33925470140256553,-0.4098504485637597,-0.4775510061499572,-0.43906325941276036,-0.3770826802193729,-0.3356559081234129,-0.3004654686066701,-0.2477916656970845,-0.1517396597450548,0.003455430101018959,0.14689800584798599,0.2280254713581238,0.27775672132090073,0.314815988903578,0.3440551553387292,0.3706645109478624,0.3673360688580084,0.34592639544443954,0.3505932406975481,0.3844304304765825,0.43615894506018865,0.4961970167955611,0.5656940911885773,0.6471816701521321,0.7243055331891483,0.7748726709317515,0.7927307287786652,0.78499258107412,0.7612693990923907,0.7319208874695453,0.7061265298865508,0.6867079648003044,0.6755497147622832,0.71839579915649,0.85237027332563,0.8420180164836031,0.7463435281873299,0.7749907278463379,0.8046885729420328,0.67452191229185,0.5385691357942758,0.47142272231053417,0.44638844409222683,0.4281344622051072,0.38350249952759485,0.3074593484811861,0.22019537286932292,0.1406106853215112,0.06893583102126846,-0.0036146717954585105,-0.07393543467067602,-0.15534405522404102,-0.2753877407573894,-0.250906045266943,-0.19252248337813874,-0.2086744769421782,-0.2982141103446346,-0.429611358810702,-0.48516796896740866,-0.5091226815434238,-0.553955801771483,-0.6156744370134236,-0.6760870915992737,-0.7258354053941616,-0.7663108095472261,-0.8005417403790798,-0.8288248258445948,-0.8505037865913649,-0.8659717707479336,-0.8842356901933371,-0.9396992678235998,-0.937326819926772,-0.7517104661166958,-0.6503165799278986,-0.706353678149172,-0.8997657627585989,-0.9768748973149726,-0.8355294133445451,-0.7432976116508496,-0.7293830629208279,-0.7555052380341899,-0.7871276834885496,-0.7979614052731786,-0.7807913163128883,-0.7365372977797385,-0.6611578760541127,-0.5416436597396466,-0.3738963538043027,-0.18311779052661312,0.07095959845218862,0.2165818349432825,0.2627527310654934,0.35041956337783353,0.5389179171972253,0.8299987439098534,0.8480780567519203,0.7199063722561659,0.6816659160471114,0.7192488645655554,0.7876248192632944,0.8475506232298997,0.8855270747308036,0.9054389936018966,0.9098095219087653,0.9039753045386182,0.8949048215527926,0.8941095028162985,0.9334888686582666,0.8882911623266726,0.7106709278431343,0.6391284921861231,0.7018080910282044,0.8747800021270078,0.9738204881960046,0.8941986386301851,0.8347066014493829,0.8405044922660218,0.8812252068392594,0.9172757241560946,0.9346431077816788,0.9352096618599818,0.9164163730246891,0.8738076010317497,0.8179296747012585,0.7621378215563503,0.757647545637405,0.573550292013266,0.23239570900930998,0.11488459722532696,0.04334226195279088,-0.06711620914392075,-0.3593834269048844,-0.72753339540192,-0.6839547722360835,-0.6839955164975812,-0.7486548432668891,-0.8262824720358701,-0.871331331473664,-0.8851281798958637,-0.8901158906854445,-0.9004016303768632,-0.9166484656301621,-0.9350048033241989,-0.9572566312591664,-0.963367263271533,-0.7867526014108825,-0.5595590089440347,-0.4751601845236778,-0.520422520882915,-0.6791254041121857,-0.8316330453122115,-0.8618211150465088,-0.8727107664772044,-0.9056852934867514,-0.9418380167453994,-0.9556492825503363,-0.9392685954390999,-0.9075895113573651,-0.8817003201539451,-0.8713790040970166,-0.8720520880757036,-0.875217890892563,-0.8979756538446381,-0.8052235018560125,-0.4104457397157924,-0.20658383259919158,-0.13595390811344316,-0.1290660045779283,-0.20310188769600093,-0.10422747979732837,0.06826716583668657,0.20554983688784215,0.3475221158872861,0.47977063517722207,0.6172950470035352,0.7412225359817582,0.7946462327393906,0.7964439747914446,0.7885987379073416,0.7776753435922872,0.7779377413389612,0.7656033591885777,0.5787450617121723,0.4691143682422411,0.4900800719742926,0.6216660538462713,0.829734680775109,0.9168469996757288,0.8714230039123098,0.8459532694635982,0.8579412922604833,0.8804278111287577,0.8909648679841999,0.883730141765204,0.8633285734980307,0.8372595998541693,0.8136035819833751,0.7967110822545971,0.7886599690844397,0.7834099648221404,0.768070844699242,0.729781442573424,0.6688755496041596,0.5986702478923441,0.5335165515908263,0.4739825650915416,0.42211454142097377,0.38032485109017394,0.33196301979472553,0.2561251791297917,0.13051331871249142,-0.050853430674733975,-0.2670996862751482,-0.4673910448543969,-0.6197411619302889,-0.7088272334539971,-0.7373445052027623,-0.7415295099468047,-0.6904162818170205,-0.4657554985584385,-0.32649542132631365,-0.32193115387990606,-0.42857554593839214,-0.6323493143636363,-0.7918806028645201,-0.8486204041352945,-0.8918786498538918,-0.9349905639796924,-0.9573518542677493,-0.9570270068720848,-0.9470535348218027,-0.9343582498215665,-0.9162744250515399,-0.8900770406248036,-0.8591911595711398,-0.821786288795593,-0.7629425751478712,-0.614202620027535,-0.4303675709029131,-0.34880852570686927,-0.36700903378332256,-0.4957128713623947,-0.7489373029041105,-0.809901081641681,-0.6615147548921116,-0.5685963456667827,-0.5146457004225936,-0.44536938111400903,-0.2880909572464085,-0.007314708313844464,0.260801601264323,0.42288155120998894,0.5126454230087355,0.5641319678427806,0.6106303908406746,0.6220081824965981,0.49587391012147725,0.42094665125249625,0.4507722920586341,0.5922653614604462,0.8404899493691378,0.893879152816882,0.7923589889957081,0.7677190905640431,0.8052807916869764,0.858458336210771,0.8993875736568666,0.9224894298667242,0.9298951667382943,0.9263723431101099,0.9146858781600309,0.894868934853004,0.8706416099777318,0.8727557541552852,0.8082239371145717,0.5992471547003423,0.4980373075037289,0.5319403487720398,0.6835109558322506,0.7842289215729401,0.7083089221346534,0.6563916909479218,0.6523542359321013,0.6552450982758584,0.6314035503831396,0.5599403095465927,0.43796952719418225,0.29558482231039285,0.1643298230726543,0.0480291234656341,-0.0699018222342917,-0.2045002806372321,-0.3971772885013743,-0.38096676789806555,-0.3025408422557699,-0.31776548502880103,-0.4125622799436716,-0.5284754439279143,-0.5338902948662458,-0.5229946173341015,-0.5547479273940101,-0.6137803309710778,-0.6787947588430486,-0.7357913313793853,-0.7816830455380049,-0.8198696871542325,-0.850194196583487,-0.8705870125168879,-0.8814557955737611,-0.8887403586138601,-0.9279852401080053,-0.8947836094906436,-0.6764823455439923,-0.5811642248790663,-0.646937169899156,-0.8228821763911615,-0.9052294089292469,-0.8267006000316756,-0.7463233505702015,-0.7029164277261986,-0.6870107379368278,-0.6949346254758699,-0.7213654974966496,-0.7405055110745948,-0.7309462561070569,-0.696726772548573,-0.6341711497802293,-0.5240909699761241,-0.3739067704133432,-0.03440930728766158,0.20753105718453566,0.24651016076066878,0.31827014812386883,0.48533189308925234,0.7444035180311545,0.7508458968464705,0.6657239273591706,0.6604923820878942,0.7150378327432539,0.7868525235434854,0.8353133863423094,0.8484973956386438,0.8398801323190128,0.8303743367036353,0.831912096291071,0.8439851286061837,0.8615564640623223,0.8817076892331343,0.7723680108674874,0.6047997387599022,0.5549183218514416,0.6215274847798096,0.7872766549257069,0.913647656759321,0.8710391980317699,0.8223701098193996,0.8348664740865115,0.8774673200916034,0.9113897517740143,0.9239917335405081,0.9177176897484909,0.8955310774254699,0.8621136147866144,0.8219524737355548,0.7867760978211331,0.8550696528897587,0.7716693120820014,0.27329071998525106,0.1455221407845691,0.08701953959914831,0.004098566245365257,-0.26806638979018405,-0.5182690859189392,-0.5274221752794856,-0.5896932303929604,-0.6861137381214631,-0.7808751826874971,-0.8506100641833961,-0.8931361983901914,-0.9152780836049905,-0.9231960444453396,-0.9259917393300777,-0.9329666426007204,-0.9507871234186249,-0.9684037802818541,-0.8482207168943904,-0.6735343651297792,-0.6162744753225002,-0.6827411709137181,-0.8526888321925691,-0.9708111199418912,-0.9255069095110636,-0.8752345338641898,-0.8694441952026432,-0.881577714185237,-0.8877474117452182,-0.8825419327670849,-0.8668583372803244,-0.8442282610799074,-0.8211253685480565,-0.8109041534233041,-0.8256983139098223,-0.9131417706286239,-0.9171196356850028,-0.5310852999768327,-0.34726061626089405,-0.2983936406453225,-0.31555385672355846,-0.22517887121444455,0.17202111034856563,0.33113674865574133,0.458474229521437,0.5743661474697104,0.6553749127243695,0.6950255702384773,0.7026061513177652,0.690594332361492,0.6788914582007353,0.6820908799212705,0.7045175866382091,0.7559601111315173,0.8386765279682515,0.7107516713545778,0.5819811951135502,0.5976283066822408,0.7296797720689119,0.9182297269982717,0.9719226057465598,0.8950719014921807,0.8400965635927744,0.8332957397907689,0.847736140270966,0.8578887162055829,0.8564738154370035,0.8464133009966585,0.8330519525357815,0.817718831584795,0.8025493722591486,0.7915074697198135,0.7820188333398934,0.7665013454960518,0.7429191786636178,0.717808215318275,0.706869331049123,0.7089930370967372,0.7014761245941482,0.625622105426987,0.42908952492894453,0.15859923138933696,-0.1147070718500311,-0.36601672096065446,-0.5749793866004403,-0.7168466280287262,-0.7945209428142103,-0.8329926592276443,-0.8537645261803586,-0.8602156170667404,-0.859314377265348,-0.7854829122977055,-0.551986470165617,-0.4090403302111508,-0.3937301611726386,-0.49142385919588827,-0.7173039130823652,-0.8801930914678656,-0.8058702043594579,-0.7334557399032111,-0.7283552895091588,-0.7811344769326874,-0.8709956689983036,-0.9478998474540378,-0.9580182022555772,-0.913826716700346,-0.8649359500183761,-0.8376104256061833,-0.8315188502762433,-0.8293959315425278,-0.7166069021921532,-0.5185123818372257,-0.4247204621183722,-0.43778140036642477,-0.5459713068442945,-0.6420645788883136,-0.5492814456788438,-0.4357315110233375,-0.3803629295816649,-0.3882133435321819,-0.45195458507122777,-0.4825520059340711,-0.36646070851877044,-0.15359036954011074,0.07923482951564419,0.30604562848109756,0.5132456279495785,0.6829270771834293,0.7803149883929242,0.6240080720637269,0.5037763433124874,0.5057069766823958,0.623121210530407,0.8436797022878908,0.9290858548498133,0.8573833554806733,0.8372766072739446,0.8676241707084882,0.9056896849636106,0.9274471041890527,0.9299985723142785,0.9189326530219091,0.9002253653121113,0.8815854783494954,0.8669961126421893,0.8655190229756704,0.9190259585109273,0.9021965905783045,0.6843487995997626,0.5880697355100396,0.6242848436341764,0.7386927817521626,0.7676510919585345,0.6752673912869569,0.6082291799793592,0.5868576355492752,0.5814086776840964,0.564460086648338,0.524693078150278,0.462644674269554,0.3723003091650035,0.2374032333618705,0.07795871426371685,-0.07561172792451437,-0.22767050834965252,-0.3614656645852397,-0.31223413690376384,-0.2389273850158248,-0.24794536256753708,-0.3472118373074783,-0.5422310798278945,-0.6745442009961873,-0.6804927778677081,-0.6832894167675359,-0.7120839549250682,-0.7549234889481174,-0.7955203622718781,-0.8264980390736043,-0.8449527081489603,-0.8546416109627808,-0.8589693790893664,-0.8614830522694327,-0.8747734499029997,-0.9322898902104716,-0.9068209336661726,-0.6832317352025683,-0.5761598467998239,-0.627781826994526,-0.820057233485573,-0.9446366429661578,-0.8566016257043446,-0.7954664441827332,-0.803318334625714,-0.8411874906493755,-0.8720050685630145,-0.8803102293325024,-0.8598023969820779,-0.8053703555193809,-0.7053728532983676,-0.5375356251817422,-0.2931282416315847,-0.021793375500136263,0.38391645253607365,0.31611849473375947,0.24534094497729825,0.2491672996189299,0.328193299251359,0.5214712864522398,0.5838437454522564,0.5519917214217723,0.5877297365495617,0.663093194954743,0.74103398577828,0.7988116387213211,0.8304744231654196,0.8432666181651849,0.842050886598773,0.8348026681897742,0.8296261111451928,0.8387036189805445,0.8912353318438374,0.8490784440731327,0.6919538692001939,0.6432690121830628,0.7115419582794181,0.8456313313270724,0.9043057825949802,0.8506760841670059,0.8038707748825148,0.802379227875086,0.8300012781939157,0.8577622224806171,0.8595003210869366,0.8278853900520023,0.7716113841430027,0.7123315307556326,0.6666053663712554,0.6300969062887047,0.6640833732181834,0.611773530132732,0.14987636737474458,0.05449847776513297,0.007648019326353635,-0.06282328100112815,-0.226380915672522,-0.33578956851701003,-0.3731068330907887,-0.4449817843134638,-0.5405241597420511,-0.6245726567512498,-0.6747651155724107,-0.7019972608365812,-0.7277582178394185,-0.7618457627179099,-0.8000719530423286,-0.8327579782074903,-0.8687191455269201,-0.9215789772885334,-0.8262954360110571,-0.6457655444273572,-0.6010487239291973,-0.693114181760993,-0.871190102461846,-0.9673771266367466,-0.9409632430770285,-0.9161323063770563,-0.9230955252762018,-0.9414482325489281,-0.9511301077440407,-0.946357661814577,-0.9288740814223807,-0.8999004231662802,-0.8696022450359487,-0.8454412987692808,-0.8290214200964786,-0.8354483102547582,-0.743958780471784,-0.45864221562877366,-0.310309431788954,-0.27977809069258325,-0.34479846473943254,-0.5991618563391479,-0.471704920829761,-0.1261002486389394,0.07686589783537653,0.29446580367029374,0.5208760705634248,0.6871186734691239,0.7807464149456979,0.8249435841036119,0.836654770797771,0.8300542526268038,0.816995782284605,0.8172579223600238,0.8592551989174946,0.7405375954708443,0.5826874420502262,0.5736744906687596,0.6983190054488189,0.8967554732201035,0.9620662660726527,0.9116896835478873,0.8859638490119628,0.8985225625365042,0.9209748851698757,0.9316269295014273,0.9278726862851444,0.9134505842050367,0.8926497807259682,0.8684712263221013,0.8432233339860429,0.8195437242272638,0.7993567279069941,0.7770177613097244,0.7443445874752674,0.7045516746395781,0.6729899117536391,0.6476381878715383,0.6008567510449107,0.4875323462137063,0.31471140981011714,0.14849907666996165,0.0287082981985898,-0.06569431945705463,-0.17050750739844048,-0.3178006717879898,-0.4915660870155179,-0.64636223441513,-0.7582112375876686,-0.8244990245013378,-0.8381758337952436,-0.7760837147658842,-0.5810042402575314,-0.4313277018954125,-0.3881730210990302,-0.44678814505582437,-0.6468519118908093,-0.7684751084303187,-0.7240437103765214,-0.7639373498793988,-0.8498108974447468,-0.9150881764122354,-0.9321822524186487,-0.9121987328142496,-0.880537300720892,-0.8559814161357728,-0.848189517992878,-0.8559781160791384,-0.868558139341967,-0.8669747159225061,-0.7291888759781413,-0.4872655359191974,-0.3656144347267241,-0.3498179640764081,-0.4341237671324283,-0.6566456430674719,-0.8239895599870612,-0.7350109400270413,-0.6769119978900975,-0.6693633182675232,-0.6459443014174518,-0.5744806584281483,-0.44233650378766287,-0.23694546189887877,0.02372324543479007,0.2770407874190835,0.4673799579668379,0.5810940797883148,0.5999742301895569,0.47921505510872786,0.4051744420254399,0.41794519421602017,0.5294834572894858,0.7732893814929211,0.9133735335815321,0.8456683932627314,0.8334578906645519,0.8688976290845736,0.903628537446247,0.9210206319040123,0.9233241691594635,0.9125764784910919,0.8926124612080798,0.8684887617018112,0.8494797300964329,0.8428031591346988,0.8852250048762753,0.8894222590710793,0.7109448509379462,0.61348394470979,0.6444448711213817,0.7745192150423847,0.8653209676611991,0.7760888611755268,0.6791678042104969,0.6390791828118468,0.6191065800238158,0.5819483768772878,0.5128809305474105,0.418324424030873,0.30894897242390423,0.19022125901749254,0.06357228341695655,-0.07486568941514467,-0.247880523271262,-0.443904510020821,-0.3099652821921361,-0.23649648922707875,-0.23492741312934504,-0.27462967652259085,-0.3359481917934635,-0.39034028788071473,-0.4367953534752519,-0.49152676355562464,-0.5494697809314888,-0.595974791854955,-0.6256908352277641,-0.6468405538495238,-0.6637952421840719,-0.6810832409817345,-0.7052416552217606,-0.7417447106252033,-0.799836525130259,-0.9152267342479716,-0.922157560186213,-0.6553390268528921,-0.5485091889096998,-0.622493129402722,-0.8387600694117711,-0.9194334759771163,-0.793014786061894,-0.7066965210763471,-0.6823814091711582,-0.6872061603067713,-0.6902941912170816,-0.677906424430688,-0.6434624945533292,-0.5809341778602995,-0.4835388561809082,-0.3529045153601847,-0.2013081776708063,-0.03890050827468173,0.1713221185891697,0.24269977069476842,0.24896655139186322,0.30323687232390667,0.4750905081775625,0.8301217598530931,0.7464887388962271,0.6197944543576129,0.6157400204453777,0.6642003759956417,0.7157799387075675,0.7391678065365345,0.7343466724216228,0.7144980221228088,0.6966577362080704,0.6864346562364921,0.6856522010865824,0.7011366871308307,0.7574621480318957,0.7694348181121723,0.6675978322901154,0.6316444039645827,0.7104530535013261,0.8699082683013117,0.9188700922830434,0.8018090308299554,0.7107224004208886,0.6776938975360917,0.6738026056212658,0.6767970516327566,0.6794785811663276,0.6852109103171452,0.7022140940809826,0.7270044582771618,0.7449359982432471,0.7380385896637222,0.7483094710677884,0.6167674527884721,0.31456370514401577,0.20704437516864632,0.161690976764371,0.10147749864517715,-0.047988903982260654,-0.23396180074811984,-0.37642519057691975,-0.507484478273645,-0.6290534406523516,-0.7188545421075299,-0.7692413887257911,-0.7965785196888674,-0.8191021430196872,-0.8476060187797242,-0.8810281054929013,-0.9140057398392836,-0.9477920645826742,-0.9477921543558631,-0.7770612859021276,-0.5968546820045206,-0.5404688578525053,-0.5868735395870627,-0.7185242940923579,-0.8695766812900464,-0.9175674037765269,-0.891251195344969,-0.8731203846208966,-0.8730260986902912,-0.8731977085651319,-0.8658837345387341,-0.8514374604590251,-0.8281589262297497,-0.7939018413545474,-0.7511674975875006,-0.7064123561478038,-0.7071986696454275,-0.7016261371082549,-0.38055637638318757,-0.19017040446627498,-0.09543552003425004,0.009240445410905478,0.3029274998507857,0.3414830462880388,0.32358858965998316,0.3633335861855033,0.441989026163346,0.5469840471482615,0.6522585908849093,0.7358841460017506,0.7952696965400594,0.8343788047564344,0.8585485266127629,0.8653201296432356,0.8604150576563087,0.8466908151058696,0.6883732930525441,0.568062550679357,0.5826432114645309,0.7032246664471586,0.8801116733967704,0.9698531737688173,0.9440205604950335,0.9143595192162363,0.9164516076289267,0.9336287288050598,0.946610287980281,0.9482804823929141,0.9403351268001668,0.926689024411962,0.9121706312701658,0.8985313145017432,0.8866879744736403,0.8730484811268385,0.855366030113947,0.8280003013130802,0.7776949267680139,0.6933742720725112,0.571114576909475,0.4276003249316447,0.2920900821564804,0.14981653734903014,-0.03965200594160092,-0.2750196255198152,-0.4953413916565331,-0.6540650090200893,-0.7580797292309067,-0.8224076291159181,-0.8588835819851007,-0.8762749177225474,-0.8844369115564887,-0.8846601991765296,-0.8147165846203409,-0.5880020674525361,-0.43455474844574,-0.41553741830684954,-0.5194495291652583,-0.7572576644320489,-0.949084161282893,-0.949233463810253,-0.9345355891135262,-0.9464681322382557,-0.9627020990539595,-0.9721300265231998,-0.9745273725447384,-0.9726400471272466,-0.9673719384865317,-0.9603764140159426,-0.9561208130250208,-0.9582431629358302,-0.9834865665654123,-0.8710498038214509,-0.5679041421016288,-0.4244592760483647,-0.4273998726713582,-0.5739005364920307,-0.8371267409064924,-0.8354653544091717,-0.7302174268946983,-0.707370610097384,-0.7195805416085137,-0.664448622291721,-0.41606624913632756,-0.04980430078309233,0.23069019127893262,0.39660173366367674,0.5029347454372219,0.5825995916947987,0.6479065640509658,0.6657026912057671,0.5358974990109322,0.45996501724524674,0.4986029189731252,0.6539094856147769,0.8643856762716053,0.8720204455694298,0.798572244750609,0.7833199224680734,0.8078138464683857,0.8386209203152353,0.8595838029345391,0.8673244878157649,0.8645907643048544,0.8537985224421589,0.8412727436655598,0.834953225320589,0.8471524571923684,0.9240406626416088,0.9169564201982916,0.6549982453043217,0.5353030878820783,0.5672049437124379,0.7409413820301126,0.8648680432822562,0.6976243036672569,0.5624914174913791,0.5032707742142382,0.4745122032062282,0.4292197394617988,0.36559787683302614,0.3073595542832056,0.2578717798336031,0.2045418192398838,0.1423294471576788,0.07468983924651332,0.0021607564910382355,-0.07261687980521937,-0.12996427957672357,-0.1744196418066338,-0.24844265360095658,-0.3874602867188283,-0.5750819721316129,-0.6643806357334903,-0.668099538211962,-0.6781855612313298,-0.7109635083892225,-0.7598617628128261,-0.8094413845219727,-0.8438556058607675,-0.8587631692274929,-0.8565318296958648,-0.8394450590652663,-0.8102783810693054,-0.7820206994050486,-0.7842515194946807,-0.7010045203534448,-0.497967961513678,-0.4107370616918643,-0.447874980885691,-0.6112619669951861,-0.773303227848673,-0.7203272531944689,-0.6493472570199559,-0.6266900201360985,-0.6304416725509061,-0.6397544033587398,-0.6337062682461723,-0.5782713356175527,-0.4647266427734064,-0.3466265562036183,-0.25756434869470823,-0.1849898246260414,-0.10679690812619148,0.012120144528396319,0.14466413979123563,0.2218897879935715,0.30481577442812613,0.4643468647574372,0.6918487387936539,0.6432516416305107,0.5551907859711835,0.5611238397932415,0.6239809315424422,0.7007606120532234,0.7607759583249445,0.7828624727273406,0.7768196782003463,0.7671010832181658,0.7593076716555968,0.7441817239950322,0.7218845532255576,0.7148605340658266,0.677439036366262,0.5821978298805831,0.5516948548903724,0.6387078344189444,0.8477905462370621,0.961074101647997,0.847254823457285,0.7675202765327258,0.7610262683917517,0.7880481701287575,0.8130008297645862,0.8175414696835496,0.7923328384453792,0.7286990443005451,0.635137693762457,0.524862030110877,0.4163879762519601,0.3663177509783625,0.3598064872888354,0.11381522200305158,0.05623078233240986,0.014741261162744487,-0.07592288696589734,-0.4256594139523045,-0.5715503669273464,-0.5414272386879772,-0.6074329223935573,-0.7165521953209885,-0.8193087036982546,-0.8804411694925791,-0.9038242229747553,-0.9048590052065868,-0.8976718456640368,-0.8958780344655923,-0.9038479185371736,-0.9222218071100386,-0.9427294984371286,-0.8334802301107195,-0.671714491774888,-0.6296617132935434,-0.7134662349659691,-0.8811015220030509,-0.9763243749793793,-0.9362705671594119,-0.8907823103412089,-0.8882032252157575,-0.9110315755353974,-0.9323086415720712,-0.9383288739356996,-0.9262795681411091,-0.9035572012431268,-0.8811857457607905,-0.8632277665574191,-0.8433681441964503,-0.8573562947965058,-0.7180240505643253,-0.3387749632172765,-0.16871009654669053,-0.09516284678817495,-0.046728579046745065,0.09944290731232042,0.2900096444202366,0.32249920354836814,0.4412580914486351,0.5946096622035347,0.720024516995017,0.7861203622316294,0.8078820295622401,0.8067499983017468,0.8021309678532874,0.8083378206843428,0.8269344610882259,0.8661410147462196,0.9545143164521916,0.8522551352776546,0.6780091815620738,0.6611685302652806,0.77348908238935,0.9306043554487787,0.9687830161287897,0.9196688387204547,0.8936542647375518,0.9050163145723267,0.9279607293386043,0.9406910343436194,0.9395179309903844,0.9266173640705477,0.9045553084821162,0.8808768262702392,0.8674185267917844,0.8661601511869602,0.8710954294136111,0.8738696666099405,0.8643798377019026,0.8309684859027889,0.7572585053723545,0.6392766158392359,0.5003894992017931,0.3585396921929334,0.21622234708157087,0.045009218034889144,-0.18492260997330073,-0.47597781694626706,-0.7135612521605706,-0.8212698004068112,-0.8580372227285122,-0.8686311208248226,-0.8733212403717895,-0.8759904061782808,-0.8690157240276634,-0.7607764451995949,-0.51894981105219,-0.3814075401748016,-0.36767041810391843,-0.4668391051004291,-0.6920648273646427,-0.9029849421847288,-0.9455137630333806,-0.9487746349886798,-0.9629523867584924,-0.9748933188422654,-0.9769824859445954,-0.9718784564087192,-0.9616799982817033,-0.9505580117686238,-0.9417444977323233,-0.9343121349344506,-0.9259725609552267,-0.909729200665239,-0.7711167501918719,-0.5359714950344864,-0.424405384080206,-0.4293540931307118,-0.5462104464622598,-0.7691832807066376,-0.8103356978535218,-0.6565703829071758,-0.5563548661902483,-0.5103685292419322,-0.4662499065124998,-0.3679614299223696,-0.1843480614425565,0.07476693708931287,0.33171341711827856,0.5094997901574533,0.6160970402138877,0.7132881365315569,0.8381328425613616,0.611034198246744,0.4535779019060346,0.45979993537370284,0.6034570650236725,0.8700298287055469,0.9166364400551441,0.8130839175233905,0.7947402517081185,0.8333473057868326,0.8793014686909346,0.907399885743855,0.9149041778503783,0.9058908333820618,0.8845161234988227,0.8518832921298661,0.8092665397716816,0.7680471165628645,0.7666109314301778,0.7488957342391729,0.6196360016243004,0.539407297441888,0.548796924231413,0.610754348921886,0.6462267745911351,0.6146709125431068,0.5876535608239082,0.5974379241617649,0.6307921034829919,0.6641943581656887,0.671106627076859,0.6191410791524816,0.46186629686520136,0.18662246890027262,-0.1082775513443571,-0.32231067075825615,-0.46067604536065837,-0.5537502077108282,-0.6107758577394327,-0.6554580946781915,-0.7098012983599234,-0.7784504666440946,-0.8466130968886324,-0.8955649023187505,-0.9246252478542483,-0.9431571120507517,-0.9531639566117323,-0.9517385595137676,-0.9377945408549982,-0.9182704869381579,-0.8969562508241283,-0.8724361071988046,-0.8474123374677178,-0.8303889599047385,-0.8291825801402701,-0.8419884252480334,-0.8561663745851548,-0.8634779467833605,-0.8693239348789623,-0.8794144339146435,-0.8883722819692882,-0.880040156647036,-0.8431383338237851,-0.7866688512348072,-0.7243647016404011,-0.6621521707788947,-0.6040044243190474,-0.5516978619101217,-0.49427972477387605,-0.40845192910704253,-0.2870661301925319,-0.1737820157687157,-0.10275582874030194,-0.07265068998368533,-0.04983968382460364,-0.01567933477576332,0.024601264686294123,0.0695187272659184,0.12075203615784505,0.17908967149818397,0.24751783918309045,0.33138398103045935,0.4329711546623085,0.5438786980399704,0.6373348503186778,0.687898447285554,0.7161061734047022,0.7437511456907449,0.7733682441335844,0.793540020416992,0.8028463630554151,0.8064880762120867,0.8091842248554968,0.8110950831592096,0.8146860204343402,0.8195284817466572,0.8230315470495757,0.8238264051872353,0.8210795784286962,0.8130906424531469,0.7986443491537437,0.7772099209820552,0.7539470830042867,0.737848087841595,0.7376711800517117,0.7555138948989498,0.7818667929574427,0.8058909138381254,0.8139772045715572,0.7915119241092309,0.6583902239695779,0.3530172294932703,0.16316437362488043,0.08208538845499365,0.025590388047102255,-0.056729005614671466,-0.22310799586881783,-0.4605576305891295,-0.6044512983800454,-0.6819660731563545,-0.7222858693348146,-0.7312383878558049,-0.7354860847572844,-0.7577347527622719,-0.7990958667849669,-0.8462587460977065,-0.8820973148927649,-0.9011034117868675,-0.9087453601115063,-0.8698824079558336,-0.6683238349464732,-0.48863351932402516,-0.4387963787519787,-0.493942478146643,-0.6291110840098726,-0.7417123234233355,-0.7559832403184689,-0.7517417142312038,-0.7679427062486807,-0.7872926634095427,-0.7924769978761781,-0.7826653223275946,-0.7643337198266207,-0.745671768241643,-0.7287048526309068,-0.7103493075187632,-0.6953025833879093,-0.7188267307802853,-0.6640838034698677,-0.3311862450795752,-0.17511562725345606,-0.11330583588484834,-0.06805760840521376,0.0350217214957652,0.14484368612313966,0.22593198416668156,0.3161486657241048,0.4182656503676197,0.5102439162899892,0.5721209980799555,0.6019571700458337,0.6157649696037806,0.6282488487988562,0.6452292563565256,0.6675449012056455,0.7130375347144658,0.8552464922615244,0.8892933051614477,0.7143254703044469,0.6848455525880929,0.7711299500279875,0.850749727740295,0.8195555810221656,0.7527966770123113,0.7160738484115605,0.71213624468438,0.7265396108355758,0.74074741190392,0.741951359311005,0.7310184148558354,0.7154933599341499,0.7011167125958462,0.6825620838010653,0.655476973008746,0.624893957737773,0.5968711670410749,0.5718027590025504,0.5405820750843694,0.49286611192829927,0.42764500260516874,0.3464922829933375,0.25464171603546343,0.1684761168030392,0.09975697297523137,0.04689097380171364,-0.026062996369194073,-0.1508630137031092,-0.3367807026324363,-0.5343736512446514,-0.6814716688765795,-0.7649621827798373,-0.8097485295087522,-0.8583309579785737,-0.9103309831773255,-0.6657318640782182,-0.45930878447761186,-0.43125488541919366,-0.5583391445673078,-0.8434045027692514,-0.9721154220790144,-0.9100097036688248,-0.8837528368627323,-0.8986936769700538,-0.9261652687068666,-0.9495436284253023,-0.963179817538704,-0.9672165671034202,-0.9622409480931812,-0.9490327036404111,-0.9299449019737561,-0.906627186035826,-0.8770805602232266,-0.7419736621028785,-0.5191451409185289,-0.40578077617426134,-0.396194046713844,-0.49132633100054496,-0.7153343431702006,-0.7583523978414823,-0.5973513480795316,-0.5076212355467259,-0.46463604485611165,-0.43369197031071927,-0.3993796634780284,-0.35532236110724713,-0.2871869483312675,-0.1627395520422576,0.02058074115875829,0.21809701739130652,0.41692525524178387,0.6241433977750768,0.4891520806137748,0.41657649026205507,0.4707671781172543,0.6234475205913781,0.7535809460557296,0.7331759230135609,0.6989431710884271,0.7144343563728204,0.7673557013893889,0.8289777030712355,0.8742438987478148,0.8954209556827382,0.8985880179755302,0.8944808531603304,0.8882121826954075,0.8806876866655645,0.877317453861397,0.9164956675912412,0.8428782930398216,0.593877678657856,0.501942217921406,0.5373878642800658,0.6629524785397611,0.7972507427409722,0.8106988380516671,0.7657649999142803,0.7384009104451662,0.7211334234209554,0.6817896913728191,0.5949463057555451,0.4409308999242101,0.2370611709761088,0.07009443588131456,-0.03488762919611389,-0.11234447228613814,-0.19055068426024416,-0.2775118646975811,-0.21510239982830226,-0.13569279846352672,-0.12218556572518095,-0.16669974117994754,-0.2609736120276197,-0.3368390278357963,-0.39304436206148424,-0.456218854523365,-0.5346653121598336,-0.6287537582780138,-0.7274527217364449,-0.8095727677692226,-0.8631679239670522,-0.894179150878381,-0.9133005494059443,-0.9261020465654878,-0.9334538835026542,-0.9249412883369044,-0.7913531542621178,-0.5793901056993028,-0.4795512890744732,-0.5093019139915218,-0.6970747732617718,-0.954420583899263,-0.9247075114341365,-0.849741861431866,-0.8440408184325714,-0.866951232880769,-0.8805552650225975,-0.8672907984458589,-0.8240967169313899,-0.7535601218810066,-0.663296550859349,-0.5454699620942902,-0.3820205906830819,-0.19518181076176014,0.062427103944460396,0.1389430523650247,0.1665183077929697,0.2116967454786305,0.31866895709066945,0.5802632063493313,0.5888633830294111,0.48038573598390005,0.4998682900815507,0.5846537198812936,0.6764939288479821,0.7335527728420688,0.750594056278802,0.747261100685568,0.747895438154806,0.7580627019790196,0.7712441594798004,0.7886205050433401,0.8567365072954499,0.870644824400291,0.7046087796542297,0.6345345294703186,0.7154048646127956,0.900165892708668,0.9465706767103867,0.8536763414856708,0.8121048169316676,0.8231606519882441,0.8500935548160131,0.8685444722732597,0.8686650233896779,0.8467227216016278,0.8017000684387309,0.7426141350991352,0.6830046505335979,0.6309275984383194,0.6484402698121476,0.6483198560909993,0.2933880775042744,0.1724887869089192,0.11328568723711346,0.03956955220832848,-0.11160788187619511,-0.23896604497010446,-0.3218395576728958,-0.42318260752698067,-0.5552518266397717,-0.6867387577320437,-0.7769361613390366,-0.816851765912007,-0.8212391521958443,-0.8132133463411573,-0.8130567100916498,-0.8203577024813072,-0.8349476577459286,-0.8510944775299905,-0.7125361545521134,-0.5377779903377407,-0.5001278160479466,-0.5850681224928649,-0.7671793404104797,-0.893387209670168,-0.8703807570571309,-0.839880384694431,-0.8539820363766772,-0.8924214756212344,-0.9220052890173278,-0.9267184065190621,-0.9089033207740603,-0.8708693982531471,-0.8177059300386422,-0.7577190950391958,-0.6987706015131501,-0.6883341584069794,-0.6636981513739723,-0.3086780918074056,-0.12460414988306014,-0.04703844104684684,0.004458164609347437,0.10163577127938331,0.14769039260186695,0.14808237151285583,0.22202762198362944,0.3693709281708626,0.561894166090761,0.7105307475937994,0.7898450396515392,0.8274851859608939,0.8405456040894572,0.8318504010768484,0.822548415918777,0.8363702404526115,0.8714043086450607,0.7671288162264868,0.6423355215803244,0.6475250766886527,0.7673537064974678,0.9216445774715515,0.9297359573041695,0.8538812881891074,0.8151754497288723,0.8226126584781325,0.8527162795909392,0.8816252990988377,0.8934176280368409,0.8893283013832127,0.8736688225327351,0.850025547693606,0.819311704346142,0.7836794251344311,0.7541755240418073,0.7357551598467635,0.7233816578854086,0.7071360463793469,0.6785377855491497,0.6270343037103124,0.548959076161166,0.4261863832107295,0.24561275666500113,0.021368444688125463,-0.1993661648219773,-0.3788591837263587,-0.5251455191756852,-0.6507861461343659,-0.7494528054282572,-0.8180526525315861,-0.8655415761247017,-0.8961232404519675,-0.9100960997850815,-0.8438433513167163,-0.5980134358685134,-0.4484248728734236,-0.4447301658368276,-0.5692722113198541,-0.8031975932497791,-0.9340901507023484,-0.908866214927342,-0.8908444445836019,-0.9011199446066408,-0.9119278064510253,-0.9106219087974845,-0.9013552980480877,-0.8909081228922807,-0.8857110192743958,-0.8874863245684386,-0.8946768438451047,-0.9044251749160477,-0.9106162436841538,-0.792535331429127,-0.55433319334377,-0.43203233165132865,-0.42630249389584307,-0.524988321819317,-0.7334535415028727,-0.8723772958499709,-0.7781702288961747,-0.6274646418355243,-0.41700982871296255,-0.15381926643773683,0.0452237060381866,0.16962479245141607,0.2773601519036357,0.3925824050449317,0.4964498171484264,0.5745225130116408,0.6446715907403552,0.6802819044158603,0.544259406738079,0.4513232999180963,0.47013779356370644,0.6059021666608544,0.8453823046597555,0.9167206139935019,0.856566996390816,0.8521853035924425,0.8802729673726561,0.9015885369791083,0.9132268807434696,0.9216362404617431,0.926788359070026,0.9270931395278381,0.9258802606089427,0.926512479563772,0.9323024777559854,0.9729649206431573,0.9053124962970739,0.653231830359595,0.5455104457457969,0.5761942525807138,0.7149999052000592,0.8214000370711837,0.7213825425731979,0.6198261752678116,0.567103688079781,0.4968406111280104,0.37545705217718534,0.2576508346645833,0.17760259021744593,0.12171404247424836,0.06608155281759572,-0.01663998554160526,-0.1381517597756445,-0.2811711547343354,-0.390887577173052,-0.3385947391425789,-0.29025342077196364,-0.32480303569096103,-0.4614553519737336,-0.6641741197729558,-0.7238067132768542,-0.6966754616978397,-0.6898394964970319,-0.7129575596059002,-0.7529804658295964,-0.7965786233212375,-0.8300334777417917,-0.8525336938721809,-0.8690773086665058,-0.8810905009443554,-0.8869711088044149,-0.8912051983622257,-0.9212829937134146,-0.9110420744861338,-0.7586506098246893,-0.6583357263244835,-0.6928051232514933,-0.8466895965657041,-0.8450690265159747,-0.6525769535700127,-0.5611520293345946,-0.5652352928694606,-0.6271786882888886,-0.7073097749721384,-0.7607451990338497,-0.7533553588322006,-0.6669314657380855,-0.5375806915128767,-0.41219166470097635,-0.29588932269884743,-0.1630500254975185,0.09513498638403413,0.2381355668996009,0.26799350108226133,0.3452795185393576,0.5311797302282651,0.83827117273429,0.7894248220536071,0.6596863337884743,0.6347422868664155,0.6565806831073692,0.6784489234875436,0.6838844780086716,0.6766428037721123,0.6717655468979007,0.6791815053929986,0.6974778726112945,0.7170936199103296,0.739759328107622,0.8062765214709633,0.8872061207492294,0.7989044458985827,0.7132887645666709,0.7561306384625502,0.8913061416200077,0.9200436787949133,0.8190400737710465,0.7592543082565198,0.7485937664370168,0.7423162210215486,0.7164645068418669,0.6829969298568833,0.6586939343298557,0.6511803459424959,0.6666721431336323,0.7005611247192225,0.7324903686003317,0.7275291385188528,0.6480394453044265,0.4792471466384952,0.23612889865944525,-0.033089911081591865,-0.25067415329017434,-0.3833524894564209,-0.4602797379739462,-0.5116072645575793,-0.5486368323559838,-0.5906191584903536,-0.6569936807892511,-0.750280287649637,-0.8333885756678986,-0.8626828440281185,-0.8519067690292684,-0.8429957669008191,-0.8453669045920977,-0.8519254911312792,-0.8543361028474454,-0.8538880060299285,-0.8522624227886576,-0.8521614205457698,-0.8532890668361939,-0.8526740097690394,-0.8478128735996685,-0.8360021787276881,-0.8193756192215927,-0.8023041485797878,-0.7906838047259596,-0.7823527615669621,-0.7690463496483878,-0.7472417571545241,-0.719634806663827,-0.6955961799343053,-0.6863246832657608,-0.6933127517315999,-0.6877810361569766,-0.6390492350230322,-0.5582189184264892,-0.4654844301363684,-0.37287200058331876,-0.28519750431964364,-0.20118367537601406,-0.11600191812621717,-0.019734889359077374,0.09072888986699265,0.20644465518206656,0.30727784053962814,0.39040862303631235,0.4611843941931597,0.520913757854726,0.5627164821661454,0.5852374963695307,0.5913239951529246,0.5873645746538939,0.5853231126153311,0.6008160846532468,0.6346482403408323,0.6840900505406797,0.7400812824470898,0.7886024583748003,0.8220877365300855,0.8443317507731889,0.858110798690598,0.866379207914549,0.8697260625697951,0.8694813429380154,0.869132460733844,0.86948276831454,0.8722903926101236,0.8758439546426886,0.880645734533281,0.8835846591301568,0.8827579715113572,0.8802370245587079,0.8729287604842793,0.8623668175390118,0.8571440873382329,0.85511923635142,0.8509226531381191,0.8416735413037961,0.8224787613276527,0.776976084927393,0.6509592721273222,0.3500517510973721,-0.09302321293734159,-0.40612308058254437,-0.5449591805190844,-0.6021176021512087,-0.638623420111836,-0.6744619632701501,-0.6989628455205804,-0.6348997369119446,-0.46924689155431104,-0.3701244622987813,-0.3685954334852969,-0.45044584573565366,-0.6063257988383387,-0.7579524518706542,-0.8325465179287982,-0.8706397402341245,-0.8998953810305551,-0.9192747017752868,-0.9285633237755119,-0.9309225090942628,-0.9242532294865757,-0.9028608424241297,-0.8639101563927535,-0.8141516508145706,-0.7724482382035314,-0.7581267784550852,-0.6454248523382137,-0.4005702074984196,-0.28522006645115655,-0.2765053368316694,-0.3447479920711949,-0.4166188079429872,-0.3699259412537636,-0.30620199047954827,-0.26666525447147155,-0.2333894477421599,-0.18397867754467598,-0.10314263135881176,0.012980524340492247,0.14879306039203619,0.28466994412373225,0.40692183694187606,0.5058736371967291,0.6117043656912248,0.823310067020225,0.7756506878626457,0.5947949705598184,0.5710845554592185,0.6389779026070559,0.6875412697804383,0.6376281161310287,0.5892413440723834,0.5907477644479975,0.6308304310614836,0.6799432329093321,0.7129721592461413,0.7207082954327834,0.7098099551748969,0.6915928658025815,0.6754119092998778,0.6658115358941172,0.668576829398891,0.7292786050119496,0.8455931334954475,0.7624142750324975,0.6755848580204972,0.7052083812551685,0.7521118437854766,0.6951062759722173,0.6142298793977529,0.5776229071910651,0.5737818869856409,0.5747492822023035,0.5576310017383459,0.5083952387501546,0.4270264201311658,0.3335862413441756,0.24070935697670112,0.14212507326787158,0.03210264505617451,-0.08319464805764222,-0.20266633190921135,-0.321524718629252,-0.42973636738153087,-0.5188459501613648,-0.589197464841452,-0.6382452882478382,-0.6709595022063918,-0.6910424926496176,-0.7028818344109985,-0.713088704101535,-0.7312055984773399,-0.7594230452979456,-0.7887316574950755,-0.8102359374610293,-0.835495781169073,-0.8706614875507974,-0.9067608381575117,-0.92449208113474,-0.91706561495325,-0.89584106461502,-0.872715064414358,-0.8545281405434366,-0.8401081137715536,-0.8257981265409046,-0.8083879212734598,-0.7867878863634354,-0.7626727521908637,-0.7342173426354289,-0.6975266357881409,-0.6494412556915223,-0.5830972623653057,-0.4898766359968055,-0.3726452994358736,-0.25518701072676336,-0.1646552384111653,-0.10617404118418913,-0.06538949179506098,-0.030922646351995462,0.00197885238919956,0.03849702075768004,0.08055659525440888,0.12299808921074536,0.16248576007963736,0.20069550813343687,0.2420365518608503,0.2872378099627199,0.330402832480373,0.37018722731344395,0.41217595976173943,0.46240585226585657,0.5216088019643959,0.5874770999521722,0.6570656965140356,0.7212117184464136,0.7699583338359323,0.8003800215323175,0.8133153597200692,0.8112193046682842,0.7959305336754969,0.7722941993954087,0.7455548681972413,0.718282844665887,0.6931898073592757,0.6779123362038612,0.6779409157343989,0.6879952970289722,0.6984621004698205,0.7028608735588775,0.7044480832357842,0.7066038316773291,0.702119425644921,0.677123104173565,0.6080874282307323,0.45000804560345714,0.24089100972288918,0.1276170407805441,0.0832567308596329,0.051917859997604655,0.0010275279362547617,-0.12839043500003547,-0.3534244742559292,-0.4225825736578804,-0.4133947119763288,-0.4200319178304021,-0.465370445910425,-0.5645125407409837,-0.7174560584478059,-0.8604372731863457,-0.9181660125620846,-0.9184759484120143,-0.9172003729464046,-0.9231391968007792,-0.8695478904575585,-0.6425608424372271,-0.4735486943830833,-0.43650025617926724,-0.4983258250698535,-0.635829168267045,-0.7478471760501204,-0.7401636043874985,-0.6623382313695723,-0.5273364433947886,-0.3785051411199443,-0.2809574307889237,-0.23898646124403358,-0.23956473618690874,-0.28407540373830004,-0.39229442158805483,-0.577318965119943,-0.7497201653632669,-0.8202737430238066,-0.7782774815849239,-0.43497072500912,-0.24199428108498905,-0.17075597389805333,-0.1539608673429916,-0.11317382644825225,0.001338201364042781,0.09018551964561414,0.19771298074811328,0.3380792770721804,0.4785834683896931,0.5756096912861025,0.6212630827181972,0.6280255096039453,0.6120202524853416,0.5951519250090191,0.5940614645519805,0.6316266382245936,0.7859786153537585,0.8805933800543992,0.7271497559157891,0.7058445657141111,0.812477821625379,0.8958293311402372,0.820783844044311,0.7337382173475285,0.7046263771330266,0.716917233416628,0.7420390109728497,0.7560738939243725,0.7504516396252549,0.7308701559735359,0.7104320802071107,0.6944622160172605,0.6848965528735432,0.6808080072975806,0.6815234155055127,0.6770665841930046,0.6566047914290338,0.6179046462693899,0.5695889044060976,0.514293914145261,0.45180831647199443,0.37914715986276065,0.28740685209444566,0.17295255284293148,0.03899286495235306,-0.11015477203911535,-0.26520896460650484,-0.41722508918601503,-0.5557010379122282,-0.6783533193697524,-0.7752678491473252,-0.8381400178447169,-0.8858453160265441,-0.9226470575095496,-0.7231734614177028,-0.5284005631592504,-0.5084280766131736,-0.64498871969856,-0.8741400406482215,-0.9345267583517579,-0.8989464532609954,-0.8961179043320427,-0.915058828099915,-0.928287130969643,-0.9298989912322769,-0.9290054999109747,-0.9264842526010075,-0.9196921587053453,-0.9087979311823063,-0.8968250717523512,-0.8850444651670286,-0.8743232530562426,-0.7449599461005372,-0.49918744296649886,-0.37869950783999884,-0.37537247531478796,-0.4831299355218182,-0.6702568589269454,-0.5616122565928117,-0.3887753762217714,-0.29693729972357713,-0.2467624953962978,-0.2213144309330259,-0.19518245113132643,-0.07455892197322125,0.10424773863881057,0.2618650594818943,0.38555302390805696,0.4636986230259037,0.5043666380268614,0.5093647326193429,0.4286155027841439,0.3862723629804589,0.4166770700757621,0.5189145456631541,0.695999570574977,0.8482509854903822,0.8694268893468896,0.871373622460158,0.8916760708931991,0.9052209849581561,0.9039136513141768,0.8963297763609983,0.8915403361041375,0.8942569514581072,0.9012801905110148,0.9044993094724547,0.9062047851932494,0.9504454673255013,0.931892635141681,0.7024448256811813,0.5784722180184085,0.595786322658214,0.7406207647495963,0.8771409259596441,0.7418263245696219,0.6061017243982074,0.5533869905859015,0.5355103410309752,0.49884298780306763,0.429901380218446,0.3531879610091324,0.27009592085247436,0.15968620278097742,-0.0015751640380147131,-0.2146661737867728,-0.4502218187210686,-0.5851217358008483,-0.35047003440848745,-0.2492789933673887,-0.26277182891355294,-0.39352688459255636,-0.6930313880162768,-0.7704799906270755,-0.689587673016807,-0.6819775120898064,-0.7157019510946278,-0.7584717048018338,-0.7995658893817807,-0.8390967339877351,-0.8762759330444899,-0.9065118254728217,-0.9248940888508304,-0.9307286089268998,-0.9313374860658845,-0.9617408123646263,-0.9411723910120107,-0.7386401920805246,-0.6140587191763959,-0.6321407240461457,-0.7492489982835238,-0.7671081933848315,-0.6249566196944697,-0.5090361251816194,-0.43479575814865384,-0.39696926132266236,-0.3972810355116985,-0.43954438627506837,-0.5328158932768428,-0.6841606241930189,-0.8290859755197101,-0.7803701965200203,-0.5617980442240231,-0.315508837471756,-0.011908810765802882,0.1553498399948218,0.2257555751201903,0.31531864609750615,0.4950416413297043,0.8009352459905826,0.8093333589847482,0.6858560320502363,0.6737006669644897,0.7304504746593137,0.797650721738162,0.8407278086289242,0.8588383691526784,0.8641483667472196,0.8636580862389673,0.8586102991538719,0.8506497499447864,0.8470191010805884,0.8754906260917413,0.8647387483407497,0.7512025797114751,0.7119991226734258,0.7905201043510192,0.9270947809986213,0.959457009356971,0.878360176184764,0.81421618334625,0.8004626598357442,0.8196520463342796,0.8442141825370723,0.8565673404923798,0.8510890068253234,0.83165923606235,0.8037692896860649,0.7578662526269773,0.6792417608501748,0.6333805553737977,0.5786417164295328,0.3132092015629355,0.1969016472990085,0.1484117390808061,0.09253710503980726,-0.07701681132050309,-0.2675420849242647,-0.3492034671590485,-0.4292140430437608,-0.5222266854312984,-0.6035719111537624,-0.6567968975557319,-0.6915123589175379,-0.7302797029700876,-0.7779249909099174,-0.821896488128859,-0.8552566366360194,-0.8940066734424221,-0.9590311072801461,-0.8543125112427878,-0.6504940690781117,-0.5873224916836275,-0.654420522681796,-0.7998684250291688,-0.8676093544339747,-0.828654277678257,-0.7915503311968481,-0.7827096393261808,-0.7921801385516821,-0.8025456547257989,-0.7998979275754438,-0.7878277771797968,-0.7827251666198425,-0.7877075901886932,-0.7950448249931028,-0.7996683818496795,-0.826610257264453,-0.7561393854346373,-0.45266117389480925,-0.2942668811122502,-0.2569630873560124,-0.30450111629808974,-0.3295434414543111,-0.16617741825356597,-0.058925579905826725,0.020862041978484507,0.10956624755229054,0.226342624393108,0.34142553248084,0.40402785733623425,0.42323830843408317,0.4415156056085461,0.4787070345110788,0.543394012294293,0.6451607852910503,0.8033589865978246,0.799628215744067,0.6809859005678536,0.6863079327987864,0.8015622620447937,0.9163245757140204,0.8761467604480786,0.780264303818578,0.7266083102067391,0.7142241727692991,0.7185297387999051,0.7225289534409238,0.7203790857172077,0.7029678229045875,0.6579831586395638,0.5964363234840806,0.5540862429634451,0.5554560389629717,0.6007593736830185,0.6622324292670178,0.6793012685630103,0.6047883901297988,0.4774248415823841,0.34222404731278727,0.22422463578582671,0.13944005121319664,0.08532713397412801,0.057075472878002485,0.04682644179706068,0.04337956965178275,0.027428744038349977,-0.023951644602035194,-0.15562446858208218,-0.41437094622563514,-0.5879402860324437,-0.587264266151082,-0.5855686425708454,-0.5783693692191366,-0.4910560691140858,-0.41398587299259154,-0.4248517484821549,-0.5357352183102492,-0.7507396434630529,-0.9442918234919194,-0.9714396097195385,-0.9451212592361066,-0.9279395100961614,-0.9143760236533928,-0.9005432217390154,-0.8863316424952504,-0.8723378399924496,-0.8579074281667366,-0.8431923927905793,-0.8285892935749551,-0.8139903392413707,-0.8079934835359694,-0.7275022045558371,-0.5473016054325333,-0.4652479784850534,-0.49911683121758643,-0.6563266026077134,-0.8781768917052883,-0.8024918249427306,-0.6037650761217145,-0.4692535284160419,-0.36908275905312943,-0.2531674818333026,-0.10119659042130312,0.059971267626513114,0.2066561472419673,0.331100934784594,0.42294029741952616,0.4906473278261568,0.5576425857193094,0.6344512339477967,0.5310881044444955,0.43562094223700376,0.44753449254068983,0.5610571417050738,0.7805265910481332,0.9057102084509906,0.8700686179437701,0.8622490810964019,0.894330742620869,0.930749017881339,0.9549983765424009,0.9658930282526091,0.9659200554633707,0.9544396171699542,0.9316961334868961,0.9058881443344018,0.8959818989100762,0.9427801105303135,0.8585756601759923,0.593223507296177,0.4993816075096188,0.5452737260908807,0.7095496159590232,0.8681086988419757,0.8129661631294066,0.7297740391593504,0.7038321291416993,0.7006809339994999,0.6759808885260172,0.602063599564903,0.4842433159469894,0.35036005923646724,0.20584923332896896,0.053345854949214004,-0.10820447056878651,-0.3173060103799341,-0.5739581037867174,-0.3176749744443121,-0.2358045368974336,-0.24359049952904702,-0.31542464187142555,-0.42498960241258255,-0.4739888279108732,-0.48256877498724937,-0.5122046658957554,-0.566948912616583,-0.623492445700197,-0.6629614733237853,-0.6836938215447949,-0.6954075789823367,-0.7065931903216214,-0.7276598825962698,-0.7577386737285692,-0.7941021866368347,-0.8505068709937226,-0.8349631314794336,-0.6309959166873663,-0.508777683823756,-0.5194425744205695,-0.59219413181318,-0.5156195907665376,-0.4053955067964802,-0.3797133224213927,-0.41919124833238264,-0.4958004455038875,-0.5760665815793782,-0.624328868580024,-0.6295216734092198,-0.6019353170467779,-0.5545637677734205,-0.4979174454691132,-0.4229428357711611,-0.3514681883848403,-0.216939758265393,0.09855113507476801,0.20814646635180187,0.33544128543734986,0.5659331413568864,0.8281898424587555,0.7833297396188309,0.6874432765579233,0.6550083924136788,0.6471466247424692,0.646266147488621,0.696459018587375,0.8314983124370694,0.8962292302986693,0.7932588243372302,0.719860560354597,0.7145223281046186,0.7554235802547794,0.842146764360096,0.8935971848992325,0.7931722690371276,0.7152718102263376,0.7424137870759298,0.8676222148103534,0.9636077291962983,0.8765020546971269,0.7834628681908306,0.7787782875005774,0.8269488867460806,0.8536553203146852,0.7992021105060834,0.6896587166008031,0.5913191421153833,0.5324526936151734,0.5178822389697672,0.5329596393406791,0.5468528699898995,0.4716592806748568,0.2051530879790827,0.10645960417994894,0.04570766773205482,-0.07832547283487788,-0.5492120935336792,-0.642330597798437,-0.5755064018167291,-0.5971295276744606,-0.6564902372953354,-0.7162921601170031,-0.754854049294057,-0.7731952059114279,-0.7821688264119457,-0.7933427599027143,-0.8159083561465215,-0.8516666527295685,-0.8946833164393839,-0.9316473126254244
