0.8747407658462776,0.8687185262180155,0.8651984676477092,0.8660998210932691,0.8758667899362083,0.8968829927934958,0.9260091379145325,0.9539780731518085,0.9732058618337175,0.9817135820223446,0.9828206274846459,0.9802902259393079,0.9758070266997002,0.9705764210187471,0.9653072715735949,0.9665606866547607,0.974128072591935,0.9766651990705092,0.9637415051517727,0.921175876652455,0.8251385609060888,0.6609593032274239,0.4332213528560114,0.15729647533158536,-0.12330442755076464,-0.3444900088372478,-0.49440943841213963,-0.5995969097364384,-0.6748251659592764,-0.7227780232775947,-0.7589701071253087,-0.7933478607365392,-0.8279517199556794,-0.8600311801170175,-0.8889214622637117,-0.9097754017937604,-0.920002727257304,-0.9210558797482729,-0.9153610900026705,-0.9100494404275059,-0.90890104414867,-0.9138132975318146,-0.9233088466819445,-0.9356516961359936,-0.9492928731289373,-0.9615761496860636,-0.9702961252717669,-0.9721022718558582,-0.9666323300833619,-0.9520154735263577,-0.9304031962799302,-0.9152094091372059,-0.9091181077854128,-0.9032101254389101,-0.8908712861579314,-0.8710757334899466,-0.8443366836122971,-0.8121078195242812,-0.7700865190917723,-0.7204303008419948,-0.6473747035392275,-0.5183637945083828,-0.31935552015158064,-0.10594253634251438,0.0647012979056971,0.19284026621982278,0.29848916021446925,0.4007979411986325,0.5076187658100021,0.604832713863646,0.6817664310635055,0.74816908692915,0.809314969335235,0.8592776302728347,0.8952835859399488,0.9200098897067361,0.9355234802629108,0.9449824045340441,0.9501451610778194,0.9539713853184328,0.9608488165639396,0.9693516218511576,0.97432667591689,0.9730523337802777,0.9656960632442037,0.9533607703046575,0.938593929168287,0.9244291329891442,0.9149575259366344,0.9121847828046752,0.9144135354665136,0.9167847766826674,0.919945066270645,0.9250901311093599,0.932483068473445,0.9350604116312341,0.9236943108576664,0.8923447575287634,0.843579865367119,0.7846044913915933,0.7268290174959443,0.6812951141663053,0.622878022603654,0.47958800342479413,0.1284444441202591,-0.4241862063628572,-0.7369703764305824,-0.8519505257599793,-0.9050950532519964,-0.9333890647390712,-0.9459690190723526,-0.9448595572687736,-0.9329469065771466,-0.9152222172075096,-0.9006979320749126,-0.8943417664710778,-0.8978321626204129,-0.9067962164404443,-0.9176616642489894,-0.9303663384821484,-0.9421654362048947,-0.9507340694728084,-0.9559101763691761,-0.9584946039533657,-0.959924064611404,-0.9612664853552814,-0.9612796881991872,-0.9585125049123998,-0.9548206225481009,-0.9513422292267218,-0.9465428659153329,-0.9397074843898431,-0.9328061308338349,-0.9297400179690722,-0.932303036303961,-0.9349533767043882,-0.9292817381931864,-0.9079852600885253,-0.85934276317616,-0.7838265692259095,-0.6983734515809973,-0.5943066822809069,-0.4372947470257705,-0.19629048233144042,0.10740238463725384,0.38949013075097594,0.5874491757611379,0.7138794100886396,0.7936295779259257,0.8466591705665564,0.8780551566261082,0.8972412487269023,0.9149257157303115,0.9322400200484817,0.9467937169374258,0.9567421907428878,0.9618723412806295,0.9633103146695258,0.9621364546303715,0.9582762804071476,0.955795262613905,0.957189582882902,0.9616285694105882,0.9660219996943301,0.9689287815205264,0.9717019111847468,0.976666178510203,0.9823654499813735,0.9857953083112404,0.9875501435898095,0.9887642895199978,0.9878786640826479,0.984832473992665,0.9839010162327346,0.9848653745818561,0.9799940040994517,0.9627327813719965,0.9357053226422526,0.8991746580495266,0.8463355990633666,0.7532592013879854,0.5642383392346126,0.15617475227984295,-0.295620010446393,-0.4972400282323803,-0.564110017335238,-0.5926248719930832,-0.6133257068181635,-0.626289895226996,-0.6330302563706268,-0.6419254624017724,-0.6637896575253915,-0.6975922389125885,-0.7411330020280105,-0.7912932992425921,-0.8363166868897438,-0.86393874487848,-0.8705516886846044,-0.8677275393986221,-0.8695333344847623,-0.8819185473957324,-0.9017459761462626,-0.9221467073766076,-0.9371780543072402,-0.948222035258354,-0.9578748022102935,-0.9660986347910768,-0.9705172513902364,-0.9713153470495419,-0.9700848791329916,-0.9666363992047996,-0.9596921443967003,-0.9464602331059507,-0.9258106694934232,-0.897246290836737,-0.8554351345019451,-0.7948717061876746,-0.7244667157401327,-0.6544703447757922,-0.5832377445756622,-0.49902243006772007,-0.39097725635703834,-0.2536202424345845,-0.07857552888560172,0.11481867434531633,0.29335532620340726,0.44973265841371296,0.5774373609791897,0.6791634549637001,0.7540076457449735,0.8118996486792578,0.8585819791578079,0.8911669398482198,0.9128791015628744,0.930286465319493,0.9482260106671523,0.9622299372827245,0.9651691108966128,0.9606880794944098,0.9547114733919192,0.948047881071738,0.9419350076571513,0.937829380597766,0.9384564732743356,0.9448139869713937,0.9537265739922421,0.9605927152591428,0.9636823686161691,0.96262480264737,0.9602191632940712,0.9580387184101176,0.9529712756688022,0.9378022648424491,0.9081196186885961,0.8718238348747139,0.8412315764081683,0.8217854567604771,0.8020374132070003,0.7696450580194807,0.7001954462142067,0.5522531356923522,0.3294235913905292,0.12077441941434777,-0.02618138059999185,-0.1403657246719747,-0.2378189803176166,-0.3223586384629367,-0.3989324118484625,-0.4665412498722424,-0.5234943351443171,-0.57821361835499,-0.641120101213625,-0.71013168150706,-0.773504718660239,-0.8290856460531412,-0.8714797379576985,-0.9000120401486087,-0.9167925855577547,-0.9264341912445023,-0.9325221768329488,-0.9384800949851598,-0.9481258605008493,-0.9626057727446156,-0.978787834132348,-0.988434765769555,-0.9882673051775321,-0.9807375182570287,-0.9687827356461108,-0.9524588653602447,-0.9278757806431609,-0.8908211537013354,-0.844922998468672,-0.7978133145975149,-0.7513053545652034,-0.7058944877661204,-0.6609106287986231,-0.6105190963839442,-0.5426307457533474,-0.4652631290911301,-0.38517378047383516,-0.3046938443192948,-0.21806640323962517,-0.12596220270427116,-0.013694682466237871,0.1265493014901105,0.29170514456797214,0.4557012773335848,0.5881836162834665,0.6876625742284421,0.7616675414473959,0.8134589348587871,0.8337258885552999,0.815387870561323,0.7846724560524235,0.7726536896773223,0.7940672836961994,0.8445386343774877,0.8984400153397308,0.9327629326001655,0.9475409205242219,0.9514889825768071,0.9506763400722216,0.9466346379539184,0.9387617497397321,0.9267887956085784,0.9097881395529135,0.8892590807512911,0.8707398173545394,0.8594075855516237,0.8613295883721389,0.8752054957031472,0.8976038666260863,0.9170093375993544,0.9243021867411428,0.9183508051411245,0.8958525519223763,0.8555160221159454,0.7980461065680399,0.731203906289367,0.6669837507846028,0.6055643297785621,0.55253783773932,0.484985105599431,0.3689706907631369,0.18286452158782232,-0.05685807472148292,-0.3063887492417323,-0.5006308058586079,-0.6297162908863294,-0.7149405994900486,-0.7692839930917682,-0.8026782682090384,-0.8212400893364954,-0.8347010411803643,-0.848537159877276,-0.8633766431478789,-0.8833934418181049,-0.9074427193219629,-0.9291396712889702,-0.9468589100589723,-0.9604912110017413,-0.9726060724040714,-0.9818217375068256,-0.9872988913619316,-0.9885294817961424,-0.9861857008443079,-0.9812582533477998,-0.9736174995528892,-0.9648955884526181,-0.9597598647317322,-0.96151344549244,-0.9664759442359518,-0.970807477258223,-0.9746335659952737,-0.9780183809212479,-0.9757882990421981,-0.964569882617892,-0.9391094832110205,-0.8894423312768948,-0.8075339416860144,-0.7031549657660511,-0.6050056254472209,-0.5208851384387518,-0.42850277410249066,-0.2925461635377293,-0.09311344238328947,0.13522868591560747,0.3480364054884392,0.5178926110536642,0.645833574872093,0.7351878625648836,0.7910598701529186,0.8273540330783666,0.8557416326532108,0.8806881464754994,0.9004509326310169,0.9087711437149617,0.9034768928369533,0.8935029962444364,0.8886289819430983,0.8928370565196487,0.9037126343349486,0.9170335632354836,0.928920593866799,0.9408430227907912,0.9538682262754576,0.9666056725671018,0.9752100287742236,0.9753564697404321,0.9680934063433989,0.9569146260212185,0.942333974652523,0.9201728930824866,0.8974397167258101,0.8841674725384918,0.8744416782884451,0.8517552241825465,0.8078904488431633,0.7341821482691966,0.6404084499516776,0.5256166364383512,0.38539756940659575,0.2245908827124507,0.049889592683462734,-0.12185181020333544,-0.2663083334696069,-0.3835950816836864,-0.48249155787546616,-0.5755587157220641,-0.658531107230427,-0.728057497071593,-0.7828127272289493,-0.8236479685956896,-0.8509927592843678,-0.8691321288613107,-0.8791851586368686,-0.8860211932451246,-0.8965186379955613,-0.9135760241749982,-0.9354572206028567,-0.9556712031491205,-0.9703906432669896,-0.9766294195880895,-0.9760065880584325,-0.9727882241735054,-0.9705384255318843,-0.9694054465242637,-0.9678792977161287,-0.966814937282705,-0.9677274044490174,-0.9683576139797719,-0.9675689720711315,-0.9654279114284138,-0.9594918482024406,-0.9459692905575678,-0.9229762264071415,-0.8912140759170611,-0.8338501517846852,-0.7220376919974313,-0.5369353916478683,-0.3311866071164623,-0.16534164033152973,-0.029863063018821714,0.0913656468267627,0.1985517170534742,0.2931034072979922,0.3768367333295953,0.45558253775339946,0.5343370999571493,0.6091059803247961,0.6779943911515077,0.7427375854590482,0.7997643447743101,0.8489577849742329,0.8867110139296157,0.9069343529146426,0.9056213207879239,0.8924990089904419,0.8850018440273064,0.8937441808230618,0.9143008478488842,0.9340026614587484,0.9464768338185399,0.951819186474918,0.9532535712503835,0.9541906020620452,0.9586965819063527,0.967539213471593,0.9760402810932296,0.9781630360011149,0.9667481185652016,0.9389547365267226,0.9035278880393823,0.8736890038407663,0.8553217154990389,0.8489254788466896,0.8412525391080085,0.8175774111214572,0.7625225902332343,0.6576608922228067,0.5025464471954553,0.3390907713366824,0.1874293223116418,0.009294551764596004,-0.2236301622225761,-0.4321060945449127,-0.543320762674647,-0.5985005078316006,-0.6436324726379342,-0.6921684334094593,-0.736527624939073,-0.7706848008005399,-0.7935318187296484,-0.8083679722047373,-0.8165998569257653,-0.8231135955042852,-0.832639281606365,-0.8472152465156004,-0.867270168349585,-0.8927724973844418,-0.9209104474468556,-0.9437467423534274,-0.9575038710672376,-0.9658714393462906,-0.9715545864795903,-0.9757513707437456,-0.977987603892313,-0.9762985335112416,-0.9704058415451591,-0.9644199783582958,-0.9642490676554367,-0.9686637218772864,-0.9699637827207692,-0.9627663816946952,-0.9454237945087015,-0.9169541333516831,-0.8721336462336223,-0.8070349246252566,-0.7206419504933259,-0.6186711845139942,-0.5126271582011552,-0.4003888405644776,-0.2611591860874936,-0.0779384370137801,0.1117451003606587,0.2814916562343479,0.44421521630416194,0.5832387217407327,0.6787716582636378,0.7384517177459292,0.7814436146928597,0.8175538016409949,0.8526132831443768,0.885460657315147,0.912945389333896,0.933034557895581,0.9432605059742604,0.9448611686330988,0.9416038517487492,0.9384641621646177,0.9373786854195229,0.9396112132652787,0.9476235720667905,0.9598109394065741,0.9722880892352361,0.981666176605909,0.9882583821605785,0.991687838755301,0.9921021693080793,0.9895010826440179,0.9853940195969236,0.9836101871063103,0.9866821417994868,0.991546154114974,0.9934141800801773,0.9919750058915467,0.987071401221377,0.9736321252404093,0.9388766438576437,0.8631481052132614,0.7137057379485966,0.5078569723916496,0.32515256770922435,0.1818319114445612,0.03514742132473667,-0.15247419447294128,-0.35251632302135516,-0.5209076567608972,-0.6410365596093198,-0.7255431943826499,-0.7996116152266844,-0.8667077173435908,-0.9178310464904662,-0.9506077971382942,-0.9676389740546397,-0.9746960700496468,-0.9758292494071834,-0.9741942977360736,-0.9727471273109619,-0.9733464870618062,-0.9772735943022854,-0.9834933281455889,-0.9894964933277226,-0.9935278966004174,-0.9950350883103799,-0.9948958474560016,-0.9947001193327726,-0.9952506249402081,-0.9954896702692901,-0.993893160733762,-0.9913908259309789,-0.9908158157705288,-0.9936502777946876,-0.9961953331864876,-0.9928805553066782,-0.9804199472689159,-0.9527240706578175,-0.899650394838061,-0.8155023497692464,-0.6960122349608774,-0.5303148504822153,-0.3000276601290028,-0.006205700117685194,0.2920205497432592,0.5243396958393167,0.6795405275924506,0.7740923078151569,0.8277304318420134,0.8577613950432869,0.8775366136123985,0.8949070057132809,0.9129635993620316,0.9283116990360973,0.938032251790556,0.9398971315731304,0.9383271486310399,0.9404629920325134,0.9489951267587499,0.9595316875179332,0.9690165537076703,0.9748417245409033,0.97798137959517,0.9802874003880934,0.9815044232056644,0.9825248970760778,0.9830852515267346,0.9821563088953122,0.9788806291974167,0.9747255052980949,0.9698319151923657,0.9632049328529987,0.9546680435673113,0.9467058322792316,0.9456922767866738,0.9518745420283391,0.955095442460116,0.944093112025825,0.9131403475911786,0.8638787676429682,0.8043609262079071,0.7321578567900638,0.6293306913725064,0.4802106738595523,0.29017297159760674,0.052016297828800455,-0.2207447280823533,-0.4842782751714617,-0.6580576344810757,-0.7614399001052126,-0.8253577883735872,-0.8729832368656951,-0.9111349963977332,-0.9401431072339275,-0.9578132708650725,-0.9655577406783608,-0.9639322662896839,-0.9502812646797613,-0.9342169668866924,-0.9296147045259723,-0.9370245487508503,-0.9495079744621343,-0.9595760353199672,-0.9632666489710373,-0.9607164809322718,-0.9550016090624003,-0.9502594701435249,-0.9516603377546873,-0.9608420560423657,-0.9728094882401926,-0.9771327111917406,-0.9743703601572746,-0.972859028687706,-0.972413533311537,-0.9664366211838414,-0.9542086100989068,-0.9421660549703125,-0.9367918958926984,-0.9310073479588573,-0.9099181489355611,-0.8568744687112604,-0.7621144941944316,-0.5980289166649001,-0.33752090170779236,-0.023043906503431667,0.25119687109881605,0.4555138205412141,0.5939065018555352,0.6786545119145266,0.7222816574590938,0.7467839912169195,0.7594622864698756,0.7682142764406479,0.7837909099164398,0.8089919673550768,0.8367080044303847,0.8604386319295676,0.8805832233814078,0.9006437823571836,0.9186858042883981,0.9345197829939328,0.9490298239943925,0.9615579089607011,0.9699168922297231,0.9735466772945375,0.9748619230285969,0.9754674856047086,0.9756941195911385,0.9755239643554029,0.974818345544084,0.9727437898221035,0.9700998609887895,0.9675512611020952,0.9632435896741678,0.9561633494652378,0.9452419211224792,0.9269803533647679,0.8966881347376189,0.8594508793409001,0.8178848173114528,0.7624937738876013,0.6641405999475829,0.4979986297703836,0.26124778149400857,-0.0017670242029446225,-0.25130758457437063,-0.45141806277153657,-0.5966658580865408,-0.6980712799480613,-0.7763294094277041,-0.8407016671039108,-0.8896233924590191,-0.9242597036040768,-0.9471412590669693,-0.9582178867804586,-0.9573140903769766,-0.948034025099695,-0.937559234327881,-0.9286616395436391,-0.9258635357881175,-0.9296426511913103,-0.939188037030905,-0.952633643506745,-0.9676910884543451,-0.9811191958626411,-0.9898012360949795,-0.9947174703457139,-0.9972513915004572,-0.9972204708608372,-0.9925938149591991,-0.979937381324471,-0.9572578442679153,-0.9254652753318062,-0.88710082637454,-0.8488215719491715,-0.8191994330477899,-0.7996764825798452,-0.7809161271837813,-0.7560715691678224,-0.7205420454868271,-0.6691250325040259,-0.5917662921125175,-0.4798437874720527,-0.32874599633348156,-0.1409079103339531,0.07274090108875801,0.2766274692651688,0.4293159978462365,0.5281981354638724,0.6190480282211662,0.719837516299038,0.809919653378743,0.8707365046862479,0.9082245268286961,0.9340934745760386,0.950606453463985,0.9567872843752598,0.9542724652222024,0.9472435076301762,0.9406173726893376,0.9324446565056785,0.9191515992937176,0.8990305162354217,0.8756402210828429,0.8558335859003212,0.8482021307887847,0.8553231211949994,0.869514270015006,0.882598856084511,0.887547023933125,0.8839954071853344,0.8781980213865459,0.8777617607173674,0.8897756058283911,0.9104879079257666,0.9278201061553764,0.929883045735849,0.9078742946689433,0.8609356659949919,0.7934366624313193,0.7105476302577765,0.623027075036502,0.5442933235304304,0.4626329405334907,0.33083736810663456,0.07921792847478563,-0.2779515240145102,-0.593102864446334,-0.7767892659809256,-0.8663898941558065,-0.9153713754417294,-0.9434522163757827,-0.9603509548414247,-0.9700726818027494,-0.9727798365956325,-0.9667948103788829,-0.9510151350269275,-0.9290353798057979,-0.9104956385198515,-0.9055623886861436,-0.9144710223493977,-0.9327675981742217,-0.9518670711471141,-0.9672624657099292,-0.979084399083984,-0.9877162806601272,-0.9926046647258664,-0.9921551069333923,-0.9788523881012985,-0.935042517407471,-0.8613868403248219,-0.7957736245863927,-0.7659427243242414,-0.767685352910899,-0.7761570841315779,-0.7726710267832182,-0.7569892066826609,-0.7388582624458677,-0.7121317968603033,-0.6725341614167417,-0.6123452983635526,-0.5345986584595901,-0.43632940503786816,-0.3114542489613566,-0.17017806716023673,-0.02641152661357784,0.10384188434028205,0.21598978552070747,0.32479280409892186,0.44442585773786675,0.5671922201162524,0.6723125383786398,0.7532350373188719,0.8164982595421423,0.8654011310069956,0.8969250655085523,0.9093927224966557,0.9103459673221933,0.9113602604273316,0.917484424359895,0.9266792631333893,0.9363833352779306,0.9472794382983055,0.9591201297409919,0.9708361964325644,0.9806470658698538,0.9851799486980617,0.9829550504723708,0.9776412878202916,0.972534898542709,0.9664500399670594,0.9584921458911737,0.9516602217863029,0.9468387066278785,0.9421061796714449,0.9351512570430806,0.9250831321129597,0.9086997807916034,0.8818624892371135,0.8376538206374271,0.7666948492607998,0.6707030273032047,0.526837071640243,0.3082793396706157,0.038812257324103525,-0.19570512494469275,-0.36808330852638976,-0.5058129863757163,-0.6181969051194249,-0.7037569106942894,-0.7670063404041282,-0.8183627693800705,-0.8662415531463155,-0.9079250672742339,-0.9380434026620292,-0.9548177536477567,-0.9600506279868246,-0.9575211882103163,-0.9507554692263251,-0.9438557370412729,-0.9401932912398678,-0.9382909723093585,-0.936815235952266,-0.936251534838414,-0.9399232169343025,-0.9458699105755923,-0.9521801922993516,-0.9553612232770881,-0.953899613452978,-0.9452376987747737,-0.9328128843456475,-0.9265846054824234,-0.9330718382613855,-0.9506453050737931,-0.9696380007332065,-0.9776312732073571,-0.9622746416542354,-0.9163737010532753,-0.8550044119480907,-0.7986546834505307,-0.7492218101226559,-0.7025356227489019,-0.6421667397585666,-0.5303330120114563,-0.3175397408677856,-0.014276350306274256,0.2862753022814179,0.5212899152397875,0.6646622283950195,0.7374263016270661,0.7808674253265772,0.8119723489406641,0.8391374132088387,0.8642424317983379,0.8870267804648351,0.9097064670601819,0.9313103123895293,0.9471794240467768,0.9559997445658502,0.961415201722379,0.9670618648716737,0.9721903669029238,0.9760557284887649,0.9788765801489546,0.9798519044041958,0.9779051985946138,0.9745295985172466,0.9725424020085394,0.9731018414928284,0.9762549061816472,0.9810320775682114,0.9830722496363868,0.9796005569083001,0.9692267827525134,0.9477308484739058,0.916377837068468,0.8824743553636105,0.8531750215309369,0.8255699118704901,0.7966399974593791,0.7681693625576873,0.7369121198280494,0.6767750478881576,0.5155816185089857,0.15449390191031695,-0.2733205582417684,-0.5505482368292748,-0.7043904919294178,-0.7900416625067552,-0.8322111183012425,-0.8503478634322106,-0.8639429868840078,-0.8906547964882835,-0.9317083066631565,-0.9672162320435015,-0.9859212658185764,-0.9900473197937757,-0.9875358980201027,-0.9850386307491333,-0.9848208003985224,-0.9862838055990054,-0.9877083094618828,-0.9882355918069351,-0.9865032669494849,-0.9830800842580183,-0.9795149550055217,-0.976407804094909,-0.9740432674988071,-0.970898693946081,-0.965386430226616,-0.9576882129017356,-0.9511787643480766,-0.9517633813797851,-0.957982241987806,-0.9619311968002479,-0.9597674778217342,-0.9504874139939001,-0.9296157031417785,-0.8792595194693364,-0.7753127296405606,-0.593904770463875,-0.33628661502258106,-0.04498251053248999,0.19640751861607425,0.3546144215759958,0.46341170348650434,0.5672575998830912,0.6865836291243143,0.7990443772172802,0.8536942680718518,0.8467732923371527,0.825255835177735,0.8129297241127893,0.8059494692524559,0.7982676407406966,0.7892631197300096,0.7840184565876542,0.78924720876142,0.8064406022417773,0.8345144122189865,0.8689625262415891,0.9031418340402443,0.9336895471374609,0.9578041868050977,0.9715272287954732,0.9735065988846049,0.9660051121455994,0.9493810049833009,0.9272035948508347,0.9042699989755678,0.887846026497674,0.8837770954256797,0.8908015253888881,0.9053571656158265,0.9213087614255897,0.9334784692452464,0.9415821887892831,0.9385895082517371,0.91277943162179,0.8418981751613299,0.7031673596933351,0.5123801204242163,0.31261221903184433,0.128398234260866,-0.030828498681520086,-0.1739096129747693,-0.3092338555409036,-0.4407896209823812,-0.5710588815981414,-0.6948690550132348,-0.7849118558852252,-0.8319376490754198,-0.8488334999515522,-0.8491742962064528,-0.8443665674138716,-0.842487300523788,-0.8523992048259084,-0.8739236916554964,-0.9004265483664267,-0.9241201659651165,-0.9436046377779932,-0.9580615342955593,-0.9679625490445635,-0.9744127176405812,-0.9796696548671987,-0.9840009391386272,-0.9852767542055787,-0.979793377575821,-0.9666450533234594,-0.9507230310491874,-0.9426172698393094,-0.9464807412788856,-0.9581869959613211,-0.9639574348140816,-0.9550877016479141,-0.9390647853476822,-0.9308831281989832,-0.9353426063288262,-0.9332865003975785,-0.8849693740167645,-0.7674497306235887,-0.6084466039851528,-0.43046377657622015,-0.22270440477389705,0.009079588198590803,0.21914769289056235,0.4019458239018165,0.5565722719938379,0.6606051543769772,0.7109145617748684,0.7353825230905036,0.747820835772326,0.7590385659749617,0.7840753414253234,0.8278355630013281,0.8752470127286132,0.9083263681368398,0.9204333970790939,0.9193169423205059,0.9139786223853882,0.9080575789802763,0.9006009156739295,0.8944361137904726,0.8965587086004255,0.9105542537534151,0.937544899475642,0.967976601676368,0.9870299531580088,0.9854533758793995,0.9662766821455724,0.9334478649653885,0.8899443562414532,0.8400530464079352,0.789588862184064,0.7502168252304475,0.7239989863587688,0.7032828161230325,0.6758071458832517,0.6328685113443693,0.5659329038222763,0.4726942880507879,0.35289623251695723,0.21193241003007815,0.07387704644093245,-0.04236087872875858,-0.13431958105412117,-0.2119733984904972,-0.29145546286207596,-0.3750569349943929,-0.4692218729119611,-0.5751000372329486,-0.6839835792268423,-0.7777058114481588,-0.8473308073973996,-0.8980405794207742,-0.9309390554922332,-0.9477111445270242,-0.949060370338664,-0.9439899219499309,-0.9398830850119831,-0.9382947912365,-0.9358315676901933,-0.9329780563018363,-0.9302355792551493,-0.9264872671791184,-0.9220500567878933,-0.918636361777881,-0.917990169858397,-0.9176910973296692,-0.9152223039635706,-0.9089154877709179,-0.901707219251748,-0.8968272053179441,-0.893315382542075,-0.8894834030748712,-0.8806258623042441,-0.8644648151141213,-0.8345510001144455,-0.7790034947788,-0.6921720254767921,-0.5740978541578482,-0.43033806513883766,-0.28196690243742406,-0.1461273323452444,-0.01456375851592712,0.12495657415942947,0.28640253217895706,0.47397735811537567,0.6613500205149103,0.814574131000982,0.9043031593360956,0.9428947293629225,0.9581518136755096,0.9671723567212661,0.9748569535169894,0.9797407015272714,0.9778196550461576,0.9657631256642024,0.9517447575671575,0.9484401462087816,0.9571864512612339,0.972717112687686,0.9865558348015976,0.9939904743378128,0.992333249579521,0.9822473719713907,0.9671900845820235,0.9498343826131291,0.9308962166643482,0.908884608947333,0.8876226530933046,0.8757349923425357,0.8780456531340184,0.887500062106943,0.8946775911584761,0.8931024083799846,0.8769761048654792,0.8467717239881515,0.8026562223553089,0.7425992772394643,0.6647728378619823,0.5613320589269208,0.43069129163214365,0.26191552107891336,0.05269937476555846,-0.1865703620046893,-0.41961844964423367,-0.5925388803257148,-0.7032342814697621,-0.7777304881242143,-0.8359826507979674,-0.8874344461589682,-0.927318570103557,-0.9548290140020984,-0.97277895215962,-0.9812348190988956,-0.9809670027685921,-0.9778548760529292,-0.9771120710668328,-0.9775868815666796,-0.9788682167860427,-0.9826639730180585,-0.9881261705734125,-0.98905414109209,-0.9759836138706386,-0.949684613784301,-0.9261878061381839,-0.917940831952991,-0.9237053312935001,-0.9343434323562279,-0.945408082559548,-0.9544595800687401,-0.9564725466212336,-0.9469720394364732,-0.928223405505246,-0.9137585893078867,-0.9096090873855961,-0.9059292594117172,-0.8874605891697994,-0.8378761780895191,-0.7388331225990701,-0.5536305817572874,-0.26607730070104735,0.04081682908725643,0.29707224375677316,0.4797535583548109,0.594356895059976,0.6641738559478141,0.7088933677250662,0.7465526257598971,0.7811050858706814,0.8127163696752164,0.841117246929891,0.8659580055515708,0.8890783857999904,0.913199482201444,0.9378596768609464,0.953680924520283,0.9603716214071703,0.965284223612771,0.9690843612366036,0.9699011909831801,0.9654996912646856,0.9535805684082569,0.9310816122711094,0.8962722591440976,0.854446563428831,0.8173176354908313,0.7919016758815741,0.7851098595014716,0.8008170560513271,0.836957598438421,0.8772510546006977,0.9093275718330178,0.9304861760327104,0.932700985954289,0.9049095254885914,0.8430212429483849,0.766393920695998,0.6864846651952903,0.5986120953887271,0.4957442344065866,0.38050192859035403,0.2545282947168389,0.10178360660833762,-0.09061432493057217,-0.2966697129310631,-0.46874296719687963,-0.585652346046458,-0.6653737753189689,-0.7320102756640937,-0.7971875259490828,-0.8572350301743437,-0.9029090531085978,-0.9331017698071501,-0.95023080580216,-0.9551477707794251,-0.9493506312519031,-0.933052529536105,-0.9087287976691013,-0.8856581101328522,-0.8728957780703813,-0.8753200467276002,-0.8886225413209463,-0.9098785343960318,-0.9310820626160337,-0.9481264943530984,-0.9585382447216474,-0.9621555684945734,-0.9587998630475476,-0.9484425977214473,-0.9368318158329239,-0.9278834454777023,-0.9228466698222919,-0.9217936516072718,-0.9205117495259096,-0.9108521334291418,-0.8855812401949968,-0.8398495685638149,-0.7733640464494228,-0.6955422932854005,-0.6104945592589044,-0.5113161509405307,-0.38114190237626155,-0.16825380379989266,0.1841828542140781,0.47911081428384605,0.60691122867925,0.6913713284257297,0.7667305083783491,0.8339116543545787,0.8819235998147216,0.9027368975361146,0.9061273718348136,0.9057952221651898,0.9133672215094661,0.9267009254394801,0.9409820046150316,0.9509114863599403,0.9555835914023193,0.9583115425525236,0.9619474246451237,0.9666758585312791,0.9726247951851421,0.9770134484777837,0.9776148386015987,0.9763275779643614,0.9740204226371105,0.9706323987712182,0.966806789526721,0.9645769154043226,0.9638829977353182,0.9644955883829133,0.9648618477312715,0.9651225011941528,0.9657917760964567,0.9660954766143778,0.9635919289650431,0.955265340535116,0.9378455581354326,0.9031876038175309,0.8372666020521526,0.7240772739034663,0.5531380993653284,0.3193331137904181,0.06826639375936552,-0.14929415085822195,-0.32923901279425855,-0.4836582395210508,-0.6302484867763064,-0.7758824028331499,-0.88833953518736,-0.9320653189740427,-0.9142176844165788,-0.8751977559564045,-0.8530144577986807,-0.8564347211149123,-0.8806972124627197,-0.9120599752549242,-0.9331861463171292,-0.9361607663475794,-0.9187410008891534,-0.8826238444226298,-0.8364843413737407,-0.7857287473039001,-0.7287395428946284,-0.6648056164413967,-0.6006182195090273,-0.5453491232183281,-0.5051138947931771,-0.48280192691233986,-0.4821841610737889,-0.5039284937003772,-0.5433135070189488,-0.5902420209234456,-0.6393762331634377,-0.6882051750222921,-0.7194333407298658,-0.7053927861142943,-0.640471642372417,-0.5422877088642957,-0.4243754667863644,-0.29501813702787594,-0.13189838038783844,0.09386686001367546,0.30825098157900166,0.4516510519597359,0.5270149891497649,0.5676966411199718,0.5950113048035672,0.6174955586096971,0.6414624658127475,0.6622588797840442,0.6752059221819794,0.6751893772040635,0.6592698632799349,0.6362536126615149,0.6160466377861017,0.6078305415238876,0.6170554371339227,0.6457074030412275,0.693112183399004,0.752024039354783,0.8124489849587685,0.8688789874968673,0.9045988568135837,0.8884698542344,0.8345792603992574,0.7905263486442163,0.7823161729210526,0.8072298713843016,0.8428319775325056,0.8574445232431892,0.8351847927471284,0.7841245056370016,0.7268982765649746,0.688161733689298,0.676760874630963,0.6883957097505548,0.6946314662584973,0.6489862230059624,0.5186923693699523,0.2914992577641384,-0.022747997985133588,-0.3287323145740937,-0.5379545149304076,-0.6629487858385558,-0.7347389376399274,-0.7820432790917039,-0.8167302831878266,-0.8415814196946749,-0.8592103617100858,-0.8775898878213289,-0.8977829910738286,-0.9147484983647163,-0.9223550331929755,-0.9200122590762116,-0.9135486866545128,-0.9127778270863662,-0.9183867588518065,-0.9243629057487364,-0.929129833839823,-0.93559382186272,-0.9465508447877663,-0.957860107623376,-0.9639645314716385,-0.9623663480264236,-0.9595158797149509,-0.9614387407880166,-0.9659204556273046,-0.9706190327254096,-0.971968713868082,-0.9691981759877932,-0.9652700483433689,-0.961127431281557,-0.953447371156912,-0.9429619282717092,-0.9295372615185541,-0.914902097606477,-0.897208092876253,-0.8683797297936863,-0.7988411697514285,-0.667036014878282,-0.48680048738249215,-0.24477114499980393,0.11466140659513267,0.49214881904175384,0.7247660743223288,0.8115749372347685,0.823772998132367,0.8051152203104529,0.7739854540142915,0.7423517289173589,0.7198026231276061,0.7111441705838523,0.7144039664657378,0.731649764139396,0.7623166924529367,0.8034810588050946,0.8518242734855344,0.9026717070337218,0.9429536150777623,0.9647920954904537,0.9690074625956585,0.9624580074332317,0.952274755636674,0.9402574715635287,0.9238431050212554,0.9018731715457692,0.8850099351842329,0.8765350826229535,0.8577409772157405,0.8008086977218887,0.716276054930026,0.6424565798062507,0.6088871471742758,0.6269492630586093,0.6943367473817051,0.7883873220359994,0.8381956705347394,0.8112555974445655,0.7394055359766837,0.6053012852444154,0.323584387347414,-0.01276243073689217,-0.23446235185912956,-0.35467274082988764,-0.42254781733689023,-0.48225473872448804,-0.5505413266529531,-0.6334889405170363,-0.7244479771957788,-0.8107695588704827,-0.8794475768675258,-0.9276362566241254,-0.9582991811324026,-0.9751037947604538,-0.9822522699928672,-0.98272818643279,-0.9817385379516915,-0.9830776845218154,-0.9862866629035232,-0.9885529054162042,-0.9892241529624066,-0.987505984561818,-0.9840749066724903,-0.9812589431495636,-0.9781508295666225,-0.9702658702151536,-0.958667387193449,-0.9493867378353882,-0.9482125708384386,-0.954464470783685,-0.9615834552052532,-0.9631566416209041,-0.9522629024222161,-0.9173881775197613,-0.8498622186189217,-0.7641478504856823,-0.6833293270057472,-0.6137348166563118,-0.5329483909266012,-0.39918537818405153,-0.1787089949472266,0.06507413721866326,0.26932361363538326,0.42143279599567995,0.536020957976122,0.6285193369650123,0.7095631779010886,0.7759476508629608,0.8227188330745343,0.8492021273870162,0.8634353012778727,0.8733392572493326,0.8865859341468563,0.9070407799807416,0.9299007758166619,0.9498985987598793,0.9657095890975744,0.9756687735061426,0.9809939300163016,0.9828692522767972,0.9814434412481261,0.9776577500493013,0.971698427151902,0.9640312171698422,0.9574783987715779,0.9526372738996571,0.9487269928115377,0.9465123736105386,0.9451449401747135,0.9412390127283012,0.9348542524685797,0.9261107401382198,0.9179232679969943,0.9108880719453807,0.900998370888482,0.8685312499503564,0.7687963733016455,0.5784112683413578,0.3697247078446176,0.2083936045083873,0.07506328214468512,-0.05934639397465767,-0.20258929754976893,-0.34062170249083074,-0.46321084115511924,-0.5841625336553289,-0.7057604353899365,-0.8027518827840585,-0.8621394306398646,-0.8988100559855254,-0.9253095759653978,-0.945887369813269,-0.9541945012005828,-0.9382685298463771,-0.8885593764687074,-0.8155272499951215,-0.7482971884350006,-0.7054267367778823,-0.6815910484672487,-0.6651044233542684,-0.6473203506624862,-0.6259778919086532,-0.6012279327119937,-0.5730618329461302,-0.5453533428174406,-0.5296084476190775,-0.5383731422327049,-0.5719336313869727,-0.6245398784579961,-0.6904895471802818,-0.7677225885832102,-0.8446968763472213,-0.891012821562728,-0.8875115725148437,-0.8289296624614422,-0.7296707482170662,-0.6111258000714381,-0.482819275253439,-0.33787225703463836,-0.18325658036292292,-0.04334705247091635,0.07512183949287411,0.18842301899085181,0.3086395866697579,0.4198157183153841,0.4957334653775381,0.5334038332848039,0.5443053547461351,0.5447015811381761,0.5445081112031981,0.5437709127861969,0.5419877876794071,0.543889457627412,0.5554463276710813,0.5791065051541996,0.6139688445704389,0.658255512126483,0.7098077739654037,0.7672905731241968,0.8265156057649508,0.8788816893527005,0.9154489677148291,0.936622822588264,0.9428565217158273,0.930267311632179,0.8878193527277236,0.8138437429582489,0.7218980044983756,0.6364529128554487,0.5774116797728313,0.5581949955107073,0.5846504254836923,0.6533533594070644,0.7353374606653833,0.7767377873168394,0.7408527658486631,0.6254456288831157,0.4526418749173898,0.28870320840405517,0.1632824134302557,0.05567144940948129,-0.06502522158619946,-0.23169869159667447,-0.41345656500825123,-0.5135320856386102,-0.545686263495385,-0.5569221898698148,-0.5750718763235128,-0.6122627205252079,-0.6616898705635607,-0.706306845696012,-0.7355134084321888,-0.7491284072550903,-0.7550042249846514,-0.7679573802951704,-0.7955539634927671,-0.8309772851837398,-0.8618028021189093,-0.8845441243235815,-0.9023485118150554,-0.9165377699826687,-0.9280567687720727,-0.9390222356996056,-0.9514123457355552,-0.9640665742533053,-0.9724239417733311,-0.9735231687455306,-0.9692963458965503,-0.9626450114871038,-0.9540043387651995,-0.9408002045094446,-0.9163779986377417,-0.8719251551198924,-0.8072564848183095,-0.7351960938399051,-0.6661872283084855,-0.5962170417669488,-0.524747915720094,-0.45328015712518716,-0.388430118582371,-0.31738483766491543,-0.21238427326473558,-0.040897675366763274,0.1981387582508132,0.4380443445722003,0.6041973924815056,0.7056034939610084,0.7694852264696822,0.8175221872867464,0.8640157872965973,0.9091186168813791,0.9446591164415552,0.964025360269393,0.9712485181822001,0.9718101432867725,0.9708742475549492,0.9706747949223873,0.9710352555970645,0.9725630166811563,0.9751355413873657,0.9773090582486099,0.9774022248314639,0.9739290998675014,0.967296353258267,0.9585203745468684,0.9488068491464938,0.9391775948763031,0.9323121545571862,0.9263362392663596,0.9163142600246297,0.8993005335687487,0.8788889600199099,0.8628529156282825,0.8522407674755008,0.8387762287140619,0.8100888169982267,0.7574824987830959,0.6845651564615721,0.6009912190109421,0.4947292526194224,0.3158957201952705,-0.02521993611996808,-0.40910275018400327,-0.6381002768722915,-0.7571469468589103,-0.8254732364751344,-0.8700148618607094,-0.8993960023051317,-0.9214848800577727,-0.9389548671481824,-0.9510756569104944,-0.9604277954322024,-0.9678780297065979,-0.9717334240180645,-0.9722981651581438,-0.9716935011300859,-0.9719103610620359,-0.9731766194664868,-0.9736158364954,-0.9699721317317956,-0.9637153268608324,-0.9589454831667125,-0.9598542822839252,-0.9661074810336909,-0.9755545039863838,-0.9845566697205816,-0.9891925880874937,-0.988499752992676,-0.9817977361575991,-0.969161229166208,-0.9527950298585803,-0.9369386494125983,-0.9249568574635803,-0.913255013607199,-0.8935996094405821,-0.866769128127304,-0.8326153079745524,-0.7840538986274037,-0.7007961039806387,-0.5257201652025032,-0.18257934009306379,0.2487779158662786,0.5453526942224681,0.703435624023392,0.7914611596154842,0.8442698116012495,0.882064444744382,0.9071564496943292,0.9185270768406235,0.9226799974251074,0.9251739743655428,0.9285172837715334,0.930911316264923,0.9302783089057041,0.925591133657097,0.9206180735078467,0.9224214412334072,0.933097501466548,0.9463757268032805,0.9567033235079404,0.9630822636206166,0.9650226796450493,0.9617959134665016,0.9564939523495826,0.9527895726451852,0.9515793802109634,0.9507771416448503,0.9493485418803421,0.9489641430359237,0.9526142403353217,0.9588772579401132,0.9626524274125822,0.9625023011673695,0.9580288998363693,0.950940174007642,0.9404511376781426,0.9213804024341782,0.8910983983208174,0.8549037096385876,0.8107406506239115,0.7218675911867081,0.4008209252334214,-0.1692930368843337,-0.5434671031228163,-0.7331135729270882,-0.8321136905882159,-0.8856192934295031,-0.9142654666080035,-0.9230238881501783,-0.9107638464967839,-0.8860078146895103,-0.8616908428376265,-0.849372036324782,-0.8558399204358667,-0.8747894692873942,-0.892209855528264,-0.9027564805719511,-0.911413932791513,-0.9218739255926928,-0.9326636044873933,-0.9386886319797725,-0.93899110052505,-0.9369580966709027,-0.9353355272184399,-0.9379470050195371,-0.9450772278808557,-0.9515506675111998,-0.9465537141983893,-0.9228169383233552,-0.885947217630654,-0.848129704716646,-0.8133779250307144,-0.7888199603379327,-0.7722265195665362,-0.7565228415842641,-0.7345214146810948,-0.6954637358901419,-0.6136582178064595,-0.46723245171089495,-0.270181252816775,-0.07419860654533213,0.09631516255697684,0.2874410195261337,0.5017539724258875,0.6797362180715207,0.7841375896075844,0.83628508122933,0.8709413110803516,0.9015846716896558,0.9288520489854768,0.9471707070639948,0.9534811533090933,0.949302339002457,0.9396395526277924,0.9311234534773964,0.9270718016778373,0.9294253533875781,0.9374857208675811,0.9512775842263361,0.9672163570158483,0.9792944728543342,0.9830414503443163,0.980495634394192,0.9744022888164462,0.9642571991770321,0.9501336726919666,0.9350000207727458,0.9199926163904684,0.9043807291264072,0.8821234589815005,0.8527489962918361,0.8310281053935542,0.8284526217540471,0.840222912592756,0.849968803146629,0.8417492375955319,0.8032994278705785,0.7390723987148267,0.6464171098520635,0.48771096967178273,0.20016795755892267,-0.1792425928346788,-0.47284552659372214,-0.6305296208235894,-0.7106503952474347,-0.7541614337711308,-0.7835182449379144,-0.8075594507809611,-0.8298661160529943,-0.8496440004798897,-0.8664116422405024,-0.8839473801532994,-0.89845265096248,-0.9079824646362079,-0.9115979086258009,-0.9146841783408874,-0.9221502658102807,-0.9328549038744124,-0.9467619337620016,-0.9615353634871237,-0.9745598269691139,-0.9819663312543784,-0.9829754607917917,-0.981030293636381,-0.9809126417523455,-0.9834369840117113,-0.9854048710549285,-0.984845310992014,-0.9807752960477855,-0.9757967136086809,-0.9700746271515065,-0.9660628949447411,-0.9641305175893189,-0.9588492796367295,-0.9425377016089715,-0.9084397601597535,-0.8445332734489062,-0.7434509304433824,-0.6027024698033555,-0.4354872980232084,-0.25783635968485136,-0.05827386150640525,0.16560726351989025,0.3917697309088736,0.5700423282237087,0.6819492445913167,0.7460207982151823,0.7820053279017997,0.8070191099791729,0.8278699586754927,0.8454335967509884,0.8583484320580976,0.8642842438017633,0.8626785498769965,0.8540518046431096,0.846162764777635,0.8503434407538863,0.8722851960148783,0.9020247074394929,0.9306069021788099,0.9537804886357196,0.968982801138311,0.9762322724207897,0.9774419641144688,0.9764090596841021,0.975002555945612,0.9731575791946618,0.971634191837996,0.9705706829942119,0.9675955390338591,0.9638115574931821,0.9637291956868491,0.9650654918347337,0.9582740905129983,0.9330857804078446,0.8922288058682675,0.8457793457222151,0.7976088900655056,0.7526690716802302,0.6980828585061635,0.5871212146299406,0.35687098749220236,0.06918638849066584,-0.18445279826176764,-0.4226487675440582,-0.6409052914536676,-0.8040589789522566,-0.8995291635927113,-0.9420749009356826,-0.9574959467149465,-0.9622366351512933,-0.9646205861202856,-0.9694738981071386,-0.9773607959147128,-0.9799763560963773,-0.9684666514950715,-0.949653623925462,-0.9373432908697682,-0.9404490820410214,-0.9564308760091438,-0.9721751636077838,-0.9793320727310993,-0.9806388747500456,-0.9796786296666444,-0.9777118989084331,-0.9747616400466941,-0.971962340181347,-0.9721907347483225,-0.9751998603715883,-0.9756050707573448,-0.971136336013866,-0.967584910756603,-0.9689547624900267,-0.9720020710632515,-0.9682981877977219,-0.947880627855763,-0.8960115543270979,-0.7922181409667085,-0.6170474211499248,-0.35560094381596097,-0.041507792013346104,0.24880025770296996,0.4764406865585023,0.6455672611933793,0.7591505014626478,0.8303200269635564,0.8702030042410712,0.8921585226982913,0.9088764614168438,0.9249081401211546,0.94105891599638,0.951960756351154,0.9536072790562634,0.9474337273237522,0.9354540984406091,0.9250875613808814,0.9253747219687889,0.9356311522821421,0.9520824409861884,0.9697218412720946,0.9795976726836443,0.9764807517935478,0.9657510576022351,0.9557208810984446,0.9481680717147023,0.9402398071763342,0.9300798975441003,0.9198833657787501,0.9131581440926604,0.9138517023324368,0.9235144325200633,0.9378579874905364,0.9472134634310856,0.9443716752973362,0.9294814401725933,0.901058799900825,0.8480116366897524,0.735778343118426,0.5230291310848979,0.28189109073960406,0.11193502754398522,0.005736730590590293,-0.07590479989835103,-0.15583925895663794,-0.23763128932031732,-0.31629435641673576,-0.38636692873726153,-0.4503767976385916,-0.5153137019469546,-0.5848096640238085,-0.6646810464561287,-0.746743944143415,-0.8149621619965816,-0.8559745851263206,-0.8621262669518062,-0.8478951715426974,-0.836672869460998,-0.8368122391738838,-0.839448387881007,-0.8405334366107481,-0.839941978931942,-0.8376603874778547,-0.8306605781999329,-0.8158802004978167,-0.7945113901603139,-0.7687990518955352,-0.7389079553823535,-0.7057138973911007,-0.674589052788969,-0.650863886422851,-0.6432096483112378,-0.6525239077319757,-0.6739353639764836,-0.6962310277253467,-0.6960423359910465,-0.6520876262744147,-0.5644164458537063,-0.4496314647813606,-0.32228827092454704,-0.18189589038915466,-0.03324038308308518,0.11357493452854217,0.2517097422817688,0.38875996420654146,0.5177312537473389,0.6251127276157753,0.7053700007955719,0.7608667646092758,0.793922829425088,0.8078302087296028,0.8067379299907275,0.7993075282837895,0.8005902620331617,0.8156257952488464,0.8417726789956468,0.8733606037096221,0.9019547087675805,0.9229545030007367,0.9354035149726702,0.941697424286697,0.9445641040471853,0.9458880513099494,0.9461359086348973,0.9443425212436929,0.9409239734018979,0.9357467473988116,0.9303795475783452,0.9262559400228816,0.9214759574572816,0.9110299656480612,0.8937808897557035,0.8744526353582633,0.851424193878035,0.821133035594397,0.7799703466798935,0.7313408852017846,0.6825528533135232,0.6364342654612447,0.5840848678356634,0.48691145199113733,0.2575301002067712,-0.08064160100774313,-0.32674257772481413,-0.46669210398087235,-0.5605299835043855,-0.6367955223759492,-0.7057679851732969,-0.7703801247609818,-0.8278807236097239,-0.876174750022258,-0.9164515367397599,-0.9450717303403833,-0.9607854563460301,-0.9651015819023209,-0.9590358361313482,-0.9463786631823181,-0.9355935906950965,-0.9325745834944749,-0.9385866428788537,-0.9480558337033513,-0.9550000645638733,-0.9592429355691064,-0.9639738642893927,-0.9696663996271927,-0.9733993270886264,-0.9711419846322379,-0.963902064958184,-0.9537093000034153,-0.9435108788342443,-0.9378864928135074,-0.9356215601646715,-0.9269922646428286,-0.9011434739379898,-0.8605732324628701,-0.8090179641015031,-0.7435849830688436,-0.6416324698358639,-0.49784155625429927,-0.3396309709091984,-0.18025702915194688,0.003990370699835716,0.2048285821241494,0.3644985629022781,0.47108193668539566,0.5504684221180419,0.616390081118816,0.6726444739594195,0.7166967370923799,0.7516443553922665,0.7819466731420522,0.821045228275472,0.8672235956127277,0.9100368448708691,0.9389821070759026,0.9519313472114412,0.951553045711991,0.943840427251723,0.938376049117428,0.94345082232888,0.9589673206778708,0.970231967836819,0.9688556675181959,0.9624039623772467,0.9584315212597716,0.9576387819506925,0.9594555590826654,0.9649620586649472,0.9713927603792106,0.9741002773684088,0.9694044465850071,0.9581657473034715,0.9473221308365491,0.9463840581916393,0.9584338132946251,0.972934503039073,0.9811009681250376,0.9786597945398935,0.9696437250306134,0.9493080808477268,0.8491797380550661,0.2777376885775465,-0.2364605694021486,-0.44304942023723604,-0.6248532445023709,-0.7769648003566921,-0.8828060247077114,-0.9394513859434215,-0.9634438292058588,-0.9747175805678663,-0.9805634802285537,-0.98128988941069,-0.9783602487524009,-0.9734571148728761,-0.9680050384735538,-0.9672955582005408,-0.9717923962887671,-0.9797138241960212,-0.9881659844779728,-0.9936877260972573,-0.9946906835656982,-0.9936248601731058,-0.9927504863146198,-0.9934490909211797,-0.9946703418792404,-0.9952785389142723,-0.9961498793496443,-0.9973752450508073,-0.9979331769237635,-0.9962503705869269,-0.9918393841627868,-0.9852797414737763,-0.9791654736891048,-0.9762729873159256,-0.9747370972331694,-0.9703243380963484,-0.9633284770803091,-0.9610202930802096,-0.9602805413459072,-0.9514927497209569,-0.8459037741517151,-0.3957960379681256,0.29374880720883256,0.6288527462339402,0.7595265809463784,0.8359251410603109,0.8868248197026725,0.9181539383823337,0.9373985799277311,0.9513206114937208,0.9620926439137294,0.9690610376042778,0.9728367258018851,0.9740523666253652,0.9730215162277313,0.9718714076486746,0.9706738262704576,0.9696350372580201,0.9703987075023767,0.9737696071208587,0.9777777159732481,0.9806248284285874,0.9827009848585001,0.9848749464360694,0.9848682377229461,0.972914365631799,0.9460377101614459,0.9186064448540663,0.9056068013065173,0.906189602370138,0.9155063203022332,0.9310251692446241,0.9491911983175645,0.9593932320235444,0.9479783839218938,0.9090386401494706,0.8473081981773777,0.7673977097078036,0.6707525745069599,0.5527152163906832,0.411449537863914,0.25534808159278244,0.09851520760536522,-0.045179514688587184,-0.17269256988392107,-0.2942216978607501,-0.41743452210229215,-0.5457975428630784,-0.6624854417354619,-0.7468285969771199,-0.8074336733108143,-0.8566909363742937,-0.8951408380998361,-0.9273259975638067,-0.9539386066248972,-0.9734732570190837,-0.9844271949161679,-0.9861937982978461,-0.9819486150810479,-0.9772941011488613,-0.9751695829800325,-0.9752038792875761,-0.9758494143660894,-0.9716344098834644,-0.9584098583382157,-0.9360681769958726,-0.909726752184101,-0.8852981315100806,-0.8654696756597635,-0.8461591708620966,-0.8234090825558701,-0.8005742415485234,-0.783648370281041,-0.7758711327629202,-0.7788504053168062,-0.7794046623868335,-0.7629308850586612,-0.7127137244785055,-0.6137476092317466,-0.4692185394920002,-0.30952472244156615,-0.16307962792862385,-0.03317370111560645,0.09959230413510693,0.26547024747975867,0.4542311817124705,0.6294283574549112,0.7597191267397537,0.8483840045156037,0.9038296790053898,0.9341284808125899,0.9454579565218985,0.9449546108974872,0.9427913819623593,0.9403355726717101,0.9350016048540081,0.9231291655745498,0.9078844745089284,0.8999087386750656,0.9054816093284639,0.9247568713428475,0.9503254899667629,0.9723341824118648,0.983293827523019,0.9866320578611188,0.9895180240908378,0.993263985638625,0.9944948468702308,0.9927985295320444,0.9888336723858955,0.9840990659138033,0.9793696801694304,0.9762705806074436,0.9757050653879522,0.9756536422771728,0.9735190750195376,0.9650545542797108,0.93842635084255,0.865578837490504,0.7013268612386824,0.43209420858526537,0.13380372652863262,-0.11552497795261196,-0.2814448035356538,-0.3798324657868702,-0.4501340498732695,-0.5219994309190259,-0.6029218659633945,-0.6848831998111802,-0.7616156700193962,-0.8263929496123235,-0.8697741134085946,-0.8912758673446559,-0.9012976620094253,-0.9062382793499908,-0.9078663652001598,-0.9124649594519344,-0.9239357877340993,-0.9416959116988045,-0.9601336756399321,-0.9738896054199934,-0.9805820557376076,-0.9818907298071714,-0.9813257721705526,-0.9809076902741666,-0.98168178976649,-0.9802912934348241,-0.9754907563362246,-0.9683179667230305,-0.960892307427691,-0.9554270280661036,-0.9510661072066235,-0.9463943931985935,-0.9294915481666225,-0.8837052521258926,-0.8110036738458349,-0.7259196966246473,-0.6435577477661678,-0.5684981953439172,-0.4931109533292452,-0.3975957864426393,-0.24590609542344555,-0.019911270133452792,0.18822492707720123,0.31033943964303423,0.3690600979399931,0.40077823694266107,0.42467341822977484,0.4471897067238117,0.4773681080218769,0.5143521615100323,0.5613805597178247,0.6139220007543744,0.6668924939979962,0.7200854971545018,0.7745807089553798,0.8251787474499352,0.866274364898351,0.8948700744005256,0.9119635578554494,0.9201321687082659,0.9254415134592505,0.9330540657294542,0.9430689450554616,0.9537794848842187,0.9608594743752048,0.9598519008726755,0.9487099136885658,0.9297805461166248,0.9112063092963827,0.9007523889843,0.9002092083723132,0.8984775868286944,0.8853951986685921,0.8531003315690321,0.7944844066738775,0.7062053578784627,0.5915964291217569,0.46956751572872824,0.3539861845665688,0.2488949263593827,0.14871121508141408,0.05071651206034949,-0.05423627766694446,-0.1784799494021656,-0.31142710204314966,-0.42844985342255437,-0.5214457319381887,-0.5934865552503208,-0.6459597593449063,-0.679741245122509,-0.6982461222754602,-0.7052366047438057,-0.7049226059358503,-0.70554012968525,-0.7120550670546383,-0.7272224911059618,-0.751331205894236,-0.7794171365120569,-0.8069006610376949,-0.8276381540335929,-0.8395478352212621,-0.843302078733777,-0.8427685551941104,-0.8435290315374034,-0.8441829013090982,-0.8447179604767248,-0.845803151032514,-0.8473092104199634,-0.8487537328502205,-0.843234768718612,-0.8229174253779898,-0.789843141610841,-0.7523679791565547,-0.7207102931584791,-0.7047742978153083,-0.6903499459661339,-0.6423686421001532,-0.5091145438893288,-0.2869103262299931,-0.057590864134634934,0.14275117603005563,0.32142651831024005,0.4779079276598592,0.5872700787296082,0.6316185477195776,0.6230948434047014,0.5911611970040066,0.5710192762563332,0.5758977554062624,0.6052871268139042,0.6582465936938441,0.7285522304149968,0.7952525083642579,0.8418188380979383,0.8664554634655293,0.8804602678482397,0.8877938525475683,0.8905519398429358,0.8849660313686883,0.8687717998604338,0.843284017071648,0.8135575154298378,0.7830285511893981,0.7551850143018618,0.7348141105782665,0.7235372455339719,0.7203860861682371,0.7227328474371867,0.7255007131399627,0.7243453921802253,0.7209459007459075,0.7150470443118008,0.705049592945776,0.687113270394169,0.6645291632947478,0.6325655300141626,0.5780624571862181,0.49568147102588117,0.40138748520135087,0.3201240520045076,0.25118028989929947,0.1508834177180917,-0.027077339312314312,-0.29078727451084607,-0.5547808044490182,-0.7241464093027457,-0.8124337602552945,-0.8541963086311332,-0.8670324708437055,-0.8602994956520905,-0.8457303675129559,-0.8349311827395103,-0.8349342226084124,-0.846194291535638,-0.8657682897165698,-0.8898376832732297,-0.9118348722006877,-0.9285600760287518,-0.9376093080316263,-0.9401411768772119,-0.9382644144518759,-0.9346602147643067,-0.9302873983215288,-0.9231537767851342,-0.9119457819458647,-0.8967486449106207,-0.8822953912834076,-0.8760889691357965,-0.8789419869741822,-0.8832594582622344,-0.8814226683160177,-0.8692885310031073,-0.8491644454775189,-0.8314801385977568,-0.817353126284524,-0.7958308895543192,-0.7523796038534829,-0.6745759554079913,-0.5706990256132115,-0.44280652977397233,-0.2057863502386964,0.18260393552378143,0.47119668127529657,0.6110984366854099,0.6730581106177643,0.7089910922896909,0.7512496756603532,0.8093985169439784,0.86768904495636,0.908228973352191,0.9263183369215121,0.9280278346913999,0.9216394711530173,0.9094547629577627,0.8932610949200275,0.8786877950855935,0.8764868797368142,0.8899789332591929,0.9153067461940848,0.9426904234068376,0.9640952215277783,0.9754954500853729,0.9743457640608733,0.96061806762266,0.9360172933950155,0.9054068306128595,0.8780660245793701,0.8604382994698834,0.8577139019694967,0.8667162983612026,0.8805225231081811,0.8886994185606664,0.8834503602795186,0.8537878673027824,0.7896669010040483,0.6944352123792088,0.5824912120661941,0.46858506034927844,0.3552537719280287,0.23156809586365087,0.07775464149478115,-0.1345997814036211,-0.3816436865129505,-0.5867178148700565,-0.7248020610594117,-0.8188822375021272,-0.8742844494862476,-0.8956447939643088,-0.8946310662463883,-0.8851377648278151,-0.8779626175357604,-0.8769162421643171,-0.8790557201406066,-0.8812913484724212,-0.8883365635035368,-0.9033737331354837,-0.9238760785859527,-0.9414137235858508,-0.9482109401998943,-0.94775516186134,-0.9444116749104322,-0.9372263851128427,-0.923571992870215,-0.9048575365778244,-0.8911574660909579,-0.8926879576115658,-0.9105164743076563,-0.9349086294290314,-0.9523286445343437,-0.9608461148622718,-0.9639240807373115,-0.9626077987971722,-0.9569859821348891,-0.9435812201475225,-0.915133471168179,-0.8661025815334517,-0.7954655930306876,-0.7013292254648967,-0.5768307102673861,-0.39177600488838166,-0.1047842444677691,0.2476893443607652,0.5571241282127081,0.7483132453143903,0.8449662849105113,0.8846663497573042,0.8910546515464396,0.8792010425436348,0.8572567092185561,0.8337139986852367,0.8161756991011526,0.8050912565141698,0.8010505655495396,0.8002288127862169,0.8081578694983652,0.8272823258740375,0.8550779521401958,0.8842724649631304,0.9078689187781229,0.92433833594659,0.9352132141443978,0.9413968758698928,0.9407432426085569,0.9294214642411398,0.9113005931413752,0.8983543225776791,0.8984673241771596,0.9104871313636779,0.9303719956135873,0.9529562088244569,0.9709754327521173,0.9831932112766363,0.9823245889356171,0.953222260985118,0.8929983388546961,0.8272740816605771,0.7848192817803721,0.7451677394661532,0.6447529146077388,0.3818544510717393,-0.033155241234592125,-0.33055792517520177,-0.4679620079611061,-0.5465270388950354,-0.6131409493742844,-0.6714379185457108,-0.7267411847324243,-0.7810147609916875,-0.8292110692790468,-0.8682713636598616,-0.897036597876656,-0.919615976958474,-0.936568299124151,-0.947302306802694,-0.9556351107775533,-0.9605113978307847,-0.9609731448025013,-0.9594978762623978,-0.9580773350594628,-0.9567840246465724,-0.9571986045101304,-0.9593330475736063,-0.9617858211680587,-0.9612403438135745,-0.9556078583132462,-0.9423748417859524,-0.9222397421420425,-0.8989594310608883,-0.8791292014987258,-0.8728003262558425,-0.8803828740750834,-0.8913212869625141,-0.890509281894944,-0.868771372884245,-0.830145810631377,-0.7740926800944384,-0.699816055931857,-0.6048536553594303,-0.46934393439554867,-0.25941655661862223,0.01659740653205224,0.2884982421211686,0.504154904646254,0.6550180307354949,0.7508874355124998,0.8084024518925371,0.8441552411072438,0.8718820958353446,0.8976251651964683,0.9214813830027838,0.9401958704187459,0.9491412384625697,0.9507496218418431,0.9487860569660027,0.9434757467503365,0.9381474422116637,0.9374816644849606,0.9444923357618581,0.9572040605986333,0.9676756599705926,0.9736411307015389,0.9781517330881252,0.9819697572395552,0.983963505820104,0.9839074858164466,0.9814540066995072,0.9775174760333869,0.9718737478042278,0.9623840656628901,0.9496237209155228,0.9339288388601924,0.917695912796604,0.902773170280946,0.8889124078304831,0.8579090943100937,0.770705526459248,0.6121079039057132,0.441212587525106,0.32064199325934567,0.2551806078083152,0.22916263181377983,0.187094130388319,0.05463484742712737,-0.22204610624208787,-0.557064300089182,-0.788787742222949,-0.8962122846738083,-0.9364520263474045,-0.9498109780149024,-0.950569444461973,-0.9421891290689646,-0.9231213245660553,-0.8971977579210074,-0.8785434387033307,-0.8736950271541698,-0.8806443773947994,-0.8951085259553836,-0.9109209206316405,-0.9248117002958434,-0.9334193389896799,-0.9327169419726443,-0.9207080500526523,-0.9014039225663963,-0.8868275322221074,-0.8900558270406811,-0.908012480137386,-0.9340095117864282,-0.9586268991009006,-0.9754054851542918,-0.9817949493166623,-0.9790279855739651,-0.9689364928210823,-0.9513964146342496,-0.9300935606641579,-0.9047125724284024,-0.8648863726620741,-0.8069240446677882,-0.7355282405107941,-0.6508627094272009,-0.5346085189813695,-0.3659985694949533,-0.12106175695349182,0.17369675810952148,0.41895209447523657,0.5677171867957912,0.6582222421482719,0.7229027017135551,0.7684611947182765,0.800634462467142,0.8274838177961743,0.8462207238950725,0.851753328065754,0.8546231110433793,0.8624126424695389,0.8767213561544646,0.8962006902683702,0.9157288814782379,0.9335390846120237,0.9485584623597205,0.9591698887806676,0.9658922746703957,0.9725846500708424,0.9797564781910546,0.9852246809831358,0.9841640443362569,0.9743566576496945,0.9562292754844043,0.933551780891221,0.9102648550544367,0.8902704918991262,0.8759736679749661,0.8669564944178275,0.854389039759788,0.8272773628595222,0.7738851099824625,0.6841334463756658,0.5384677574610841,0.29756280129400847,-0.042954760928540656,-0.3881115106994512,-0.6406475856488673,-0.784654186044761,-0.8611119598495731,-0.9098951300863046,-0.9471722838342047,-0.9634028721497777,-0.9542621441309455,-0.9328908994385546,-0.9163599822200701,-0.9129660977377612,-0.9219734226503162,-0.9379694367229339,-0.953378810783377,-0.9630195186068043,-0.9647364723498332,-0.9612270944286729,-0.9574208265770121,-0.9568624791138675,-0.9575219780795533,-0.9572741879350425,-0.9579143799726404,-0.9608422119179234,-0.9652010678484323,-0.9685005171857625,-0.9676900594329045,-0.9617103588119098,-0.9489770959977378,-0.9239867953125455,-0.8818760990048661,-0.8320394284973096,-0.7962873973242124,-0.7899180814168737,-0.8036340606662961,-0.799149984125785,-0.751174454287754,-0.6750230554348436,-0.5974732587907775,-0.523536757205044,-0.42809978108806446,-0.28398139921030147,-0.0607961421577808,0.21909853763002132,0.4590132365672651,0.6048369133404868,0.6842885740313784,0.7345340959838887,0.775522073564726,0.8157500360935739,0.8554306656247405,0.8865312248106152,0.9083847821765276,0.9216515972897675,0.9303591089498705,0.9376725137049099,0.9455283483071977,0.9483487135944214,0.9391461409962218,0.9191830611617053,0.8982646489952251,0.8846636577105482,0.8823320703973186,0.8868514159516944,0.89280290619391,0.8945782490932782,0.8910202210530603,0.8853977622258015,0.8844402149339229,0.8936675433080584,0.9080666545324748,0.9222528586353101,0.9311200322566225,0.935985697300504,0.938321168446978,0.933368388353484,0.9189014198665652,0.9016360132100855,0.8871069137434862,0.8678194049767217,0.8233338355932889,0.7042132745756273,0.4467785743573449,0.05900272517790851,-0.269085334957645,-0.4669075477498438,-0.5821848817701895,-0.6494448509945208,-0.6895381636790504,-0.7086768333772576,-0.7186646319921076,-0.731961473987507,-0.7571306940225111,-0.7826303802622836,-0.7924480629355732,-0.7778608785856286,-0.7469293596606286,-0.7202329706636609,-0.7083697244596422,-0.7114169353796626,-0.7294633706340921,-0.7601655004766962,-0.7955312262563762,-0.8206687960018118,-0.8251295419261475,-0.8119315841182556,-0.7970150264496985,-0.8001249811434762,-0.8306642522381492,-0.8841837431220873,-0.9366693348107344,-0.9614151881011217,-0.9588278610721762,-0.9462694793386721,-0.9298853265754394,-0.9042462210268885,-0.8558958277013016,-0.7781260596195412,-0.672955238464649,-0.5557154953129748,-0.43987914270499234,-0.32511374927957337,-0.18695041268956922,0.02082332661142028,0.31202598364621087,0.5926273533315536,0.7433239205663832,0.8056619124053459,0.8433589072675673,0.8598093691446956,0.8430919655053255,0.7917974514869929,0.726161676921739,0.6755879243169267,0.6591175913282454,0.6865847132717965,0.7458823718616379,0.8080867762427251,0.8534861840690156,0.8827092353443362,0.903816957800687,0.9209586122778375,0.9328649075566925,0.9405210274639518,0.9446839292074718,0.9459034608883774,0.9469698734492596,0.9490346117216613,0.9508977662620961,0.945736677681132,0.9260226319608468,0.894655878167465,0.8646686264676128,0.8384498483467311,0.8080379518880695,0.7748553058107956,0.7458490725944582,0.7170504974550793,0.6829979469566092,0.6152656309693646,0.4786038176757802,0.30273076707312085,0.1548904359439278,0.035863950890410064,-0.09656202565431135,-0.30001823982576625,-0.5664530459192885,-0.7682272662498312,-0.8601330481115222,-0.9008432318505254,-0.9234879342969001,-0.9345643308790192,-0.9378575279212453,-0.9391377560097893,-0.9424267642009242,-0.9506536556760702,-0.9617967350689219,-0.9683535514370591,-0.9652872489315463,-0.9595758444849665,-0.9594299624849385,-0.9644817664311445,-0.9704340326165347,-0.9727908570318166,-0.9677067661916813,-0.9489358189221158,-0.9186791779538863,-0.8920414611835655,-0.8785853838046488,-0.8812442339929871,-0.9011481179216513,-0.9312597824741877,-0.9563158542317713,-0.9560250756250993,-0.909084946334855,-0.7812543255016754,-0.596266790069327,-0.43584667109995007,-0.3339517712704024,-0.2721300316184334,-0.21507434119929655,-0.11514458261416483,0.07072043789872584,0.3414329907257743,0.6118464333393946,0.7852082817451231,0.8628338308225552,0.8847356695581852,0.883215998760059,0.8808250238773485,0.8948098986706314,0.92167599122229,0.9455846869698369,0.9584042905115009,0.9626921110228321,0.9627233113450397,0.9617440608759167,0.9614473085822709,0.9619769635217535,0.9611595866788974,0.9592455679723749,0.9571773178121789,0.9556180827400489,0.9549275385682877,0.9526400722339711,0.9424018929521433,0.9242176599496799,0.9044148275372298,0.8947400854605853,0.901266531582241,0.9148412798129365,0.9082965573008565,0.8626519332385556,0.7853303024951535,0.7023207496544374,0.6315908800082773,0.5648159605193696,0.48743941483794545,0.40105256602807876,0.3162516733943818,0.226669928994178,0.07145385453810854,-0.2391685082224653,-0.5792040927938356,-0.7226340593797241,-0.7566986952894111,-0.7645800317136652,-0.7829404793769309,-0.8130874990691407,-0.8453990368696982,-0.8675557238064249,-0.8725365492762746,-0.8718830587361566,-0.8780611511767517,-0.8964424872149916,-0.9197512436813731,-0.9355500741129555,-0.9476575204756648,-0.9595103797622769,-0.9692227944338909,-0.9767882540629661,-0.9822436456191994,-0.985771604509334,-0.9879419293210835,-0.9883521831000995,-0.9876861254046821,-0.9866694369483479,-0.9818891414167413,-0.9714472719460541,-0.9644968727219024,-0.9673977093965739,-0.9757844152109747,-0.977400644020409,-0.9660396372202014,-0.9470619742842104,-0.9272851449647361,-0.9068157387792006,-0.8830986166306211,-0.8423152478437372,-0.7487154360040384,-0.5556484426596581,-0.280631692382297,-0.01428989032714585,0.16512684702717165,0.255474041940669,0.3116112559739052,0.4008156489977724,0.5257070208615813,0.6447023454512477,0.734045687432675,0.8041731138013631,0.8561306395327186,0.8932163263973407,0.9168992562073541,0.9295030876128897,0.935229183179528,0.9376664586717243,0.9398043989845659,0.9450565364369354,0.9531347973726291,0.9622755382680991,0.9702591984565136,0.9739508772933781,0.9730864285744572,0.9680525000545266,0.958561801171424,0.9429131752710274,0.9235172396137271,0.9049792255391428,0.895124780365028,0.8984626710830962,0.9117408356326748,0.9247335249115246,0.9307912562546242,0.927786816003665,0.9165971959139345,0.8951951470964471,0.8616762393266773,0.8093028315962019,0.7363164781028889,0.6164241931479694,0.40068536283895206,0.04255965659326916,-0.3053665332275962,-0.5186898614146591,-0.6422642573790006,-0.7144057921383683,-0.7584882804960765,-0.7926522373814657,-0.8318389308071111,-0.8827966125722995,-0.9273485706830612,-0.9484155714400478,-0.9483936917804996,-0.9370609928656934,-0.9210948727798102,-0.9081872527084082,-0.9100101061995425,-0.926695824287598,-0.9499304294211774,-0.9691272683030887,-0.979652381074565,-0.983067955155317,-0.9820694285477292,-0.9788917680098551,-0.9750990871764428,-0.9724578771125355,-0.973346144230713,-0.9749638652708694,-0.9682654522224823,-0.9513055740997873,-0.9326815094418056,-0.9165400306678251,-0.9002526361595939,-0.8796785788658437,-0.8570186680420331,-0.8310691536512406,-0.791537812209043,-0.7368137960775878,-0.6634682063853038,-0.5616182062464061,-0.3964953253251421,-0.11296670350286094,0.2672793935936712,0.5650326129884254,0.7210872809825071,0.7932174296567103,0.8198347130721688,0.8304303594822412,0.841750957797024,0.8544620233507383,0.8633328799486751,0.8696713429533085,0.8741592289427736,0.8807973726367357,0.8958081505884855,0.9136935905017396,0.927233681157227,0.9370470784075272,0.9475341040470786,0.9596513514403304,0.9711600894212099,0.9803236629745697,0.9855966470046396,0.9884637160763206,0.9898266326420513,0.9881722803585682,0.9814949903165585,0.9697950846108457,0.9584169011340574,0.9511165142600885,0.9461648565478519,0.942756490726687,0.9425281709843162,0.9470978252773226,0.9488240045361913,0.935747634287976,0.8993113377754325,0.8387380601115156,0.7558446641718791,0.6519916554684415,0.5082925709741848,0.3091010454768567,0.06835499849461651,-0.15507091891815666,-0.3180589984394149,-0.42644422617555894,-0.5061191561257403,-0.5698426382610812,-0.6216027077656071,-0.6667061808674327,-0.7051212196887429,-0.736842926897885,-0.7633801920355522,-0.7948330051875693,-0.8258313877315286,-0.8462456621312582,-0.8593769199230611,-0.8725223713425664,-0.8871918096395243,-0.904775966531152,-0.923703459713292,-0.9402969249206451,-0.9536491736834597,-0.9668053996148961,-0.9814465738860672,-0.99033417417728,-0.9869978695486348,-0.9761366294019008,-0.965781259053923,-0.9555059065589003,-0.9423956164197457,-0.923009547216437,-0.8927914834153168,-0.8536413624972938,-0.8127423631169493,-0.7747959097487893,-0.7402642606342731,-0.7054156029149378,-0.6570101502229023,-0.5879150875466155,-0.4973494801847001,-0.38706818052079345,-0.25044150086363237,-0.05429079822718939,0.22350902220638974,0.5544712172194569,0.7953092928116313,0.8879270731707518,0.9135313421629565,0.9212921041054078,0.9219788232029937,0.9136731135880158,0.8973730678064064,0.8809764718079129,0.8695895393197361,0.8562855218278516,0.8370347106025996,0.8188848796497665,0.8131533782656135,0.8201784500574687,0.8347408403792267,0.8479798233704305,0.8581766795172772,0.8653068290636377,0.8763749767260315,0.8943718633218125,0.914342678450007,0.9289992456206435,0.9380106921901483,0.9454663277316592,0.9524807026200328,0.9555132775805926,0.95167736441584,0.937803945692945,0.9169785568735171,0.8918077760572736,0.87607124931175,0.8632008587091586,0.8318814780222703,0.762057192219924,0.6628905864077805,0.5349945125380037,0.36908924932833376,0.1646096508209842,-0.05449505461367662,-0.25127556619603236,-0.39728251956110233,-0.49621535381395065,-0.5743099354228307,-0.6368587013255997,-0.6866746973073907,-0.7296788817829861,-0.7637950225813812,-0.7776180428841234,-0.7886160774169823,-0.8184431184194483,-0.8713654220949706,-0.9250962859000814,-0.9617586503962557,-0.9785750384733699,-0.9818493092185658,-0.9796634112884265,-0.977295163332927,-0.9764065078778325,-0.975730948565629,-0.9752774057960992,-0.9756911583664346,-0.9774524280201876,-0.9792702080323736,-0.9791112440651082,-0.9741264949418067,-0.9593747548775083,-0.9257865321942961,-0.8641197299206126,-0.778487896288992,-0.6832397633480642,-0.5997317371608447,-0.5383656934371189,-0.5099372458114184,-0.5124468094313864,-0.4908194543992536,-0.2998604865003435,-0.05345295949859138,0.10752301603162999,0.2155172274732289,0.30327722758220965,0.38700520677918865,0.47466985740317885,0.5603990154232955,0.637725151729396,0.6987275453604973,0.7451396306040783,0.7807831247509534,0.8028101726554077,0.8141619826975566,0.823179967873302,0.8344952589193356,0.8491568099620792,0.8690926564519749,0.8942964109421182,0.9204850589672486,0.9426336009021131,0.9584505894743188,0.9673887265114057,0.967524850187178,0.960948546496584,0.9523782995845416,0.9406308066095078,0.9197476923304861,0.8848002256649726,0.8350897961961417,0.785106851442837,0.7534166922646565,0.7524161587278809,0.7692291312569388,0.77798673799257,0.7511318896687947,0.6709935552747539,0.5551407298084996,0.4543612152340366,0.38646324971753104,0.29843964872564316,0.14057720498842846,-0.10839388661421805,-0.39573727074461246,-0.6281100664468928,-0.7700312170443561,-0.8531943358697502,-0.9041098718390206,-0.9323597970559466,-0.9445199505148774,-0.9466521552451956,-0.9439611740586407,-0.9420310459290954,-0.9423942268545951,-0.9423423507496359,-0.9441832789819338,-0.948792382842742,-0.9539191018463844,-0.960208987209707,-0.9662451500976244,-0.9682269587165866,-0.9644595476313739,-0.957488255221057,-0.9479540554179914,-0.9348545088348746,-0.9166996776990658,-0.8974220297646807,-0.8847554207349748,-0.8772463320594099,-0.8705425160069685,-0.8577654338699049,-0.8284047189496735,-0.7827741526522181,-0.7395898468601256,-0.710188673768497,-0.6863212464937308,-0.6466860955549231,-0.5727857177441669,-0.4277098896340637,-0.16652208066965069,0.18738134612197885,0.4969477467543037,0.6758385946151988,0.7695697735322918,0.8209270699221015,0.8585541321814029,0.884969990078566,0.8974042248749318,0.8943583845423737,0.8810615360231369,0.8659232379147517,0.8568648069727021,0.8578644487975073,0.8706447715175064,0.888487851560341,0.8972182894765386,0.8948344074267727,0.8860157633845943,0.8751569173752712,0.8667113939426957,0.8604448121693465,0.8524301288963586,0.8411527706409123,0.8248567026905996,0.8022808134601643,0.7769182470679447,0.7573262719169928,0.7529146032509542,0.7728271972613433,0.8175133086231937,0.8835687373773575,0.9434849249067998,0.939853498369408,0.850590932198641,0.6855783306652417,0.48035796588804974,0.2990334722437316,0.17456884060592992,0.09955713737302282,0.04679241056287673,-0.011792528455533082,-0.08848042865337029,-0.17835056019363557,-0.27732452712108824,-0.38795897382329864,-0.5052732900893833,-0.612696748645944,-0.691951090551854,-0.748266122115925,-0.793116943679037,-0.8308038397602119,-0.8577312249672104,-0.8638502190299484,-0.8505797036755356,-0.8377243741971409,-0.8458535587210881,-0.8731970403858343,-0.9072666012855501,-0.933924947332963,-0.9471178537732866,-0.9476882335841887,-0.9413070287334083,-0.9331699056430146,-0.9249731853704019,-0.9170843019025557,-0.9076643235828411,-0.8936938657804046,-0.8747103576536669,-0.8482229020960419,-0.8161986112944001,-0.7832690944067492,-0.7563148542292917,-0.7451379092658704,-0.745265169003723,-0.7438012595565631,-0.7312258066254662,-0.6695813188550492,-0.4276377053194297,-0.025765275354800058,0.2819819419854327,0.48544810547022166,0.616259701580981,0.6962861642949042,0.7486045224559611,0.793537340501294,0.8340869266078418,0.8712491747478427,0.8973646788127335,0.9083490933461643,0.9102226536064734,0.9100488965009528,0.9111023060654243,0.915750756939342,0.9260232886910246,0.9399114261348896,0.9523484861998635,0.9606288616243712,0.964406491541179,0.9638605673016389,0.9610380499510477,0.9564360032073352,0.951935345562358,0.9494283533599206,0.9500688013265983,0.9537391143271203,0.9569924745367411,0.9580852147973984,0.9561579608547143,0.9527225843716989,0.9477951611061849,0.9341095813373391,0.9088961548627429,0.8789011513927468,0.8532084067791151,0.8157431503988528,0.7571948652358922,0.6563267225405605,0.4650318662501371,0.09956103004401215,-0.267984116753505,-0.4986928965519571,-0.6428455826084506,-0.7293622447720597,-0.7745221001266437,-0.7869436944308595,-0.7848688669716728,-0.7836619924228558,-0.7912291941569233,-0.8122223279684335,-0.8436401682455327,-0.8741639370970702,-0.9011126792654621,-0.9242627182241757,-0.9426566277030768,-0.9546011064763592,-0.9612188597683575,-0.9637221784336429,-0.9644950094201682,-0.964069782235857,-0.9632519240156487,-0.9618516575490563,-0.9581477873226487,-0.9542121446582161,-0.9549809330896826,-0.9639438772214096,-0.978004332067885,-0.9902094773859763,-0.9931141968331404,-0.9824665388735808,-0.9641274073397508,-0.948680155058171,-0.9431731310227611,-0.9397732014793996,-0.9281705015986492,-0.9024869255365479,-0.86112376729331,-0.8034791849918252,-0.7068051221153769,-0.46695701389898375,0.022388708400085753,0.5468199690937025,0.8298416772611841,0.9292951400979378,0.954108515452081,0.953686833399467,0.9430388627284205,0.9265304972525846,0.9131990665838199,0.910951025702368,0.9190500461143319,0.9330159027725737,0.9459169824185643,0.9479792444390093,0.9385110443357594,0.9266545494970184,0.9246130490401079,0.9347878550046014,0.9512525800251584,0.9676614145858086,0.9809448573840962,0.9889017528730029,0.9936546479751635,0.996427889332552,0.997436923720248,0.9975316007552878,0.9975860392467856,0.9970985011574799,0.9957961630971879,0.9947128115057108,0.9939052296801394,0.9915136550092709,0.9883758465374357,0.9850349367395296,0.9801570917473738,0.9726597213382797,0.9612008123449675,0.9467020402961694,0.9277586305684848,0.9037739301001418,0.8528796052327224,0.7186668388088087,0.4344354148286074,0.06765170751602134,-0.2074011091364827,-0.38168836947029555,-0.5154228183387191,-0.6292862114407113,-0.7163504647341989,-0.7822609497760983,-0.8320893413425712,-0.868675462986807,-0.8943119987234869,-0.905503649318186,-0.9030768734082902,-0.8940364211439087,-0.8883919843496934,-0.8889193607458953,-0.8975842749267995,-0.9151091990779904,-0.9367951885150356,-0.9551499318695345,-0.9677883387266445,-0.9743972664646484,-0.978878338332959,-0.9851388232836941,-0.9861767473464543,-0.9705752942829092,-0.9402583798208458,-0.9056725353258704,-0.8619006912044922,-0.7870732413461967,-0.6898381303607755,-0.6049259966421505,-0.5373636132809003,-0.4619401242336334,-0.35847687040050136,-0.24326752130651025,-0.14369929910134024,-0.06645922341747176,-0.0017410084966759613,0.0755037115531956,0.18173973341904684,0.31015082455138787,0.4328154309573698,0.5452401266971868,0.6461790584937308,0.7206749145095164,0.7596402127173834,0.7754042619246889,0.7905763368660894,0.8179476441881407,0.8494188361047631,0.8755506596614272,0.8926845261767443,0.9060703813279054,0.9205684764903292,0.9350904172262223,0.942890102070729,0.9410542902542648,0.9328420632975001,0.9234313849186683,0.91634547616074,0.9146888833016578,0.9175612379203701,0.9160523551662859,0.9048567507618995,0.8829742675988782,0.8438865370527127,0.7880701216054334,0.7355570379486019,0.7128014188925854,0.7337463143825588,0.7741350420611209,0.7128898871528014,0.5067649485327601,0.2930200305936758,0.11413218343421476,-0.04754409987869538,-0.18773866707426268,-0.29091564392012736,-0.36946144668012537,-0.46158036715565676,-0.5702166297807825,-0.6842423731211431,-0.7822559097823479,-0.8470594943134242,-0.8837008887250081,-0.9080203515172501,-0.9291019130750477,-0.9481362230219166,-0.9599488588031657,-0.9575959809893441,-0.939134815439792,-0.9131589438838182,-0.896840794136769,-0.9015882108531389,-0.9225894049503183,-0.9481015854893178,-0.9685127601225277,-0.9799352822344974,-0.9839839691233422,-0.9837130306577825,-0.980057652968998,-0.9757898532184689,-0.9746950121857217,-0.9646330545474332,-0.9082995678335986,-0.8021559847333339,-0.6980185471684255,-0.6265157189061203,-0.5838885074584909,-0.5613497284796192,-0.5491792067238082,-0.5306097568393084,-0.49230671673556575,-0.43812602446553595,-0.3736592281045899,-0.27631610488758784,-0.07113189927935945,0.18938210547909407,0.31831148988349944,0.362982838918865,0.3939144709156996,0.437047082328004,0.49036182441461373,0.5463957984664257,0.5948463752102284,0.6349639560965216,0.6662874929616476,0.6890053068860046,0.703205427344345,0.7114141389391503,0.7155762750191086,0.7213949825923452,0.7395316306973893,0.7692289736578257,0.8043985796420908,0.8393341532586601,0.8749716891475904,0.9115503799685857,0.941406685986063,0.9585023505359608,0.9638220554168505,0.9630112053431397,0.9606869469920152,0.9581936344286365,0.9500782326845025,0.9315126022245425,0.9074694213740021,0.8915124180729725,0.8882346723561705,0.8916923963430448,0.8948700231484571,0.892702668540515,0.8819502577106577,0.8572651151984506,0.8075048055401903,0.7211919885094319,0.5983295447608203,0.42782704198936733,0.17835615934657365,-0.17195561065706494,-0.49997463330531355,-0.6802472136560556,-0.7728062045856198,-0.8364520154710716,-0.8846036918635672,-0.9160095781200321,-0.9308908986414363,-0.9388172449278734,-0.945221611357059,-0.95087060481306,-0.9527951319056913,-0.9493721107082728,-0.944614088987588,-0.9473822478751643,-0.9559384044812604,-0.9622642667937529,-0.9666068497819693,-0.9709643313333134,-0.974964410191318,-0.9763146753878047,-0.9730793179934876,-0.9649872492026483,-0.9537915669428613,-0.9439144993799229,-0.936317786447394,-0.9243932244624512,-0.9019469277206952,-0.8731980242558988,-0.8497232085524197,-0.8414365322717702,-0.8475582780368789,-0.8562202419927603,-0.8515039794213896,-0.8171728854676463,-0.730594187896794,-0.5539043816433925,-0.30354404642209454,-0.03392055622943923,0.18594865565164242,0.3207831882094726,0.39229166743068933,0.4384241532050234,0.49612555687369475,0.5928273940729291,0.7097322583961568,0.8135029735195651,0.8834355009392243,0.9227469230633254,0.9443368312280833,0.9552760609470854,0.9571261798681311,0.9495519611501747,0.9378822184882436,0.9313034654766636,0.9340513646666581,0.9428470052940323,0.953025268486865,0.9625803621598837,0.9714923238706249,0.978897506614283,0.9859661308347633,0.992777425659025,0.9972825390141804,0.9986102100355548,0.9984046184971269,0.9971479903171255,0.993099123283483,0.985591869054755,0.9765846417374032,0.9703479639458165,0.9646791555863165,0.954154300675914,0.9314904329026854,0.8784439261044966,0.7536799276667029,0.5148560081478292,0.20363925980975525,-0.06541176398578911,-0.2718970838612609,-0.43357772972898073,-0.5639684260802387,-0.6575188286752889,-0.7201887735325028,-0.7674292046920438,-0.8046228168128325,-0.8337443929311609,-0.8596894212816627,-0.8808461056874622,-0.8964536614240303,-0.9052270762317219,-0.9101879072771331,-0.9142298846994699,-0.9218456898986868,-0.9353337985453547,-0.9521693274596347,-0.9670730171424182,-0.977603266676057,-0.9838434323902797,-0.9864830041461573,-0.986224685407778,-0.9855793929269651,-0.9886360604782634,-0.993996258681168,-0.9945763918780787,-0.9891840948806536,-0.9814299868526591,-0.9730490406114256,-0.9641539654307506,-0.9547434346684917,-0.9474775084017836,-0.942709514716367,-0.9374152193805444,-0.9208307283267266,-0.8778642468193765,-0.8040903541160218,-0.7030223641669097,-0.5759028482624817,-0.41740042665114113,-0.1967554705540982,0.16507367208385104,0.5649993717472468,0.6673377118049282,0.6265612996699619,0.5825835682758995,0.5540317079840353,0.535789085570439,0.5378859438467932,0.5601102865143145,0.5939353343140373,0.6297766942807167,0.6705097912560233,0.7184761200879385,0.7735111497373826,0.8299737840557844,0.8858408431464944,0.9368107239661241
