-0.9835727929901714,-0.9796873083039838,-0.9782210503973112,-0.9795451101414687,-0.9830397359013292,-0.9864569701154683,-0.9876855403595205,-0.9877511020970221,-0.9884327609256656,-0.9904638864532712,-0.9930713825498413,-0.994180918342286,-0.9930724831534019,-0.9908612526865261,-0.9892757115101292,-0.9875532990104898,-0.9821031703584198,-0.9699000190629291,-0.9508473998293565,-0.9305690996987085,-0.9164825497398187,-0.9079543784543644,-0.8918544944370598,-0.8582451083610749,-0.8021579623074728,-0.717291044829158,-0.5755055857982668,-0.3327519017905988,-0.002076352218603506,0.31050418178029005,0.53408868747189,0.6983757515722219,0.8217578877960628,0.8942542622868798,0.9295455375309895,0.9442856695679203,0.9508519453553652,0.9529433832477714,0.9555697732425762,0.9614968844001207,0.9700147046637648,0.9772072669277054,0.9816210200977896,0.9842252456633559,0.9872997059592514,0.9911990574730541,0.9946483347213435,0.9962121540169094,0.995834763049797,0.9943679662775621,0.992574337027129,0.9909200366616981,0.9892666869363692,0.9874009697006633,0.9850986017041294,0.9836060956166924,0.9853264860715698,0.9893429879697494,0.9917006942611559,0.9905416992431759,0.9852395782106482,0.9754535160557658,0.956970696778524,0.9177612413489844,0.8453158700143252,0.7291460436207482,0.5287394280178352,0.08735661540414924,-0.49904777790255267,-0.7673195529790342,-0.8536432981992508,-0.8906181077661759,-0.9144685255573904,-0.931879735285352,-0.943797669609056,-0.9489725876342509,-0.9507748418550819,-0.9522905102425008,-0.9544658820982044,-0.9564476997809465,-0.9572787207106545,-0.9579970412872887,-0.9605319475597289,-0.965904603433709,-0.9717267569561956,-0.9748655579153704,-0.976146691923315,-0.9759876745253531,-0.9758205615420588,-0.9772383120969984,-0.9789024254207447,-0.9794701958495651,-0.9787911873293451,-0.9801275441665414,-0.984576077896558,-0.9877730013676191,-0.9877553070545741,-0.9851117430982553,-0.9793995734287414,-0.9704954674300263,-0.9581419804093513,-0.9293984134094169,-0.8594947464398784,-0.7181537209425224,-0.4871647215112268,-0.20125034176488732,0.08212182326492315,0.3382851550871833,0.5305083703708569,0.6345745786814364,0.6907759277981016,0.7361849684797269,0.7823989862025379,0.8331452185902098,0.883434765001519,0.9228115082768168,0.9506073709852769,0.9699476825955977,0.9812359807549225,0.9871723234818676,0.9898763132943601,0.9849625151545603,0.9694258964713397,0.9479137301758309,0.9306022589756855,0.9258193453773943,0.9332426197249173,0.9490758709694218,0.965299470488903,0.9773655207677783,0.9846769131967653,0.988345053725815,0.9896967407824618,0.988801889672809,0.986860970406408,0.9853894865888145,0.9852446974941511,0.9850448727124608,0.9851498461710841,0.9841994595042245,0.9781986230749463,0.9657951879709459,0.9470643791247912,0.9167489169279142,0.8577551316704395,0.693741332970247,0.17271291066173308,-0.43712784968969054,-0.6808209453437317,-0.7701052143557049,-0.8022567510552154,-0.8128292604781594,-0.8193704167574084,-0.8354034140578617,-0.8637585453507944,-0.8945574418299175,-0.9210574477665843,-0.9420754108252739,-0.9561985159384365,-0.9630647546020182,-0.9629635940815682,-0.956792939638418,-0.9468880705759597,-0.9387400185337078,-0.9381141941311024,-0.9461331053262494,-0.9599525038557668,-0.9739788037412025,-0.9844965597465114,-0.9891962557314601,-0.9892996052704414,-0.9881981831691707,-0.987327619529245,-0.9855436290990259,-0.9820796648622795,-0.9767039674506102,-0.9710723357275977,-0.9690270252630323,-0.9720934329367458,-0.9752876140533867,-0.9722207067410524,-0.9553340264956435,-0.909248709962198,-0.7834503022837406,-0.5205236607088329,-0.19254015223662754,0.07097700885964137,0.2902452047765676,0.49833039762641557,0.6549977398104713,0.7476081049049371,0.7980086472485556,0.8278488738079866,0.8494792147842259,0.8702172039457549,0.8932865848167428,0.915573474772694,0.934790778040773,0.9497567058008758,0.9588179909783026,0.9643507456327003,0.9677459284407222,0.9708328111055676,0.9752611607148868,0.9806023520387707,0.9851061937871243,0.9874803144617423,0.9886352517180855,0.9893798226660938,0.9888384209223898,0.9867565324420643,0.9832572317499445,0.9798527796445574,0.9778717544545052,0.9785316290890839,0.9805557793205126,0.980313542943418,0.9774709995056136,0.9733489340205331,0.9708695714955703,0.9693123680890637,0.965494410387471,0.9510737891459051,0.9045208142104078,0.796022805333339,0.5772776675817681,0.21415198061706153,-0.17353735266147902,-0.41970309161434954,-0.550938551507782,-0.6424970081518547,-0.7247668789306707,-0.80458594271376,-0.8681178033962101,-0.912778500209862,-0.9409466293676205,-0.958067028313723,-0.9656330273123905,-0.9661619839495368,-0.9631839980294005,-0.9614957687049788,-0.9646713072052614,-0.9715129459959256,-0.978365099450685,-0.9827225214829998,-0.9846595715415039,-0.9846094442835098,-0.983293426295139,-0.9813807787770729,-0.980678331092673,-0.9826809321344443,-0.985658574107038,-0.9858502716271903,-0.9822370078782163,-0.9780310174075058,-0.978055807029095,-0.9827604001604335,-0.9804964163684053,-0.9565945560207871,-0.9136989642362828,-0.8671580615552935,-0.829788562975168,-0.808960233327805,-0.8004708834949361,-0.7680968196638953,-0.6435347702766815,-0.2976351900512275,0.29238488151680203,0.662106987563064,0.7978096708301186,0.8541166201983915,0.8820818770782297,0.89879165502681,0.9119078509591272,0.9190704501317063,0.9198030244478202,0.9161104593815682,0.9106165461704969,0.9084529958185164,0.9111345761172289,0.9186069739994037,0.927991493078498,0.9377348972640057,0.9483863228558405,0.9591344288625071,0.9675117114823834,0.9704905061565755,0.9672060349671302,0.9613046779009279,0.9571512005739461,0.9584563993748774,0.9651083279187701,0.9744934061151966,0.9803403293775537,0.9776734356725114,0.968371222085981,0.9599889787936522,0.9549691236793639,0.9504917122845445,0.9456548179508221,0.9416300656863207,0.9365678352747481,0.9188569883055051,0.8548312937455976,0.6825588038732423,0.3298666113380776,-0.10208458820988953,-0.4161306919387821,-0.6154664046843022,-0.7392508176848636,-0.8117532468087155,-0.8549786383999463,-0.8812460355166891,-0.8938811968104088,-0.8950428483046438,-0.8907096119913371,-0.8890192300118223,-0.897251777272645,-0.9127906895174009,-0.9291319673447583,-0.9436836476374273,-0.9537293588245322,-0.9590735969803535,-0.9610085412290383,-0.9602637387133387,-0.9584000236295162,-0.9581505282829813,-0.9607348294062529,-0.9672149934987939,-0.9763512175916551,-0.9862267130994615,-0.9941265403974231,-0.9967629792253208,-0.9930666804056488,-0.9852003695600416,-0.9759728093861966,-0.9686917366036113,-0.9648517818302096,-0.9610746155448994,-0.9512887729640429,-0.9327558601251354,-0.9078449332006551,-0.87799353838089,-0.8261190297714436,-0.7214200394157932,-0.5310311288763538,-0.22036376890066356,0.16468485463731675,0.496924135385759,0.6756284343072645,0.7579626302581192,0.8066011850675134,0.8407896860285862,0.8593430092236357,0.8692511712134576,0.8789540421668383,0.8871052219477924,0.8938747662332389,0.9027371073873066,0.9115630470356658,0.9162057400572509,0.9191676884583871,0.9248135206782666,0.9356779417053557,0.9500822697055568,0.9637633280720069,0.9743045972684957,0.982163799089343,0.9885959484516417,0.9937996092324461,0.9964552401694002,0.9952449890097134,0.9913160378788825,0.9852723144142326,0.9754102834002933,0.9628534357473284,0.9537748495343111,0.9495822225506864,0.9471854971781993,0.9397778727100697,0.9175837358903511,0.8716018961998061,0.8031355398935673,0.7104050396009005,0.5874011216826004,0.4479893604134932,0.2888871180280077,0.05909953751822277,-0.23415496212131576,-0.49832774490053944,-0.7015963627158154,-0.8379540622798439,-0.9153630602221579,-0.9544344522896787,-0.9719681673441838,-0.9778970902105096,-0.9762544891302322,-0.9697789462138833,-0.961730451894949,-0.9552889881331479,-0.9515857352370464,-0.9500376668803953,-0.9505591359809953,-0.9519111715998617,-0.9543979211035505,-0.9586537391058287,-0.9652212857356817,-0.9723583731842572,-0.9791107674261326,-0.9844584135653572,-0.9879009817576481,-0.9879313370554578,-0.9850154352107188,-0.9823753816838495,-0.9816837553932152,-0.9811369573908992,-0.9790590204647305,-0.9753048484037123,-0.9717158763802067,-0.9691221450953601,-0.9665719121560549,-0.9611386115054078,-0.9501657594037515,-0.933029523183755,-0.8819095377589808,-0.6928035758661478,-0.3384044588331651,-0.028431269429611432,0.2153500513960966,0.4493006616500981,0.6579611533555456,0.8049952099809375,0.8873415259325952,0.9255718375544922,0.9417377120222505,0.9513316383180854,0.9622738727431165,0.9731676547608245,0.9781210590534466,0.9770683455175199,0.9735555888843418,0.9717103467978427,0.9741231860149487,0.9792944035232621,0.9840377118176505,0.9874772739297244,0.9900195889131062,0.9913425790410649,0.9909631664239039,0.9900728886668413,0.9906135219984763,0.9916317486609318,0.9909327319318147,0.9877088120287425,0.9840642178653674,0.9811684989379114,0.9780329478843264,0.9736036109965478,0.9683735654038752,0.9612074629361438,0.9461040344720776,0.9148070080194203,0.8585062083062925,0.7792526156785484,0.6781212852799267,0.5288520734034758,0.28674598883988256,-0.08086216287261291,-0.48474184197710024,-0.7451296510664709,-0.8683135076357222,-0.9256694006175608,-0.9554293220100795,-0.9727374017026992,-0.9836279110440753,-0.9897209915167882,-0.9920797020522849,-0.9929619805805225,-0.993578351286524,-0.9930709753782084,-0.9912838285566687,-0.9889219192064709,-0.9863677965613019,-0.9837266419615954,-0.9823059168193264,-0.9833534145858278,-0.9865776672836373,-0.9896321781074243,-0.9910933989450759,-0.9903933152385704,-0.9865152790431544,-0.9798536824609475,-0.9730090080305193,-0.9686531385111052,-0.965870964439795,-0.9643581937811055,-0.9610598412848357,-0.9538724705342512,-0.9474558485042449,-0.9430654035462612,-0.9377126695258152,-0.9204757466441262,-0.8677088703235671,-0.7605951901340711,-0.588750472046327,-0.35144869429115533,-0.07018277427980335,0.23628320908944087,0.49056026263948516,0.6469532170837802,0.740021903647997,0.8067922219461766,0.8561749664422711,0.8930309695396247,0.9191758672743962,0.9367440674336227,0.949039880929456,0.9570350276458064,0.9641569782768015,0.9702693832774499,0.9755006475164072,0.9783557130702206,0.9792010046317464,0.9800078446854794,0.9810416340203728,0.9825341732859656,0.9856415819350416,0.9891885221873709,0.9921708410805451,0.9945001796760274,0.9940287387480344,0.9870360727037435,0.972190099386383,0.9518540763902578,0.9316479871390052,0.9199544537635272,0.9209338015058426,0.9297577595904085,0.9372869533089103,0.9363953332328265,0.9212205548628556,0.8778258451138117,0.7782799967251374,0.5714783590360474,0.28086710441109664,0.03831325064087012,-0.1033297793463085,-0.20727157924681064,-0.36282761671258473,-0.5570603721533882,-0.7046757819603813,-0.7940218088132395,-0.8481610423295505,-0.8816588968430337,-0.9023781851730145,-0.9194264659612472,-0.9357925971580369,-0.9510670630830922,-0.9638852902206689,-0.97242546620457,-0.97642492752014,-0.9784223777663347,-0.9808301328549492,-0.9839293011956549,-0.9862888102534785,-0.9875229713451945,-0.9880226144943284,-0.9887189488769043,-0.9902771095397566,-0.9923531919173715,-0.9937910976038008,-0.9942512629827971,-0.9928948669965353,-0.9872809860778244,-0.9767681384532496,-0.9650336188926042,-0.9563249872918916,-0.9535544957298447,-0.9575546950888862,-0.9598472593095599,-0.9462619290432345,-0.9112608791004995,-0.8610569749062326,-0.7904386998198275,-0.6777331892630672,-0.4687459695368407,-0.09465435437224885,0.30323320851228164,0.5892579272220482,0.756110101152916,0.8361735004078312,0.8719574295350999,0.8846670119308663,0.8876755534689501,0.8936833214433922,0.9042374923303201,0.9179557317570102,0.9330367309293157,0.9462953280661727,0.9554232783413102,0.9581653550406463,0.9561542323823355,0.9536046712779058,0.9553226127916153,0.9611582903304988,0.969016468496831,0.9770172518385175,0.9841506385284434,0.9902486205697157,0.9945267917497659,0.9958718420539702,0.9939910718609594,0.9889478438626923,0.9811527532306055,0.972051915140812,0.9651710144806139,0.9613696057228467,0.9585147356481502,0.9537439909132366,0.9442185776339301,0.9234921845390267,0.8913587665553656,0.8514121627756915,0.8033291336769314,0.7215806214715643,0.5569937058791143,0.24147572076479593,-0.1803241421388138,-0.5150411589587394,-0.7068091858204919,-0.8153057585169721,-0.8746329492395795,-0.9058025712167727,-0.9238966091146616,-0.937299520281042,-0.945614026614145,-0.9509615408895532,-0.9547491541887185,-0.9566757395599729,-0.9573569891274151,-0.9578701220168212,-0.9599301146060729,-0.9647998055186152,-0.9711709330405472,-0.9775604555911893,-0.9838512798926856,-0.9897455610282611,-0.9942637009578191,-0.9953487557534759,-0.9923986862093062,-0.9867967847147259,-0.9814096428892464,-0.9778620467592898,-0.9748693397326937,-0.969877963241919,-0.9626098240477798,-0.9547560119050502,-0.9510930006948993,-0.9532810543508752,-0.9554336733167833,-0.9528028935749155,-0.947501898448253,-0.9179976492483387,-0.8232124109109547,-0.6688183679936426,-0.4920231060606564,-0.30549910564380406,-0.09561756266578486,0.13379588590571842,0.3453753852126247,0.5234573331561001,0.662013892038181,0.7555086082968785,0.8125968759543855,0.847211012644763,0.8733702692225136,0.8954089656389244,0.9189500609925539,0.941532110134557,0.9587160108319381,0.9693795916127379,0.9748569071836778,0.979245563488594,0.9835126480511112,0.9865596675375132,0.9872454422826061,0.9857341427171452,0.9828444763074516,0.9797628900653599,0.976290164840271,0.9709448542933024,0.9629654137543876,0.9553206012269613,0.9536684086226578,0.9595359280863436,0.9696387118062754,0.979007249918666,0.9828061258739349,0.9821716427773751,0.978302540447803,0.9705003156326896,0.9517059772949226,0.9158774689933062,0.8531859871129747,0.7493188872141532,0.5894657795270933,0.40364751049831576,0.2595846695251139,0.15832779530464944,0.05475566165174357,-0.10283791388859743,-0.3322721653008145,-0.5812246231050809,-0.7637214292880248,-0.8592251581236134,-0.9051931086040051,-0.9292610191847659,-0.9437711613841382,-0.9534227874068681,-0.9615221642903082,-0.9662319237512834,-0.9654295187743211,-0.9585998154281414,-0.9501873897714505,-0.9453075681649958,-0.9454825314110545,-0.9508262009218946,-0.9599659861519478,-0.9717669585265002,-0.9837139516308213,-0.9918848861647646,-0.9949040007078752,-0.9923938221548894,-0.9844548587061055,-0.9727852470332059,-0.9598115875995182,-0.9476392546792191,-0.9407846104722137,-0.9398166738510774,-0.9415667311843104,-0.9387945361057539,-0.9208539325080742,-0.8714216508478687,-0.7902095984598397,-0.6879304087618596,-0.5733589365567086,-0.42233002706447637,-0.1671399000471664,0.2006049695084284,0.5317849670691644,0.7392237962016182,0.849516939041846,0.9065517488937785,0.9360390679786281,0.9504567689273996,0.959389519032299,0.9654760935151805,0.9686888832135805,0.969012908528592,0.9684945582614315,0.9679141281118434,0.9657761625265728,0.9625927145172857,0.9613578653746001,0.9647567402772401,0.9715564460903898,0.9781786250089205,0.982184092606003,0.9833450957431097,0.9833336266149255,0.9853641222222419,0.9876064135829462,0.9865743252775164,0.980593927018388,0.9726323931445752,0.9662683514610615,0.9597428769742912,0.9529386544584213,0.9506959959721021,0.9481325653593244,0.9343176650922524,0.9004536742081801,0.8439321905282444,0.7645634831142786,0.646824295775233,0.4215957250532739,-0.005913816158542791,-0.422288622433642,-0.6332281974936468,-0.7396515169066785,-0.8145068199074041,-0.8687286471332247,-0.8997147688257994,-0.9166782900321812,-0.9323412060937886,-0.9491467357743628,-0.9655967050404484,-0.9783490210502692,-0.986858670805303,-0.9914549096230917,-0.9928940312528022,-0.9924722888908829,-0.9902686493825048,-0.9855587018637223,-0.9806320554787387,-0.979297043712617,-0.9810469867451072,-0.9840969971159522,-0.9868504449740573,-0.9887126892137837,-0.9893465474490993,-0.988443150127443,-0.9857841656629063,-0.9812973496442007,-0.9755145723223172,-0.9688437233778892,-0.9645836718814282,-0.9592664495728935,-0.9498501008513247,-0.9379783439336151,-0.9237821452179306,-0.9049734171105157,-0.8790762683171707,-0.8378035260103972,-0.7568002559747595,-0.5854510974017981,-0.26266078788615854,0.13890165771373997,0.44641662240297864,0.6208984104519335,0.717763942915832,0.7796861974109522,0.8359126706222961,0.8922756266237454,0.9348774023470479,0.9550718302291944,0.9617519275961066,0.9633747018349543,0.9636001124912824,0.9617141008401885,0.9538719060146705,0.9430834282622075,0.9335967699759755,0.9298416120446434,0.9361248600884745,0.9513806403232374,0.96781945122353,0.9778000420347907,0.981210436504152,0.9812062771783157,0.9802913271289543,0.9791186877817903,0.9771336610128332,0.9733001256791802,0.9675836084094491,0.9621884001334966,0.9619359157525501,0.9681392153151882,0.9738915060184732,0.9727720567172673,0.9647508107096511,0.9486497913925837,0.9113234825127506,0.8358990998596293,0.7063545548059894,0.5138181121743021,0.2493555136650192,-0.05515967341318976,-0.3101019775085077,-0.48755860880230995,-0.6128146514139117,-0.7151206047431441,-0.7980940726227469,-0.857652257692557,-0.8948043728075362,-0.9156362342118691,-0.9276936607533922,-0.9362101008903301,-0.9437126685727545,-0.9503604489465078,-0.9546545849616959,-0.9571454902154499,-0.9586708119854852,-0.9615429320893398,-0.9661784657254016,-0.9714227128272565,-0.9760991277077993,-0.9793509451455231,-0.9801207803019593,-0.978064512797089,-0.9739732926503762,-0.9671491832174489,-0.9573181942506976,-0.9464460554773242,-0.9377210126013666,-0.9335318081903923,-0.9332405982546041,-0.9349217596501398,-0.9343267283711074,-0.9254677395204516,-0.9066598628989225,-0.8789813271032233,-0.8324078396567797,-0.7341023129430663,-0.5488475163849171,-0.32645401641792793,-0.14487974501644968,0.011326909250947424,0.19474419443245253,0.4001735835629304,0.5821122844290029,0.7067065143221916,0.7838800187285286,0.8294685663925655,0.8556166301179124,0.8710999226802263,0.8852557938055625,0.9039474848060278,0.9246687709656156,0.9425621452303781,0.954038291745152,0.9585424074885387,0.956877050115832,0.9530825917366039,0.9526655378311982,0.9587055595016759,0.9689389886691753,0.9784300136086773,0.9844660090389324,0.988624293753807,0.9922716692509792,0.9942610324707953,0.9930383671368106,0.9890874463560061,0.9849376022394527,0.9805213787938548,0.9751059708463408,0.9700282650110097,0.9654200155794073,0.959597863431228,0.9499787887820765,0.9325259940639756,0.8990961410747149,0.836433945499107,0.7191606424230736,0.5084884803126308,0.20647623219901787,-0.08409030156669155,-0.33261325977474615,-0.5488147526144137,-0.7101096764252689,-0.80878913999648,-0.8623642721755623,-0.8878480413087367,-0.8987238687295107,-0.9059260826517531,-0.9169269994798203,-0.9318984209155101,-0.9455092472129523,-0.9549879989561162,-0.9608213699436988,-0.9647739393133825,-0.9680655504638737,-0.9723836239873931,-0.9787191026293538,-0.9857371474187987,-0.9909217968802623,-0.9931314325538149,-0.9932031303930927,-0.9919022116519526,-0.9898496833538174,-0.9884177592512716,-0.9887804712714305,-0.9901621497975569,-0.9905659575325618,-0.9886283808149599,-0.9845070701472779,-0.9782231698846946,-0.969180403053586,-0.9570598046764681,-0.9342941544897977,-0.8939670385876394,-0.8345880963314237,-0.7419419332545271,-0.592033095177503,-0.40092777816488245,-0.21886023297605187,-0.04495467507643315,0.15266012211478613,0.356176235649991,0.533847339581054,0.6717112139747424,0.7706867986180813,0.8401676528098178,0.8890318448392196,0.9197827662275486,0.9375604790946026,0.9489693555765918,0.9568802081182246,0.9640761373291341,0.9721360004774149,0.977505218838128,0.9725695578396473,0.9571206452000051,0.94259082417144,0.9372742227979517,0.9399860294672794,0.9438864367045687,0.9482520323363804,0.9569624795310856,0.9706611127674282,0.9830916518648389,0.9902005009521814,0.9916776069221411,0.9878804356288117,0.9780955753521896,0.9621565072439562,0.9392828628298698,0.9119796316022588,0.8819841542720235,0.8501551293457082,0.8118251818619568,0.7605660554749472,0.6873278243419813,0.5894681208268471,0.4574164967735814,0.25744394495113304,-0.061779287181882296,-0.4143594959418085,-0.6320700928031875,-0.7421176818289178,-0.8063164714100001,-0.8441277627018319,-0.8602762181198491,-0.8585480360169805,-0.8511260936637962,-0.8459409524134804,-0.8467466414163759,-0.8537442992612494,-0.8630653638907697,-0.8753088326789413,-0.8925513693122981,-0.913262665601651,-0.934470626335112,-0.9567689837192799,-0.976934990728554,-0.9886556728260703,-0.9890307517015178,-0.9833454392579124,-0.9778571383933639,-0.9750062920525737,-0.9761000457333632,-0.9792800048312433,-0.9819406680864919,-0.9814810311593244,-0.9758186748287926,-0.9601087926326982,-0.9274370097978004,-0.877486855364295,-0.8332255405810204,-0.81471089189237,-0.8081136580741861,-0.7917593821259749,-0.7515542692295781,-0.6621928338000823,-0.47643725953993027,-0.16513540734583404,0.1769944072728001,0.4349741738644519,0.5971327090797536,0.7017675378252016,0.774812371720744,0.831609730300356,0.8715291112062071,0.8992325759420827,0.9146633819913936,0.9218642892007292,0.926817607051462,0.9345230234327099,0.9428261161312665,0.9469471958273727,0.9457435550206118,0.9454083432871158,0.9495082291200454,0.9577107712587625,0.9671360882346881,0.9754956652547986,0.9812719918003526,0.9838976451734827,0.9845952095605569,0.9857934119766322,0.9886211080430622,0.9913741370003005,0.9922740949844115,0.98896760632118,0.9821811755429484,0.9741354767298863,0.9662950807671546,0.9595196524758345,0.9541954910805869,0.9482282990580844,0.9315382642558723,0.8815254019595306,0.7707289694775589,0.5842535022470273,0.3216176512385037,0.03563093589479469,-0.19597993269335257,-0.3475897749860259,-0.44830900802674617,-0.5377056284283939,-0.631767441479701,-0.721780831393373,-0.8003755272455859,-0.8633661391492556,-0.9082737320914569,-0.9349758164816162,-0.950885804781168,-0.9620791319160329,-0.9703471237064848,-0.975584786775865,-0.9789198283594918,-0.9822098978876239,-0.9860358840552964,-0.9891098129324648,-0.9906507557121521,-0.9904403204517356,-0.9890078728958802,-0.9870966990169305,-0.9842190270160639,-0.977621586595804,-0.9674251681165487,-0.9557524411046782,-0.9479766468171044,-0.9488875375795843,-0.9535792304707615,-0.9515515908502606,-0.9397952356182236,-0.9253641020919474,-0.9108855467041503,-0.8893309095971716,-0.8594222917901089,-0.8264967775439656,-0.77771374487783,-0.6880734853040859,-0.541622917286914,-0.3244700491799214,-0.051867861011599674,0.2297473987159463,0.47718113786820476,0.673590760170499,0.8067004521496525,0.8751068329406281,0.8970952211279517,0.9013947584875286,0.9068001286236057,0.9136118448717121,0.9184021888663774,0.9217474251597876,0.9278561921240228,0.9387766682829868,0.951476501472782,0.9614944247906575,0.9671517648423046,0.9699531296771475,0.9738035048636966,0.9800350656081843,0.9866555777463426,0.9903959574567581,0.9900634119327448,0.98610928794404,0.9818056303008773,0.9817298061237211,0.9872496845990449,0.9933963963169261,0.9928893457645391,0.9843483684949365,0.972182697876964,0.9642039356634989,0.957794828419498,0.9472544878280684,0.9321579016122703,0.9163129219498963,0.8958491570989843,0.8352776948521888,0.6812821594406467,0.4250512145154138,0.10332628815826284,-0.18442711561944675,-0.3800935367796356,-0.5118931995567897,-0.6107294665114983,-0.6951626287334299,-0.7675897076763796,-0.8257389395196559,-0.86484958363482,-0.888012158158342,-0.9045754090539441,-0.9200440085500591,-0.9329775717359112,-0.9398661247895855,-0.9428715916333739,-0.9476764202907092,-0.9561094348483502,-0.9647876105877194,-0.9711536040575441,-0.9744732876013393,-0.9749710897331604,-0.9750435645693419,-0.9775581954766054,-0.9819876610730833,-0.9823615955362923,-0.9733313751468733,-0.9527202090978527,-0.9228617217989589,-0.8860219981480345,-0.8462158587401557,-0.8076515109748791,-0.770651800895435,-0.7332114570881448,-0.6922709783801743,-0.648448451038422,-0.6073052728342482,-0.5630955269016985,-0.5081069781332548,-0.4587209145637384,-0.42103412308550414,-0.35851210442922476,-0.20571227191111058,0.06944126296335121,0.4202549812095809,0.694589724900736,0.8364018128686865,0.8998921089036376,0.927678192327221,0.9402466763363431,0.947999215075687,0.9530282176947391,0.9574122531171044,0.9618548502072036,0.9668605467739081,0.9736345581890857,0.979132202277593,0.9815120607945639,0.9819736014092996,0.9829976974500619,0.9853077377585383,0.9879249545157562,0.9898134431913311,0.9908507824808682,0.9913773189219566,0.9907740659626394,0.9884092364581746,0.9829913969008331,0.9749737264340645,0.9674866178192468,0.9617982314380985,0.9560990577449898,0.9504617348367653,0.9433199983810301,0.9314895884154201,0.9092992118285874,0.8770030154617641,0.8264740178973996,0.7251115955682406,0.4784512469262653,-0.03837959919314019,-0.5193709685769444,-0.7213464338545676,-0.8035620811072443,-0.8510794987712149,-0.8823713421193499,-0.9044569893510299,-0.9197941927601446,-0.9311064273886765,-0.9381517889177716,-0.9431923623706642,-0.9453297330046216,-0.9435681795743333,-0.9386298869554828,-0.9325460870110993,-0.9309072090024773,-0.9390032679257356,-0.9537228758573568,-0.9680578933965642,-0.9773568348359718,-0.9818352560598553,-0.9831489191802784,-0.9825320526821748,-0.9822376913308758,-0.9836081586140436,-0.9859140000072657,-0.987707845825114,-0.9875415430908667,-0.9868658648953987,-0.9863126851926218,-0.983175111275979,-0.9759541062413534,-0.9664653838237184,-0.9565491194215052,-0.9394730609675436,-0.9053135321164439,-0.8452571049457188,-0.74148790521508,-0.5933158218356249,-0.43221479707581717,-0.2498550253266239,0.010154447166979648,0.29757046516993124,0.521374334006298,0.6695590481225656,0.7620997498062002,0.8144477037203357,0.8434569109369627,0.8677728993850009,0.8962318433757,0.9286552305445811,0.9541909765647245,0.9663559297755547,0.9692608735839715,0.9710938267034789,0.9739652704594737,0.9742742653769155,0.9715176800474415,0.9701438797674903,0.9723692911066039,0.9769139819350791,0.9814272951163467,0.9831641304291912,0.9818831108750838,0.9798577534112828,0.9803470422681442,0.9833182774137914,0.9870073060442217,0.9904212530463162,0.9924280323839779,0.9927587699636811,0.9900989766510064,0.983720081105868,0.9751913629286705,0.9654457780735923,0.9517482146447551,0.9242766599978779,0.8697418631063617,0.7776071110974884,0.6395210897918442,0.4485601554045207,0.19719859476294502,-0.11266109115439361,-0.3983264480396814,-0.6078404020982736,-0.7440594550725623,-0.8276765490560241,-0.8801854483342731,-0.9089868080898907,-0.9193481612900244,-0.9184190157975938,-0.9142557843242325,-0.9157662801152274,-0.9252425307543963,-0.9378322210955528,-0.9465494295690822,-0.9506984648283198,-0.9541490627502317,-0.960534995733906,-0.9704657180000222,-0.9820885185680518,-0.9913610194858641,-0.9943652736146488,-0.99253003688954,-0.9900742717020689,-0.989023639329733,-0.9890764728775705,-0.9897516311254361,-0.9901604075538146,-0.989284594281224,-0.9871957937672158,-0.9848614522440886,-0.9823080799636196,-0.9785770703169899,-0.972389767773375,-0.9599894626351512,-0.9299202864794359,-0.862027416385045,-0.7428934405637455,-0.558897352130618,-0.2925201643758955,0.01699226327468616,0.3016132728979229,0.5287059035364808,0.6935349467108104,0.798016580907615,0.8602472388097896,0.8956850708246952,0.9164271371271329,0.9315707201706412,0.9459218363535181,0.9566538795105508,0.9622165184391344,0.9640797623974592,0.9629277484036884,0.9582497500540492,0.9520305052939143,0.9462299461872659,0.9428389726750803,0.9433376934205772,0.9462191703757815,0.9513702292061428,0.9587734511970799,0.9679187594539523,0.9776048938006968,0.9856110265344599,0.9905158465634001,0.9929316650672527,0.9937722247568788,0.9930610222664871,0.9908613263305938,0.9837838663362171,0.9683583064765086,0.9461755441994288,0.9258075687804495,0.9139359173122736,0.9039726665365716,0.8843885036748759,0.8402517655623211,0.7311805315487917,0.431012265906858,-0.12727546838893117,-0.5191157310661338,-0.6691665293744103,-0.7305674672557336,-0.7661019973784302,-0.8013109684384553,-0.8455121065038885,-0.8944351191218096,-0.9314483915113202,-0.9394633436187204,-0.9144650739814751,-0.8754255357461473,-0.8476268230817823,-0.848358157121133,-0.8719043168938226,-0.900188340771828,-0.9225899875584672,-0.9416261427918275,-0.9579837564318161,-0.972602259236704,-0.98431668713254,-0.9913095195630381,-0.9917968861769967,-0.9883775624649039,-0.9850838397509608,-0.98408765484617,-0.985018534949182,-0.9852944911024241,-0.9840220905006167,-0.9830668892063585,-0.9843882406310182,-0.9864130281175628,-0.9875531983441705,-0.9853775511125187,-0.9743304955929828,-0.9450501319960037,-0.8838211113014439,-0.7577454294097167,-0.5270769770543575,-0.17991105904303548,0.15670059723114033,0.3386944354484824,0.44902954035801984,0.5561498485398316,0.664658716346405,0.7671908583432796,0.848482757590544,0.9030782409247728,0.9320901420847543,0.9492024392625216,0.961727931489725,0.9696784277626929,0.9751127519473558,0.9780238127381079,0.9786547131209774,0.9780193505527638,0.976372509081651,0.9742508009983691,0.9721813894791372,0.9722513088852534,0.9747532190769165,0.9795018412231065,0.9844889747888518,0.987630623835322,0.9871293820831731,0.9835795547497478,0.9799984775479952,0.9764343518144594,0.9702783325497218,0.9588658988806114,0.9516290172534464,0.9647290243471845,0.9848705262042353,0.9482650090440253,0.8226222405336103,0.6650418036115727,0.5099836801276428,0.3443635517619639,0.15450046642652304,-0.038120136876048,-0.21370313490277437,-0.3917164174660653,-0.5591456602354355,-0.686175846681192,-0.7731424995432706,-0.8265605305533658,-0.8621655073341116,-0.8859913895878949,-0.9027195823043588,-0.9131098080315998,-0.9187029875713663,-0.9195479234282896,-0.9181639731836192,-0.9142993766814633,-0.9108569229864043,-0.9130924656451525,-0.9246681460623208,-0.9429053574823357,-0.9599484390339333,-0.9714021618404599,-0.9788234989662471,-0.9844727299131243,-0.9894874125233342,-0.9934000860226629,-0.9959145610340309,-0.9966787282369277,-0.9958389316764369,-0.9933452775996576,-0.9890149439993404,-0.9834753702234628,-0.9764974109536654,-0.9678190389082274,-0.9574357976497938,-0.9427083615228431,-0.9151878292172125,-0.8662319432135672,-0.7863769774450565,-0.6416419317589716,-0.38201918799647605,-0.02585882059613719,0.29370644387715517,0.5090515471910271,0.6463024528637656,0.7373198117129678,0.7970005011455898,0.8343850450378172,0.8567408885540077,0.8721897275921001,0.8874524168019966,0.9035567529605215,0.9185208247156598,0.9315716851474378,0.9393191749201703,0.9405888346830665,0.9401958741682929,0.9424961720647574,0.9470481217801225,0.9545064453518644,0.9639094870558269,0.9738410845108771,0.9820739582205551,0.987653927430041,0.989759653468766,0.9871688187301852,0.9795633929612094,0.9690109992899714,0.9583612541549801,0.9517509302899639,0.9506616966478664,0.9532573899539573,0.9546936596535643,0.9523285901477694,0.9472398848525152,0.9400356438940508,0.9304084612883341,0.909895295755411,0.8668287320554379,0.7919298387399889,0.6595269250036029,0.3907186903057136,-0.05298482937708926,-0.42781432980777034,-0.6250930759351991,-0.728973940234995,-0.8004708507684264,-0.8550054749254064,-0.8946771994151619,-0.9220077601231654,-0.9417225176396551,-0.9574122258658699,-0.9683300814885076,-0.9732402079989407,-0.9726152740305679,-0.9725065174673957,-0.9759410478303026,-0.980289700977669,-0.9828285691817482,-0.9845939361943893,-0.9862072034767457,-0.9878648271229038,-0.9894495088765364,-0.9907087255736919,-0.9916619876050707,-0.9928742970113434,-0.9939788519314775,-0.9934998414527408,-0.990556284666816,-0.986365703526233,-0.9831047391053044,-0.9810573333138656,-0.9801995662834149,-0.9792117957407642,-0.976280656214409,-0.9673436031899514,-0.9457455223904563,-0.9024441839607666,-0.8281094423913125,-0.6915221674676157,-0.37004876000102943,0.25509924907668036,0.6877993857083483,0.8263410467952618,0.8725278479636425,0.8963906714601168,0.9135998344061845,0.9277025730032896,0.9379491216754972,0.9474801567358245,0.9589940467683312,0.9708846073291817,0.9771855874587331,0.9735484658774743,0.9598538016048033,0.9414559430400137,0.9261593071292358,0.9199641595851942,0.9250737600667513,0.9398983304573538,0.9591545396596434,0.977312616817674,0.9892609548215013,0.9935181209932833,0.9921132591601002,0.9876646160363107,0.9828801928565298,0.9797329410991824,0.977808046403083,0.9735634383573585,0.9633619650913611,0.944795906202724,0.9222032541409321,0.9009992565919119,0.8846174677219303,0.8713773503893405,0.8557432634578782,0.825119942008542,0.7661003257295885,0.6581522340383501,0.4754190033736185,0.19443378283129203,-0.11970695562708315,-0.3866725123971955,-0.5721304153722658,-0.7027265041595175,-0.7919833304877661,-0.8479762863591258,-0.8829608283442266,-0.9072328700011657,-0.9271628384680015,-0.9406209852675519,-0.9489203619926897,-0.9532014860013046,-0.9547864852717097,-0.9544128820824979,-0.9562521521264628,-0.9622249838892044,-0.969421909234634,-0.9755021521592864,-0.9802353092682367,-0.9844924516871777,-0.9876949697372428,-0.9901527204415507,-0.9932597441909639,-0.9959887451912675,-0.99469935420986,-0.9881943644037054,-0.9789372435042571,-0.9676763965456587,-0.9574084956697304,-0.955912030316259,-0.962285286014685,-0.9638283345059774,-0.9512713550821776,-0.9256509070061253,-0.8924601167716627,-0.8458969823371227,-0.7603236521317195,-0.5957893216098396,-0.3637180110949807,-0.13938762319071224,0.05305005274736108,0.23836183013495213,0.42004479356860014,0.5765905666657697,0.6907640684706904,0.7623512916909717,0.8101822133571792,0.84427538609042,0.8707330568548826,0.8949272878575452,0.9198172387338067,0.9456507631269965,0.9677000849620112,0.9810392583177385,0.9880474227527564,0.992976012963726,0.9959076989718592,0.9962824488615301,0.9945827065669863,0.9927027546043122,0.9921619925852528,0.9927061185481476,0.9928888198155869,0.9926438985148469,0.9934121771758682,0.9953585601042687,0.9974034180547044,0.998059972027849,0.9952954415284339,0.9883854559037502,0.9794260112148487,0.9683527493830677,0.946814282921081,0.9080238228615939,0.8469173609839259,0.759975197219264,0.6372428481664263,0.47804889055062316,0.2534640241992199,-0.10078115570997848,-0.5183811880083988,-0.754367273399756,-0.8333732478844555,-0.8567628288429581,-0.8677514419759346,-0.8798108429054702,-0.8976249935048696,-0.9182205236535943,-0.9358881893351518,-0.9428580920633638,-0.9442133467312094,-0.946513475810645,-0.9529894058271939,-0.9633131599765671,-0.9749152480500103,-0.9845737035120045,-0.9906180746522512,-0.994036354375449,-0.9956929388456778,-0.9960181912202993,-0.9957968081192992,-0.9957772219311171,-0.9955835662904736,-0.9935931453495873,-0.9891932769339021,-0.983651816259697,-0.9798121088451144,-0.9790618057214517,-0.9797068677770502,-0.979783229857664,-0.978550353166111,-0.9747060857938009,-0.9661164690640593,-0.9477982145168603,-0.9162029885270506,-0.8627076623151705,-0.7575626126385386,-0.5538334379985248,-0.2211406924410965,0.13111125853534325,0.372197612742884,0.5200069197861166,0.6424059351842986,0.7479520156982601,0.830909649773623,0.884279784744442,0.9136797035223052,0.9317577668302702,0.9448650052103876,0.9542744345447205,0.9601589174954235,0.9613956432382257,0.95604444250332,0.9458880426975904,0.9384889352090638,0.9394527554020781,0.9484237942276896,0.9606081402383257,0.9709722798371092,0.9760719506791259,0.9755027792268027,0.9730949769349586,0.9739055104349578,0.9788110314918597,0.9836014528426705,0.9836601133557321,0.9803766339906024,0.9797239581950428,0.9821846292517783,0.9845900719746309,0.981871893037375,0.9728412093330953,0.9627511049776456,0.9548361085064881,0.944730049910551,0.9191969685835744,0.8677603255319862,0.783980032982024,0.6346068150387553,0.3529873692443131,-0.032676270934305064,-0.3468294875528859,-0.5353360053654781,-0.6636849316200222,-0.765066267870359,-0.8459314060161119,-0.9010253223520744,-0.9308265585345412,-0.9414856454896773,-0.9415235691255377,-0.9378109916211418,-0.9371234145095124,-0.9420990967400185,-0.9481247318028839,-0.9511811529341874,-0.9535026521259871,-0.9587457011998513,-0.9679098806545513,-0.979122744327827,-0.9887881796004487,-0.994345661173351,-0.9959022116351411,-0.9946202531571309,-0.9916503014703121,-0.9888949691166822,-0.9871744301530773,-0.986342795672628,-0.9857159500268002,-0.9847741548788552,-0.9835582627675743,-0.9818022032364415,-0.9793991494326592,-0.974696990630815,-0.9642660411413624,-0.9459203649365275,-0.9183019018620968,-0.8706888758983381,-0.7645439538746612,-0.5182883403423956,-0.12323349990440166,0.25204967895084285,0.515427073477486,0.6791072442587169,0.773221543398501,0.825366592778577,0.8592862617904011,0.881953336153201,0.8984837294008323,0.9161414944712204,0.9364829721015254,0.9559900474542158,0.9714874721696368,0.9822700782992172,0.9872971399687742,0.9868035597791801,0.9826405895272879,0.9783218058469807,0.976961306088595,0.9789888534108888,0.9822160719432835,0.9841064811792584,0.9846126859465016,0.9853542602820664,0.987323481734743,0.9893468799608197,0.990751058480634,0.9897953969209549,0.9845683062959605,0.9785816191135094,0.9775359561210196,0.9815414084055749,0.9835122495119105,0.9768261857367758,0.9530068655243638,0.9040269810305112,0.8192926871168456,0.6892475924802627,0.5064611061924138,0.2892469072050553,0.06832658069135321,-0.17907869343850535,-0.435509142040363,-0.6096246172712185,-0.7083663243912459,-0.7786630751593914,-0.8398283816602228,-0.8942770171175938,-0.9330389317961034,-0.9521543497624438,-0.9590224208226693,-0.961231336313619,-0.9617097168626948,-0.96165286079393,-0.9626681060431812,-0.9646411334456316,-0.9676306234002731,-0.9714236928059141,-0.97524904960285,-0.9788429074590255,-0.9819667993037178,-0.9844570518183211,-0.987309740967831,-0.9904737302643503,-0.9922952146920928,-0.9901934693915594,-0.982728263968472,-0.9717394870168173,-0.9602961699671857,-0.9499835223530111,-0.9399705549956711,-0.9276753147057641,-0.9118501646313333,-0.8864733725807816,-0.8525735922747916,-0.8180092210211258,-0.7887576366681447,-0.7568282386230464,-0.7071907873447494,-0.6225633270753559,-0.46123743401191264,-0.16955354857088578,0.2105569683021495,0.5250549489925403,0.7231096411470246,0.8286876560117141,0.8778668169474368,0.8962485345575965,0.9056455770903798,0.9181623146581339,0.9369041280262592,0.9578425470222273,0.9733887416137811,0.9805452167310488,0.983196171168777,0.9852455307802568,0.9867320411429503,0.9870299520893887,0.9861284915253093,0.9843071745176467,0.9827303343957587,0.9832186179231881,0.9857463336263129,0.9886921026040781,0.9909048630067547,0.9926998725969837,0.9939194939746772,0.9949856247788147,0.9949242217963812,0.9904669097121515,0.9790438779944194,0.9648426444073,0.9506759033259775,0.9332066701535595,0.9078781640219783,0.868565684172081,0.809239978340391,0.7286524028239859,0.6249564021048224,0.4875926303769744,0.2981091966644885,0.03983477967147097,-0.2592112007577896,-0.5232131830561996,-0.711926946978268,-0.8273122743642599,-0.8922402107731057,-0.9276056615162813,-0.9462706752848806,-0.9567209628239128,-0.9635670747772,-0.9677098651197205,-0.9710718704527713,-0.9739299357799522,-0.9747165877290002,-0.974094777948912,-0.9738756997565716,-0.9760765281473589,-0.9814871894084427,-0.986741744299309,-0.9887508921963634,-0.9874155492761358,-0.984563080995157,-0.9819945643548382,-0.9816201411139257,-0.9831928734058016,-0.9847638033557524,-0.9864139411625126,-0.9877062378470397,-0.9881395011930248,-0.9873882372966676,-0.9821047387311462,-0.9669771826197671,-0.9398844143582599,-0.9021037788254684,-0.8573052767723266,-0.8052836046895029,-0.7322089577248145,-0.6251270783697458,-0.47341541200133236,-0.2357730692514867,0.12641289748774687,0.46421064311367055,0.6573487241999931,0.7583990785386618,0.8152134095131054,0.8440406144599472,0.8573195153498477,0.8650297771705221,0.874285257727079,0.8898498843582741,0.9101733709950086,0.9312931157435927,0.9456115760786079,0.9523363308123562,0.9564070519245729,0.9615788851491873,0.969004869689568,0.9773193013444529,0.9850787023234513,0.9907220686787728,0.9931370415683324,0.9930271289232013,0.9923537704200385,0.9921519191581707,0.9917987405332466,0.9913454919584972,0.9902899071399043,0.9889600772631023,0.9883395860720074,0.9882612108562311,0.9867067688770468,0.9795150397970508,0.963605598552972,0.9368710319948249,0.9012486360325839,0.8627984724713078,0.8210262264070328,0.7688816312646536,0.6791524059178258,0.43246569521544037,-0.12230282695978324,-0.5546098616608088,-0.7257733776898472,-0.7984014857506655,-0.8356797409651826,-0.8636671563284231,-0.8920584802055311,-0.915528214694814,-0.9330557374275601,-0.948438320743843,-0.9639264714915198,-0.975479764507546,-0.9801620508575546,-0.9803526886739271,-0.9796546428717016,-0.9787376053982665,-0.9777351404532437,-0.9772839994474128,-0.9789658447451942,-0.9828420754684037,-0.9873040122960894,-0.9904783360863247,-0.9920039976954025,-0.9914179391159105,-0.988533825318209,-0.9840825422357675,-0.9788265332421655,-0.9734558749785182,-0.9688967081283033,-0.9657361119475041,-0.9626114768997002,-0.95479645872476,-0.9383094972423233,-0.9076001224532859,-0.8534459403464304,-0.7567518940706409,-0.5785704565717802,-0.35563732138211657,-0.18020161780012073,-0.033728153123831324,0.16278150982673692,0.41707988833831655,0.6411770859496176,0.7990016634694014,0.9035398812775959,0.954630547358049,0.9682366389386572,0.9697267499663217,0.9713096647272103,0.9736684335325015,0.9733892825642303,0.965983432318532,0.9480597270826672,0.9251899965821668,0.9104807916018077,0.9112153952379608,0.9230937635740607,0.9398721867050307,0.9583272551203459,0.9757998245437627,0.988536906628118,0.9953603602934242,0.9974283921657817,0.9966812748704789,0.9936133921781163,0.9881157029092914,0.9809501139480274,0.9749157127017758,0.9716862709950466,0.9706809689880801,0.9687288801493886,0.9627975667363855,0.9533758117327281,0.9400737041671512,0.9202797060376707,0.8940877709665653,0.867564392053394,0.8413752832144079,0.7950845285332367,0.6817104440825748,0.464805792620702,0.14510043703412362,-0.20521999698238047,-0.4820148145991865,-0.6615174874531996,-0.7710040771395722,-0.8399018992998608,-0.8838971516251334,-0.9099257742599645,-0.9229407507210428,-0.9292892552461697,-0.9362987042820532,-0.9457273509786677,-0.9547877991830038,-0.9604880336183432,-0.9642760825363043,-0.9703834008660944,-0.9775325434495827,-0.9829304707536144,-0.9857775720692482,-0.9867491008582072,-0.9866952023729575,-0.9866625863864846,-0.9873637454828671,-0.9886113745919526,-0.9892104225060167,-0.9895798106342358,-0.9881309961027713,-0.9826543705697673,-0.9718949753894256,-0.9575810262016656,-0.9402718141519412,-0.9190177161582738,-0.8915757378660782,-0.8581255297760032,-0.8193464493095304,-0.7628503593824136,-0.6294318577513682,-0.374564076942617,-0.0820897082603397,0.15544291301932367,0.3225792672877039,0.4362120277651162,0.5202847205672434,0.5981079004008393,0.6784220109432323,0.7569024089107504,0.8247624131196419,0.871808221289841,0.8899235259273945,0.8897497961508956,0.8855174108936019,0.883244295085471,0.8817471247407019,0.8876035913681078,0.9050561918487884,0.9279867076045851,0.9492730160736418,0.9653945840634762,0.9741710374429882,0.9759862037923569,0.9733263485728404,0.9700309428557421,0.9702064228122755,0.9750509771084449,0.9819176712324794,0.9871438768794683,0.9885649221662259,0.9839019112433455,0.9708172980389803,0.9506608724924377,0.9283472046822279,0.9090182076674213,0.8938095958665945,0.872181939295547,0.8305582605977517,0.7499831621187121,0.608140380602237,0.39732720369337743,0.20015034643195398,0.08199260370481797,-0.03911306918268362,-0.2277846694691538,-0.4533285336542869,-0.6359738474420762,-0.74525389332889,-0.8031470578414168,-0.8405282926092442,-0.8698546803996594,-0.8986490906983061,-0.9286984425021999,-0.9555117221653998,-0.9719820947366502,-0.9769597162717517,-0.974182927647643,-0.9680574745003296,-0.9634648343623807,-0.9613059524955792,-0.9607061717855385,-0.9601723247260482,-0.960469895864074,-0.962729471058898,-0.96894547230985,-0.9770197609905609,-0.9844715192195084,-0.9892257504926573,-0.9911528565392629,-0.9899281720752229,-0.9815689603252447,-0.9609573399726576,-0.930931099421507,-0.9020534427895475,-0.8832996955750907,-0.8768788226847923,-0.8706198979974581,-0.8418401150602242,-0.7826419913082685,-0.6912104966579732,-0.5432618322953778,-0.2907372706742649,0.060139896542185364,0.35405575138345435,0.5187842475383215,0.6077893120969988,0.676829314800309,0.7441815355558316,0.8036423963293902,0.8523342342339943,0.8926221354043733,0.9205939510731916,0.9383049460608467,0.9492864449309065,0.9559893296163995,0.9597269990898362,0.9624773407230148,0.9657601599490384,0.9712657504779492,0.9785062192936038,0.9848663730902214,0.9886633226990691,0.98939888571916,0.9869483756975883,0.9832200546631882,0.9809225319072665,0.9816946341463503,0.9847038651268377,0.9881931963393397,0.9914657987276322,0.9933234753615903,0.9915272168699037,0.9852725673023371,0.9758163668725333,0.9655189224786295,0.9535877122327866,0.9340056287545632,0.8937049133262522,0.8154111785227499,0.6809473503773,0.4726528957075858,0.1700932739928006,-0.1970744690527384,-0.48721089930032563,-0.638202492852773,-0.7157625351020754,-0.7710060595363312,-0.8254027984999237,-0.8818327004510913,-0.9286581826981207,-0.9577303455465788,-0.9716836749367477,-0.9777506650929961,-0.9794545457893045,-0.9795845707392622,-0.9795486708149568,-0.9802907373085548,-0.9812276870882609,-0.9831727496408599,-0.9856247448681095,-0.9876233926556228,-0.9886972531831745,-0.988994879716244,-0.9890899014301334,-0.9901354224278824,-0.992154070689254,-0.9938314407941096,-0.9938601169577743,-0.9918848880698089,-0.9883272881080473,-0.984554316617375,-0.9816869512371587,-0.9797212625107546,-0.9744910463311537,-0.9657850869455995,-0.9553848511649501,-0.9417306505167042,-0.9107139815037633,-0.8195316648772243,-0.5633944826331636,-0.05394251366976107,0.3872656716435613,0.607086799448601,0.7031227281700981,0.7653208695161571,0.8166885669710215,0.8599740249356452,0.8917211072578348,0.911437195183789,0.9238721796147823,0.9343322869523097,0.9439867898761579,0.9525906048513059,0.9605920127649114,0.9663119178310327,0.9711473413825052,0.9754022250061881,0.9786741370055185,0.9807660919155755,0.9831944929884501,0.9857792250783359,0.9886187915051696,0.9910594902267456,0.9926708789857336,0.993415150236349,0.9932336193142772,0.9922834445372817,0.9903593643083618,0.9883301587572069,0.9866491079428282,0.985397542519713,0.9826913569150323,0.9783738500458526,0.9719013608558492,0.9623782729133364,0.9539095228425808,0.9422417197587639,0.913663040770875,0.8495312300438658,0.7087519087467319,0.4264983230812156,0.02846830441239762,-0.3204960310235477,-0.5520796715777634,-0.7050060334287634,-0.8021265860099522,-0.8612086944213089,-0.896221464109719,-0.915640572127287,-0.9248711187699219,-0.933060144989367,-0.9446990883644194,-0.9593357091555181,-0.9685074753603946,-0.9683631392601043,-0.9601035348192588,-0.949877177840831,-0.9455233185429083,-0.9506054926012423,-0.9616228382103388,-0.973643384792097,-0.9841164618906262,-0.9908150353371266,-0.9936732281136158,-0.9944271093044942,-0.9944907750701008,-0.993897666926111,-0.9924809586386978,-0.9907617685963975,-0.9888740188046569,-0.9871740344998676,-0.9847323490902637,-0.9784133926727792,-0.966909109733373,-0.9501132609197929,-0.9250337834580961,-0.8889110740620995,-0.8383439692887047,-0.7672821131468964,-0.6679436011441374,-0.5207942110458517,-0.3007655750589504,-0.003594183222376432,0.3027715101783767,0.5422569072173037,0.6919044051191062,0.7784631365657442,0.8336593714762837,0.8756124469433466,0.9097855524770205,0.9358926559396407,0.9532362303392204,0.9626678859036399,0.9663242943793218,0.9667116262818135,0.9663214836788274,0.9669521856953134,0.9680436144050871,0.9702258539213461,0.9733999960618174,0.977625373501296,0.9825955181958782,0.9874075574283204,0.99132944926189,0.9930610688446233,0.9922629933132655,0.9895401634386957,0.9864339968987975,0.9830112773743163,0.9790846864518536,0.9745597172657999,0.9711176761378284,0.9698026925415056,0.96993944889315,0.9704500661842035,0.9697822933690124,0.9668931412513248,0.9531593748570908,0.9094752383734458,0.8275977527880811,0.7014278086935939,0.4947210445948,0.15184371608929212,-0.19713352209766974,-0.39773180629197336,-0.4898685105627466,-0.5562798728387361,-0.6303190567224768,-0.7167094059802122,-0.8002276500536757,-0.8628272262877159,-0.9022926320885911,-0.9260965450079149,-0.9422028295314906,-0.9525685365845369,-0.9567256029302283,-0.9575004934924254,-0.9589282507019703,-0.9638270991710126,-0.9697281907020125,-0.9742714879184179,-0.9780640716240395,-0.9826453207930238,-0.9882291085811344,-0.9926859293664211,-0.9932668789836809,-0.9905340261060387,-0.9868584514034744,-0.9846300505527521,-0.9836313660783255,-0.9808259187771384,-0.9762737184862156,-0.9740665337789599,-0.9752663602169447,-0.9755207192461638,-0.967041032750232,-0.9325904779164971,-0.8578320110517432,-0.7509561272480789,-0.6272314088369111,-0.4860947506851499,-0.3234320814038495,-0.10849235817734797,0.18607533669149415,0.48349010428975553,0.696689026132576,0.8111113554060687,0.8696131610185066,0.9038640856577194,0.9248730955538941,0.9399932741872112,0.9536653535828659,0.9628743782845347,0.9655845476531147,0.9638696905567735,0.9601213809623583,0.9575209943810659,0.9585098785110112,0.962529303409091,0.9683703653704533,0.9754121492760568,0.9832151886152587,0.9904061661862614,0.9934314145741009,0.9929781665883721,0.9927198153098536,0.9940343783084824,0.9952336321877802,0.9935739026623012,0.9899713790691737,0.9868009680186152,0.985387038794274,0.984112320014662,0.9764231480967719,0.9602621204901653,0.9422523503560667,0.9184838361617241,0.8695862226710565,0.7698283782099902,0.5775222820747381,0.2632772260848522,-0.10227791413225722,-0.39775245561198735,-0.5950933628238481,-0.7081686451430609,-0.7696786729508203,-0.8059157628335386,-0.8322940757093841,-0.8629121635505556,-0.9017330518542923,-0.9398937935935807,-0.9658348235544214,-0.9775417515264567,-0.9796720136609597,-0.9804210120509579,-0.9834671132079598,-0.9848917371540686,-0.9803105651529922,-0.9726385342048584,-0.9686152337724447,-0.9720331375077396,-0.9805350690871905,-0.9867944045970579,-0.9880560629417774,-0.9856862593147934,-0.9813498586301275,-0.9763694186668274,-0.9702271550291381,-0.964737638130681,-0.9627217306568401,-0.9656340657210477,-0.9698535308331376,-0.9713355031165433,-0.96835298006042,-0.9573081223178137,-0.9436577606472953,-0.9263138369274294,-0.8832860132080793,-0.7569788283541642,-0.5085229706588767,-0.20864976328011098,0.04373311934106372,0.25164470118629956,0.4325298268564823,0.5722463331921696,0.6770020327705482,0.7483494840134581,0.79657497724578,0.8327069884394869,0.8666512664048867,0.9020386217368863,0.9334006855163397,0.952664987632685,0.9606311220973422,0.9646610619659233,0.9679770957875298,0.9707911002781546,0.9741902446862278,0.9789392053584273,0.9847924058627756,0.9898340882120007,0.9927866138936436,0.9926354728184745,0.9893379509793726,0.9838087818392596,0.9779061131509319,0.9743572553869986,0.9739559121009976,0.9745237057799859,0.9744689090009508,0.9717913301188563,0.9658541068105116,0.9589261798328119,0.9481114827421087,0.913272117992969,0.8228104274571061,0.6822655956410922,0.5207834015597848,0.345405415969425,0.17225618874006993,0.02113182735241875,-0.05851432346078389,-0.12034239029732245,-0.24384927526084396,-0.4370356124522468,-0.6400749209697125,-0.7808887698295186,-0.8566543787248181,-0.8954637175730559,-0.9140493982575824,-0.9253993084438806,-0.9393270480979008,-0.9567437460222733,-0.9713290041629773,-0.9801519977664639,-0.9834603429868353,-0.9843075995842642,-0.9840954018904845,-0.983768272510973,-0.9840431598181663,-0.9851724969364517,-0.9874011296368159,-0.9896032244519251,-0.9913044295841219,-0.991881632596495,-0.9906501335760793,-0.9873978047808429,-0.9836336468969655,-0.9802857300386157,-0.9768653454887427,-0.971436940715576,-0.9598552184027757,-0.9417534774902304,-0.9254906028447216,-0.9181268978387143,-0.9169642470329408,-0.9113921205888198,-0.8900119171399544,-0.8385905071244688,-0.7437922576965941,-0.5895266203323396,-0.35894229430181235,-0.03433584258618032,0.33484530784289057,0.6048943421951608,0.7555075238756911,0.839162752178276,0.8833233887498982,0.9076533839839018,0.9232604623852547,0.9375440868621916,0.9512263994943773,0.9604700017033305,0.9649038741326996,0.9666071029179917,0.9692554104778752,0.973672682621968,0.9782979865803717,0.9824822255119496,0.9858534964303771,0.9887278124843479,0.9907010844284609,0.9919853278787378,0.9926104635650694,0.9920381682507075,0.9884224147787533,0.9816000570624878,0.9750810605687792,0.9730075016317118,0.9776848839139157,0.9849085342027849,0.9883353703825246,0.9881960045621463,0.98548070550594,0.9788916036187717,0.9700248202289993,0.9575767886562554,0.9356323936598693,0.8920152421589163,0.813965793120527,0.6831836661479695,0.4144555100940933,-0.09405053693216574,-0.5227998101279246,-0.7163251283026837,-0.7989991300158484,-0.836678058013606,-0.8570930611485963,-0.8760076362160876,-0.9000792130038351,-0.9269717059881215,-0.9496138769900448,-0.9626170529795457,-0.9683633864926685,-0.9700868490313691,-0.9676621127665697,-0.9619498143323426,-0.9578316275124086,-0.9587648159505502,-0.9642322882086876,-0.9715053280791545,-0.9778026444395154,-0.9814394927310369,-0.9820107814578777,-0.9804320618646263,-0.9779053901679855,-0.9747513244382089,-0.9712380249471635,-0.9671096536185173,-0.9636934243156159,-0.9655137449900458,-0.9749734025059317,-0.9787977728931158,-0.9580446942618841,-0.9256419564972888,-0.8967078849590772,-0.8640028050995685,-0.8142785399516576,-0.7447503315069266,-0.6602085530602375,-0.563386527291565,-0.43020015115157845,-0.2439890931717954,0.011750697218544937,0.3151486252890004,0.58596379311368,0.7691568591046858,0.8712061574667143,0.9173324901872388,0.9371578751047492,0.945400318348123,0.9471477067811942,0.944785450892312,0.9401628135101557,0.931780872214263,0.922335222874903,0.9172884456651135,0.9206759106517904,0.9313900509866684,0.9460857780572715,0.9607569813650234,0.9737937278813636,0.98359639588979,0.9886140185706689,0.9883897730041078,0.9842651096586238,0.9786967848263808,0.9711968571299706,0.9616930543704794,0.9523785432564468,0.9455513790785444,0.942851832023826,0.9436983668540595,0.9429634403062506,0.9321932389529984,0.9058229661784472,0.8642180930417043,0.804665834385019,0.7054326648646189,0.5566649892288346,0.3645826529376564,0.1275080841113866,-0.16833542555450054,-0.4733399249220869,-0.670839637538007,-0.7633004452229838,-0.8161722921809903,-0.855367971917881,-0.8870269419120618,-0.910021083718319,-0.9286939024743739,-0.9474971316498303,-0.9633350655834828,-0.9743567873176625,-0.979582915177566,-0.9808313773457932,-0.9801297370786797,-0.979308459288445,-0.9800244653205682,-0.9823469052211818,-0.9849645406606805,-0.9867253856936267,-0.9869075507026261,-0.9856942354181853,-0.9839888202758987,-0.982595578586017,-0.9823662997688202,-0.9826107226073232,-0.9825363641681503,-0.9818061833337223,-0.9804805791845688,-0.9784876347328239,-0.9734725252607168,-0.9630405558638973,-0.9468276595790915,-0.9250778378284179,-0.895738423574762,-0.856439433213532,-0.7963072018008115,-0.6756184514743819,-0.4135661400612103,0.012388087866387029,0.38214235075430636,0.5905795880743371,0.7042488938999693,0.7729987583564079,0.8163967586441228,0.8488380308546889,0.8773121224349697,0.9034465289266469,0.923971684251311,0.9375458276578623,0.9475134247002263,0.95619000004236,0.9634430952560307,0.9673130865732867,0.9683508794356092,0.9681126655725435,0.9683669482107206,0.9713226490310958,0.9774953101203299,0.9847105234620878,0.9893821444656387,0.9919524395536493,0.9934805234788233,0.9937369282353359,0.992531306168162,0.9912303117486226,0.9913355518798915,0.9925795199888608,0.9913335091410707,0.9857631635475056,0.977527084746163,0.9692022629936511,0.9612622151885087,0.9527877394720825,0.9385780431658552,0.9116188276176121,0.858971906732894,0.7545712791726429,0.5673140659777604,0.28968582698961914,-0.03500553482499429,-0.3165608387147511,-0.5152558964586381,-0.6390277787463147,-0.7268540949095574,-0.7998733749602328,-0.859028827087975,-0.8951675799639855,-0.9141042219823045,-0.9259240580729861,-0.9399698621408147,-0.9612269521587277,-0.9801184129100313,-0.9871427457567874,-0.9840878338237959,-0.9807336722079505,-0.9811286569390373,-0.983480480305559,-0.9867791582246198,-0.9894709488095926,-0.9895813425519427,-0.9883532146531366,-0.989786244286939,-0.9936401086015725,-0.9919230342470827,-0.9728927225227468,-0.9367412466424471,-0.9044959342814786,-0.8989016188418096,-0.921415692219938,-0.9551381564159819,-0.9778900594758912,-0.9789448000036626,-0.9660629766632052,-0.9444878600855173,-0.8975519782085557,-0.7858557978243165,-0.611342255461528,-0.4334679153142174,-0.27169659847070615,-0.08382309156115055,0.18799849301690297,0.5293404402191758,0.7716273952020822,0.8758510656837666,0.9106609874224652,0.9262528353107866,0.9394501636999909,0.9508974746969165,0.9584256356986716,0.9636546775850989,0.966970866297284,0.9682843686277514,0.9648759349660011,0.9604120796584035,0.9595480361299074,0.9628778420076242,0.9670803960296356,0.9720255114977818,0.9769482777956944,0.9803577380036317,0.9815385128032256,0.9809191393472277,0.9786697446646033,0.9750396488417727,0.9714619877809587,0.9688400175497601,0.9680423662611091,0.9694861581261253,0.9728809935626427,0.9739062065563684,0.9690579573759001,0.9558967242957767,0.9364568829988218,0.9125689463777874,0.8788297906411079,0.826745445151645,0.7345554870192469,0.5591612443697559,0.2719902058280349,-0.12517410757699096,-0.5089809932022457,-0.7330662840587484,-0.8360024775680629,-0.8840713710222651,-0.9099864523828557,-0.9294220017653084,-0.945012129672881,-0.9544547904253242,-0.9594095902821306,-0.9612146915097874,-0.9611780057227093,-0.9600008119885011,-0.9589424233520778,-0.9604489922633533,-0.9668275298468272,-0.9760687494736688,-0.9835300362607445,-0.9888338475153513,-0.9919019688419946,-0.9913891244708491,-0.9876435503189765,-0.9821519572335584,-0.9776259449290209,-0.9766936158048086,-0.9796700067903801,-0.9834922986469533,-0.9845748466095752,-0.9826093028584657,-0.9767583697455976,-0.9669208198218135,-0.9566432605714775,-0.9507239786664952,-0.9464909135346231,-0.9354644415076144,-0.9097584960824607,-0.8558573553445122,-0.7443390420950495,-0.5088556625850935,-0.14727424847027543,0.1931315592055102,0.4197534406121202,0.5598961807051106,0.6595905096402661,0.742186014373488,0.8056150618691212,0.8438110669463859,0.8634779821207679,0.879307682557613,0.8954401418648635,0.9124655007948528,0.9270642855658194,0.94008512394254,0.9527370586726441,0.9643079562882626,0.9721949311890794,0.975036537677349,0.9745909034097404,0.9738156009501578,0.9743464627215639,0.9769887992253427,0.9806090245007711,0.9850678045578823,0.988738119393806,0.9874839658328084,0.9789683561234905,0.9670380845004704,0.9564809676867498,0.9501988940740144,0.948559133408946,0.9500469772241968,0.9516710129919268,0.9506754896437365,0.9470356432455109,0.937058088629263,0.911500270975698,0.8549140227278478,0.73226986715609,0.47955872579987857,0.12892438475247306,-0.13535343558380325,-0.29568673226395276,-0.4115270637021811,-0.5228550400410918,-0.6388903778633993,-0.736425443100552,-0.7981958550565375,-0.8357791336802866,-0.8657244127897478,-0.8916762194295196,-0.9127574793815861,-0.9290463050392251,-0.939068771895796,-0.9431549814308485,-0.9449406251630232,-0.949027933642792,-0.9582367140834654,-0.9693184040552514,-0.9785199457826583,-0.9839313402826501,-0.987072187413661,-0.9892839189314225,-0.9912208644643068,-0.9927075446483451,-0.9937246270642683,-0.9941244516066635,-0.9917268994189234,-0.9840313278290129,-0.9704796541624972,-0.9537234993577828,-0.9367833178238665,-0.9236799567117163,-0.9097776308400513,-0.8910220517978419,-0.8651590457184035,-0.8174145964878969,-0.7301665989777725,-0.5869118560029893,-0.36272441765941804,-0.05172571363167262,0.2531678000565664,0.4667010769834003,0.6086308171279535,0.7099539225195989,0.7866900461450829,0.8419529624514465,0.8818123371836032,0.9124894697540831,0.937542974760304,0.9571145867347882,0.9711229712714413,0.9786339679665269,0.9816272004335679,0.980760482947388,0.9766754098980271,0.9716958179313906,0.9687962695781286,0.9692414460391489,0.9721703054468498,0.9769781504841358,0.9818985274440823,0.9857755604049808,0.9880964931484448,0.9893281011008681,0.9900226196613585,0.9896299104786211,0.9883939253686389,0.986663169276082,0.9855754560248486,0.9844841727064482,0.9843893000648947,0.9845796436674947,0.9823523638573374,0.9730790914367221,0.949031230488316,0.8949529802894731,0.8003359269742746,0.694362225692309,0.6189216448799717,0.5293472001425965,0.3014394010571913,-0.12557346284534399,-0.5156869111958583,-0.7182842834045783,-0.8157604327032131,-0.8711149200071088,-0.9078560402608649,-0.928724247076342,-0.940526520248746,-0.9494944738863741,-0.9602095603734451,-0.9717977905278521,-0.9806250171853674,-0.9842596160867999,-0.9843261272772713,-0.9825849117438104,-0.9812679153453184,-0.9826179678089897,-0.9865400678491442,-0.9914337902516545,-0.9951805867121205,-0.9963086238838548,-0.9949780207624305,-0.9931550250964654,-0.9915282303882498,-0.990197773631881,-0.9891557513774479,-0.9877967519155088,-0.9851164496880199,-0.9791933991815789,-0.9678559674266399,-0.9519910107267184,-0.9364682128404022,-0.9288800781771919,-0.9256688806792112,-0.9084554694415093,-0.8650323819376825,-0.7996158778039371,-0.6847365437102088,-0.41829818016575787,-0.011438430543420936,0.3095927147550314,0.5027120728913249,0.6243493301571851,0.7108596387215554,0.778037545533536,0.8289954864843571,0.869006930932324,0.9027910961787426,0.931451093292571,0.9533936121213108,0.9691091302957195,0.9801927269422767,0.9865444377963197,0.9897062396981291,0.9904377504394334,0.9904196632036606,0.9908552078984034,0.9922264589559966,0.993761267927466,0.9935884475082943,0.9902557934507622,0.9841579434710437,0.9774308493139486,0.971862686260561,0.9695225895470847,0.9686820521703157,0.966455457523414,0.9587985665795971,0.9417804303327582,0.9140141071004679,0.8836265958895763,0.8642075559141665,0.8582655428008416,0.8383394441607588,0.7741019332071729,0.6786181014896557,0.571244146201859,0.4246336568634233,0.176040058445165,-0.16987661445830315,-0.450038570050171,-0.5921865508698059,-0.6504994343683781,-0.6770643752113125,-0.6975531503436531,-0.7311123995010788,-0.7844948846109896,-0.8449519552222668,-0.895022033166957,-0.9297746842116658,-0.9525547735628834,-0.9654406225158504,-0.9715321588067778,-0.9743864146612286,-0.9764315938130189,-0.9783399740111467,-0.979790023689948,-0.9811185165467502,-0.9821355656089169,-0.9830270969053063,-0.9837482048403063,-0.9843892074636454,-0.9857734481249519,-0.9881714133840982,-0.9885363648505815,-0.9801069164817853,-0.9608000483001333,-0.9342791240355893,-0.9099920397870869,-0.8864641754184984,-0.8601623331595192,-0.8354214672810677,-0.8106596436732695,-0.7785339821450352,-0.7263647039851125,-0.6375162962018094,-0.511207898020647,-0.36372602651778513,-0.1976375717403876,-0.00188636162936828,0.2504740354180212,0.5035794523162535,0.6821896510976513,0.7870151978416794,0.8542054829384214,0.9007951656585257,0.9322496716497244,0.9539658700868119,0.9685635072243617,0.9782999206583016,0.9835544445000463,0.983638869449924,0.978631857299622,0.9716047074363962,0.9671605011974429,0.9659643668058674,0.9678446561720946,0.9730451764148745,0.9799682238409114,0.985711649122497,0.988512003734178,0.9884442528335831,0.9871825189710209,0.985746703798602,0.9853157509936551,0.985200487188994,0.982606150335686,0.9779691246785329,0.9745171583401913,0.9688137228470038,0.9519486752062002,0.9155488821128266,0.8545828051196483,0.7757537309375119,0.7048962882569492,0.657874415640225,0.6134578513388471,0.4825177537092502,0.1470188176443433,-0.31949444055490256,-0.674037081657317,-0.8332753470107411,-0.8845426815137659,-0.9032399762275398,-0.9186941257409444,-0.934053880222629,-0.94744899984055,-0.9584443765264419,-0.9675380267453392,-0.9737879916970896,-0.9753203532192934,-0.9704986378836603,-0.9590187223414436,-0.9450414104410969,-0.9376179253296147,-0.9403372702515584,-0.948481957209313,-0.9575901624346856,-0.9654746969496876,-0.9718796522705919,-0.977751962468239,-0.9835937864445435,-0.9888796922068078,-0.9921404288659076,-0.9920207702319176,-0.9881291465976433,-0.9820834229387112,-0.9763032174322199,-0.9729027106088793,-0.9709843480230724,-0.9655662150112547,-0.947546630708044,-0.9105505248282758,-0.8515957110920057,-0.778161609801867,-0.6946104382094246,-0.5629536305707823,-0.27060345246371303,0.15673311005014992,0.45139002106224485,0.6133695277328836,0.7085638247861074,0.7689990826364841,0.813067769583771,0.8500420794329273,0.8849822382438903,0.9191445736169511,0.944345608870632,0.9583788372329625,0.9672098351100672,0.9750153233829653,0.981436204585761,0.9817015583256548,0.9779620119324628,0.9740509340130526,0.9701613932635192,0.9667513980202653,0.9661593370081949,0.9690911440889017,0.9735477858733536,0.9782534263915195,0.9810618904434422,0.9797567544942433,0.9734764763647079,0.9654261348814203,0.9613305826678554,0.9629935227581785,0.9665106501652371,0.9683280165308499,0.967445667507986,0.9657148600141646,0.9637243143699183,0.9614447449317096,0.9554946437327302,0.935580200530354,0.8776255384257562,0.7206087198433065,0.39414332821141485,-0.006666935182575022,-0.33316273115885103,-0.5550128271060661,-0.7050045381194292,-0.808729469244362,-0.8750675065460057,-0.9077530954943612,-0.9184150153792873,-0.9190804319508383,-0.918802989313933,-0.9229314554617027,-0.9320460722529488,-0.9444325185021705,-0.9550149933693027,-0.9598107346383512,-0.96039837269025,-0.9616025233166908,-0.9666710757514151,-0.9739680683546346,-0.9809286291454536,-0.9854133127334194,-0.9872248393052818,-0.9877664613833876,-0.9878886865975682,-0.9878590376867655,-0.9864264438052878,-0.9812581609054332,-0.9732787064231646,-0.9658273940146898,-0.9608292735731487,-0.9566477433259514,-0.950960713716244,-0.9452985732758289,-0.939710650497119,-0.9309544988765048,-0.9118795299300315,-0.880533836094837,-0.8281078816376429,-0.7245468869226791,-0.46793825632343783,0.017806207463726506,0.4459980384501364,0.6604553308821061,0.7615559730778658,0.8111044453150542,0.8373588854315275,0.8581080599621426,0.884333709021424,0.9133372492255016,0.9367047425662458,0.9529732714635192,0.9617955920038065,0.9640746456708761,0.9618720251401698,0.9573602673983703,0.9543468148414477,0.9559232626308428,0.9628655458350441,0.9708561708679705,0.9776292372004148,0.9823853280999306,0.9851969588272135,0.9874613091195804,0.9905832301173775,0.9929156095673308,0.9924393259816224,0.9895147687692762,0.9844593452470314,0.9784451912732396,0.9711855594199162,0.963092951511972,0.9550540888667713,0.9458415828923414,0.9295947889487663,0.896740274205866,0.8375629152169292,0.7421821406700027,0.6129297972037293,0.46112590614326143,0.28575255857103715,0.0780436492869714,-0.14955722309671365,-0.3574887823189895,-0.528787700043301,-0.6627092284521703,-0.7547820230649627,-0.8170894240226444,-0.8610812760178528,-0.8966645273430235,-0.9259602539054875,-0.9497572794576321,-0.9667728818798722,-0.9763284216443212,-0.9806865333657951,-0.9821738349113581,-0.9819921855890822,-0.9818179214282521,-0.9829472281191083,-0.9851447320495373,-0.9880315716801934,-0.9911974493588044,-0.9938579809934295,-0.994778358012925,-0.9932142102239601,-0.9881620938781119,-0.9804209330011389,-0.972948857955623,-0.9690377492664801,-0.9702513715834635,-0.9739108141976224,-0.9762291806924056,-0.9761547749041961,-0.9772546218052605,-0.9808852353012757,-0.9807427518151645,-0.9669397669440214,-0.929809005447061,-0.8546151454140666,-0.7140748283790924,-0.4737291277833372,-0.12475544822240095,0.25567388848117,0.5304349442231389,0.6875212351844338,0.781323084730459,0.8445371345096767,0.8912663561893623,0.9244375188180526,0.9473185806875728,0.9633583910004312,0.9734469487291102,0.9785083533206799,0.9800759511828092,0.9802830332344785,0.9798078626129556,0.979486246448763,0.9796106359806808,0.9810545982691593,0.9841212954098453,0.9879414601348417,0.9908903063550245,0.9924233862795849,0.993148609501134,0.9940567529066162,0.9952448926026615,0.9952725864347681,0.9938428066266667,0.9924700808343411,0.9924633932378547,0.9921139002069863,0.9904344478914918,0.9882362635923538,0.9859973600695858,0.9825935520706239,0.9737657269561064,0.9442106720994622,0.8487059619089083,0.6503797989476966,0.45071819785068107,0.32562672055724573,0.22945662245421267,0.08252288257003439,-0.1831602179753319,-0.47378157826348605,-0.6519044770780211,-0.7487539389601547,-0.8083032447952823,-0.8468160493431659,-0.8812524614769724,-0.9179972079987908,-0.9514664503955711,-0.9743166942211484,-0.9849416619548308,-0.9884012425292662,-0.9896969623099996,-0.9891487567719657,-0.9865785471819233,-0.9840970668085403,-0.983859942317109,-0.9862150737966466,-0.989967567957491,-0.9937998397429877,-0.9962000481970303,-0.9964927262944125,-0.9954409679802879,-0.9936323082809798,-0.9915004953680656,-0.9892832625457786,-0.9860726443901273,-0.9800399520574316,-0.97136331001434,-0.9629665183274586,-0.9558681180094323,-0.9498060548077826,-0.9413488700535702,-0.9247725918796574,-0.8942363745662071,-0.842814558022115,-0.7705793398924293,-0.6850247137405124,-0.5662130550980773,-0.3321333834894821,0.05833952007148592,0.4527486838627448,0.6937006075305093,0.8168179263534634,0.8810525260028171,0.9189338478292651,0.9423590769313492,0.9569513043632163,0.9644511457628128,0.9676831737689073,0.9678714678230796,0.9664784929562643,0.964939546762616,0.9659628210410217,0.9718604335533214,0.9825601963162545,0.9920235493007536,0.9932604449555885,0.9881801950930806,0.9844990167891311,0.9861375703283327,0.9894803345202547,0.9891335145495361,0.9857954949839727,0.9843356875678612,0.985749948482942,0.9884473724925377,0.9895794988473287,0.986947211701717,0.979734841213165,0.9675082500092712,0.9505204536205245,0.9295294398909106,0.9029343619851379,0.8573150941519767,0.7658395962803738,0.5718795932557403,0.25471230940338774,-0.06842978551882778,-0.32411081141698306,-0.5222546085517762,-0.6598773136562215,-0.746653340155634,-0.8021841927034593,-0.8398289563455883,-0.8653943732510567,-0.8826171225710926,-0.8964573442112704,-0.9090979956147859,-0.9223138768810877,-0.9357636713948492,-0.9476983257998405,-0.9570849122576178,-0.9642313414292227,-0.9714827875131823,-0.9794697008907461,-0.9867292894324231,-0.9917543863725664,-0.9941106330328535,-0.9948494089707202,-0.9955874976680357,-0.9966960879294364,-0.9975059928904008,-0.997971856123145,-0.9978585161814666,-0.9966517460637446,-0.9947836507398159,-0.9919962363434289,-0.9867023437089089,-0.9751937676802306,-0.9525976917766162,-0.9151318285556149,-0.8639135799633919,-0.8038878560823458,-0.7341449267659808,-0.652057825814338,-0.5405495404249331,-0.3592783281056285,-0.06499607948099294,0.2886364011340853,0.558444299462659,0.7070709275523106,0.7795657409321938,0.8076059927730433,0.8124883364294428,0.8089830604357485,0.8135993829150352,0.8371637319286255,0.8755471647314833,0.9129264389426367,0.9329195224573393,0.9362998051153936,0.9410255221044542,0.9562655888903017,0.9738604723256097,0.9870016893959707,0.9934136881321236,0.9932821452996726,0.9876976344512378,0.9805843345632812,0.9778053285673486,0.9806291143234177,0.9838692687785444,0.9838418157131795,0.9815855112684537,0.9772030067936089,0.9701664491323818,0.9612367599163363,0.9477982782610725,0.9259976284404524,0.9004069067955124,0.8889773802083667,0.9025321891499379,0.9096690019961817,0.8214163894980112,0.6190662682065956,0.3823784304322306,0.11839998433039288,-0.23231808845145407,-0.5801444559456422,-0.7687380256806597,-0.8389192810290272,-0.8656553254040735,-0.8749326799995573,-0.8763140862872651,-0.8775950184910485,-0.8752472829559209,-0.8660663928783403,-0.855835535387537,-0.8518948359930973,-0.8587130965747201,-0.8789631378101294,-0.9041973850478529,-0.923314904448611,-0.9314642677010794,-0.9322006191586042,-0.9332517726419145,-0.9386456233732634,-0.9487278908690145,-0.9621525698836487,-0.9761452295232029,-0.9850447044213109,-0.986663987195912,-0.9836055570759228,-0.9788203260040452,-0.9735506622881669,-0.9679449981231281,-0.9628052657710303,-0.9604718891188927,-0.9607998931468932,-0.9597770049855269,-0.9499708075966903,-0.9252308391297036,-0.883878641928591,-0.8273100541772256,-0.75374130490346,-0.6612187023065097,-0.5335618327036212,-0.3552079138906044,-0.0876943791578269,0.2583553142052323,0.5715923336074338,0.7660785482526031,0.8661438706267875,0.9152751054608043,0.9418369064964585,0.9576139680696291,0.9688558076688183,0.9783286535548769,0.9856225594820264,0.9906067511570622,0.9929802909735062,0.9930156754300955,0.990731941506984,0.985166553506933,0.9789837208675994,0.9759085672857168,0.9760254172097638,0.9785436971108805,0.9824659018175449,0.9869871171307723,0.9899582216047594,0.9898200071145715,0.988228043634156,0.987387905529216,0.9867612575802794,0.985068535412505,0.9819021083295417,0.9770908510000494,0.9711212620181873,0.9670041446661357,0.9644500077499812,0.9567718780997063,0.9281798221422535,0.8637050506653763,0.7554675241634851,0.6109889338073471,0.4427778193923934,0.24996046662343993,0.020653288006458638,-0.2059222393981953,-0.38805020861714506,-0.5209004810198021,-0.6260090385985456,-0.7254649915730762,-0.8153633147926891,-0.8815293094108541,-0.9218855442437893,-0.9448899023517877,-0.9595229059321266,-0.9690462128195937,-0.9747092071448051,-0.9777727974794772,-0.97995164936479,-0.9820585670287248,-0.9834921271528596,-0.9846693871083341,-0.9868902799794252,-0.9885026517740373,-0.98799176254085,-0.9860666944089159,-0.984195600399975,-0.9825338235195276,-0.9827367120693311,-0.9847564880737291,-0.9862281706079312,-0.9850377707244979,-0.9815415029052059,-0.9791500537086515,-0.9768853193540615,-0.9712711829115005,-0.9629702748810637,-0.9485728495439356,-0.9240127426499265,-0.8803832722020746,-0.802706563067745,-0.6636607921930598,-0.42321071446758984,-0.10995448905173048,0.2035518344097057,0.4327117099869753,0.5737999812290714,0.6518758294900541,0.706827924008952,0.766043509088947,0.8300929650299201,0.8868983865071505,0.9250647298895197,0.9461801869356141,0.9595076952264703,0.9685113102860899,0.9716706818310321,0.9679462694567289,0.9617012846596149,0.9588459606987167,0.9606738508359108,0.9662494832411608,0.9719849104938213,0.9761446569499108,0.9778828544170776,0.9778471687777839,0.9770127350895604,0.977141487844667,0.9787422633887233,0.9799189260082015,0.9727539158478833,0.9570625548743538,0.9415497505993695,0.9339318039389237,0.9311099460087517,0.9270078519330174,0.914510753858847,0.8859173689157074,0.8350105632469214,0.7686381413004463,0.6874679764956121,0.5537005752238524,0.2966515898336949,-0.104472393864189,-0.4728273508439946,-0.6741672298424615,-0.7508822757537897,-0.7832431050202565,-0.8182712899234827,-0.8624264731218522,-0.9037637992172678,-0.9375955536928084,-0.9614660386652006,-0.974778302396636,-0.9794927195872432,-0.9813374245305385,-0.9827272364482077,-0.98316625625872,-0.9810547464506344,-0.9774886544162718,-0.9756766771706958,-0.9765294471767392,-0.9794450840184814,-0.9842599637347564,-0.9895397916047568,-0.9936675766284476,-0.9953830503772741,-0.9950312316152653,-0.9937281873438386,-0.9903421063496413,-0.9849995090722249,-0.9810685357752276,-0.9799860702231347,-0.9812974139068551,-0.9831519066707631,-0.9845677131898681,-0.9851956685698233,-0.978619030622386,-0.9529827397024477,-0.900227968992919,-0.7995334975951279,-0.5789609937890581,-0.20533750170238269,0.14242181044307528,0.35186083376928445,0.49820024763697657,0.6181934309426801,0.7139694510972366,0.7869160558859827,0.8430539135314682,0.8835149794638061,0.908260082437213,0.9203060936005538,0.9269870903952396,0.9344473278634287,0.9449654890295381,0.9549650065706816,0.9605456111207297,0.9619748091504857,0.9618519526360403,0.9619721825225312,0.9637264973999595,0.9684143550795901,0.9748417828860197,0.9809342671765694,0.9858360125845903,0.9898802840785114,0.9931186396661192,0.993764702951242,0.9907232205757951,0.9865520352797638,0.9833568203392354,0.9807626641243097,0.9764533199941708,0.9684219907933084,0.9548229704486205,0.9322671778312088,0.899768148527656,0.8610907204301961,0.8203712281337626,0.7773156155634573,0.7075831193351967,0.5518576240464433,0.25364495763693173,-0.12451829287358704,-0.415922248786412,-0.5945222047817883,-0.7180436380585226,-0.8198695850464324,-0.8965183131950457,-0.9402921597101163,-0.9512748064459418,-0.9396382357804184,-0.9243003322167698,-0.9254870860277122,-0.9507148469912928,-0.9746390674721798,-0.9684820962559434,-0.9514456620750208,-0.9500288064007657,-0.9634565087156318,-0.9794612623189594,-0.989147066255431,-0.9922677199535456,-0.9915361655054912,-0.989797982449324,-0.9893168753135655,-0.989799093141688,-0.9896212751523961,-0.987667467983012,-0.9846678384998332,-0.9818670611442776,-0.978622154421709,-0.9755333588511657,-0.973143777837726,-0.9709763513918603,-0.9648666996949136,-0.9457426996813205,-0.903948476837698,-0.8311364151558442,-0.7333488677397114,-0.6092543737560976,-0.444442348517309,-0.1679442921045374,0.26751652113213503,0.6114922737771934,0.7802543382456442,0.8645514687339961,0.9106996081760955,0.9378779552716634,0.9510811049041253,0.9507630610625625,0.9425147450027684,0.9343327378397036,0.9258248303519817,0.9172846644596389,0.9151686237688459,0.923106575770706,0.9397985937529211,0.9602469411255398,0.9768993373554774,0.9848230202665583,0.9863284453265017,0.9848407485017332,0.9810286562928638,0.9750830003823939,0.9681716266695906,0.9626122866803098,0.9587028696594481,0.9557188843377612,0.952857303868846,0.9471178519613968,0.9345949961334004,0.9109156057778915,0.8780954313723723,0.8453061596484516,0.8187080589868853,0.7968139163881321,0.7711433982899004,0.7318928440335787,0.6721143290434961,0.6018205401093868,0.5298910367036862,0.44529475580258987,0.30864971169745775,0.06215909880950965,-0.29210147087840194,-0.6020782481419974,-0.7722300515149156,-0.8538748648850049,-0.8963355002732664,-0.9218810210871493,-0.9387738174679972,-0.9521300115468309,-0.9643019568377283,-0.973921071989789,-0.9794691947038743
