0.694129324489895,0.7720377767324907,0.8155283936966066,0.8426890916583893,0.8650852791822047,0.8889057660263459,0.9089104489891134,0.9188893714835095,0.9207860494075468,0.9195521000991702,0.9203034922809662,0.9244651740219044,0.933806136478133,0.9477945104398158,0.9620213337766834,0.9701947566709012,0.972350006506337,0.9740070005051066,0.978493504786722,0.9833568212271391,0.9865847643819917,0.9874616229536389,0.9856657954273229,0.98165191469378,0.9771607458609662,0.9716018322088998,0.961373735801533,0.9414525355466244,0.9153459840682013,0.8887590682968425,0.8505422687113359,0.7690321420418872,0.6140516256666735,0.3675374275334192,0.05915624112694641,-0.24164218435187118,-0.4907460573636664,-0.6457031118401262,-0.7218258421101845,-0.7649267436700484,-0.8020229089192594,-0.8333130002567332,-0.8533373753391785,-0.8636773517075295,-0.8679839417033723,-0.8693958939569079,-0.867136875544683,-0.8585592091257042,-0.8387650925812231,-0.8150111262681193,-0.8072107836332502,-0.8275906044256702,-0.869550225451106,-0.9134059040751008,-0.9468787765217859,-0.9675580134139768,-0.9798845348684174,-0.9869614737239634,-0.9911831471293483,-0.9943877498569491,-0.9966706872165528,-0.9964028139787575,-0.9924702907172546,-0.9840320503681121,-0.9702052679235346,-0.9531599957408392,-0.9393003982930161,-0.928312508791867,-0.9065555612963591,-0.8618057438315174,-0.789797185024725,-0.675863507396557,-0.4724381120406416,-0.11537896469755818,0.2686485002983175,0.5156801678596955,0.6587160137829241,0.7404189079778416,0.7916244390120666,0.8308362787361908,0.8629481713094875,0.8875352230392383,0.9032239267801722,0.9125781024546608,0.9197176727904741,0.9277496628085172,0.9364114873238322,0.9446394774166168,0.9516763954614461,0.9555343818037766,0.9566642268477028,0.95808167453166,0.9612223219037147,0.9658350731946558,0.9710421146999962,0.9760210804395705,0.9800673348487854,0.9833916826429265,0.9865559565738501,0.9892221672492625,0.9917559526884795,0.9942548733977774,0.9939185188314937,0.9864201707754622,0.9669051488459444,0.9400575883274775,0.9158464207375084,0.8970021263987751,0.878795686941803,0.8431249653381269,0.7592277499543801,0.6037416610913596,0.3924721084729882,0.16883216617462,-0.02849347571591094,-0.19391783245634453,-0.35607159041326075,-0.5231133373286226,-0.672757612878417,-0.7685402768927637,-0.8085466962779974,-0.8136324150607408,-0.8046035982082081,-0.8036746238163753,-0.8200464252447779,-0.8514374697622447,-0.8913023432317212,-0.9311864633820464,-0.9609120156871785,-0.9705545666341296,-0.959176046495007,-0.934657164791131,-0.9066924641587593,-0.8825802282799409,-0.8735214106223469,-0.8844969102277571,-0.9095685644294815,-0.9379916018313738,-0.9619277251431505,-0.9760235214487624,-0.975602929080347,-0.9622661795431536,-0.9432845163777968,-0.9281653497314176,-0.9202390051120175,-0.9184738062893989,-0.9187850391943081,-0.915098041721595,-0.902140194964252,-0.8781502912754636,-0.8458176281407163,-0.8012475697833082,-0.7208369637707075,-0.5447757047259233,-0.13808522313804303,0.40234968238615004,0.6816519041027556,0.7760871279539123,0.8033161545480642,0.8015179903548857,0.7831156519024497,0.7526871463556906,0.7228601697537275,0.7094103875845841,0.7153231102392168,0.729520797496311,0.7514443543077813,0.7845308349988115,0.8297420877273217,0.8784391439940762,0.9196976268766289,0.9470336170818409,0.9613483890162713,0.9648538898968092,0.9603660552008187,0.9476196525425347,0.9217956402336975,0.8704284422133916,0.7822980566374037,0.6872310249253486,0.6279229238273671,0.6114718805087861,0.6275984932790662,0.6674377301690986,0.7180331098565358,0.7611020228131891,0.7835830027460848,0.7885162837089843,0.776826660783515,0.7430610123891804,0.6677433168825726,0.5237013395893138,0.26816553141127714,-0.08835506989028721,-0.4277662224830108,-0.6357889438946281,-0.7336868008695547,-0.7680346928513333,-0.7668435038853183,-0.7414061523497816,-0.7009588453660397,-0.6615988632053091,-0.6491317351994849,-0.6795835336309296,-0.7402775465410409,-0.8036251758898016,-0.8538105515687551,-0.8838228142010405,-0.9017262348467372,-0.9132109587335373,-0.9273290216786118,-0.9464647634695915,-0.9642817062279232,-0.9751297255313726,-0.9802517881128391,-0.9827058530874121,-0.983916135899327,-0.9837612782737799,-0.9816112534427895,-0.9762264028790582,-0.9674447952879186,-0.9552461853621823,-0.9369676159808613,-0.9099365415426925,-0.8806818196249956,-0.8613405153285809,-0.8621120274275923,-0.876959427313032,-0.8880363401313445,-0.8826185274093347,-0.8385149874635602,-0.6786626574538168,-0.1938231917717612,0.42703297050618383,0.7070677922563612,0.8044766754638512,0.834972409510928,0.8298529787455182,0.800983207421683,0.7733416785456196,0.7718280617190783,0.8000948216269713,0.8487980908933106,0.9030783646348772,0.9436793096670479,0.9629720105778041,0.9625340039200357,0.9514052711313188,0.9395167129893179,0.931777303514716,0.9298267357203319,0.9313610035855562,0.9334775124290423,0.9331538155387259,0.929838896758244,0.9246309254116545,0.9192995212613788,0.9136499958482714,0.9079696052332317,0.9037266044685138,0.900391649764904,0.8902792018566046,0.8709978572691633,0.8511449299410789,0.8402582818535317,0.8375239472590644,0.8409591416271979,0.8506534854507738,0.8575156737259587,0.8507343281849354,0.8208445080456599,0.7504772507325103,0.6056137028040962,0.3664576911027488,0.056121356885991736,-0.2616440728573817,-0.5332395050469004,-0.7219414741545325,-0.8331671692975252,-0.8921788903845529,-0.9238412266332614,-0.937165476961056,-0.940509243222676,-0.9419404096739591,-0.9433847880509397,-0.9444762685094811,-0.9474218202127308,-0.9515398326491186,-0.9554017939948982,-0.9559812468274658,-0.9500053017008913,-0.9415565043907306,-0.9412864551193636,-0.9502105101383944,-0.9586617677792185,-0.95821822887568,-0.9464991823437947,-0.9249778488281174,-0.8952485375209283,-0.8620340368127679,-0.8300710761884206,-0.8048804645626855,-0.788856761088822,-0.7867398965433234,-0.8036103816424547,-0.8367756693433293,-0.8722684448547122,-0.901646767240018,-0.9245981423105848,-0.9235180886756964,-0.8679665217139867,-0.7451986648658205,-0.5791087708797359,-0.37981986736552203,-0.05728212500440207,0.42552115406537006,0.7240271322937127,0.8142296162541518,0.8562145542517783,0.8938831616649072,0.9289911990876564,0.9569208231665053,0.9727257861337567,0.972258816495697,0.9622442888319462,0.9543195548442575,0.9531696800257369,0.9554441558776229,0.9560470817293503,0.9522431872077848,0.945380208290033,0.9385683243808081,0.9333330150011316,0.9276722847611749,0.9215484483390296,0.9151006095454242,0.9116717564418003,0.9132383219492157,0.9213589528254315,0.9319351084011724,0.941067947511128,0.9452965403619755,0.9435736507445551,0.9387928107660897,0.9380938516585653,0.9475469638042052,0.9599488377698148,0.9648962373081936,0.9543073551659946,0.9181895773820518,0.8227632519213637,0.5182312369187705,-0.12473159250095588,-0.4327009060090777,-0.5238261152907931,-0.5723117135726842,-0.6085196840601792,-0.6375078306163406,-0.6609819065920495,-0.6765257034809828,-0.6780313737076404,-0.6706783124630417,-0.676048425842852,-0.7180245032040575,-0.7903819509015506,-0.8602191637622714,-0.9052104567683403,-0.9258241377439252,-0.9271509973612896,-0.9115506255227559,-0.8882793176906282,-0.869024948938381,-0.862306896866296,-0.8728008250660417,-0.89607082840617,-0.9231814676748459,-0.9470369002651386,-0.9650939930726823,-0.976973637437376,-0.9842811684742013,-0.9858070885057587,-0.9766516179879082,-0.9587836798383347,-0.9396390566821377,-0.9181251418812855,-0.8871048975226934,-0.8493418364323367,-0.8150783272177278,-0.7884168652451303,-0.756236975877555,-0.6937309140879713,-0.5908468357791254,-0.43994953656603775,-0.2710576866206716,-0.12959672033890082,-0.027276580736385184,0.056358353079341734,0.1505293462758102,0.2686363794505365,0.3804281338957812,0.46137430056631185,0.5342627893978288,0.6307145849456722,0.753896156915243,0.8658030914514774,0.9341322563851355,0.9630983713492439,0.9726657686757453,0.9723720203169341,0.9592254756773197,0.9315598246068035,0.9005148676602668,0.8836039543426418,0.8864588106400101,0.901794163559728,0.9200016659125333,0.9360972210141766,0.9477260134806162,0.9525031350857718,0.9477119924882998,0.9327627498575224,0.9122771107972725,0.8961422227765131,0.8906355955888566,0.889948684674969,0.880114663158154,0.8514504136533857,0.8020953091306023,0.7434950347458625,0.6832236948884496,0.6234095001170189,0.5601630908548825,0.4790781062195291,0.3545928468771339,0.17352655432111877,-0.06727776387004024,-0.2954259308039938,-0.4438856938041004,-0.5249865962180784,-0.5746876042156785,-0.6195987819251654,-0.6710371440475005,-0.7364312429839356,-0.8081434832590102,-0.8672786399806404,-0.8936089107923288,-0.8687148356444767,-0.7826615508651548,-0.6657317583345636,-0.573649843937363,-0.5344657665190514,-0.5461911500595493,-0.5982687576508153,-0.6838460222069933,-0.7885955790308117,-0.8862315008640919,-0.9495267143505547,-0.965231005422438,-0.9481111584292852,-0.9206518401010743,-0.8911439227277367,-0.853636323641847,-0.793379464306281,-0.7097389921771026,-0.628388366183649,-0.5785857612029915,-0.5683599655459862,-0.5955158884572773,-0.654034434222034,-0.722853758185868,-0.7456699110423377,-0.6259664506744645,-0.3981790605951254,-0.1911813497843722,-0.030274577735573845,0.1034720972709379,0.24506512159797625,0.4130202026443799,0.5970875974832114,0.7593072900064565,0.8567242035942982,0.8886933536702825,0.8837592428897616,0.8709328528145486,0.8686985121849597,0.8862368514890517,0.9223853150482645,0.959265920582977,0.9764569924135599,0.9710392064928312,0.9579071599054396,0.9469687548350648,0.9394862391837311,0.934622148946059,0.9330104718801205,0.9337386470870884,0.9331936887727112,0.9282543141607951,0.9173376367447276,0.9024552933130434,0.8891152158829325,0.8812141579212357,0.8778946767741381,0.8790201430758153,0.8813461696436977,0.880302178536711,0.8786473653574935,0.8809262752471759,0.8934263801695393,0.9048992463952124,0.8864177429639061,0.7493256536690103,0.19086541382328603,-0.29935191194805966,-0.4813482026936222,-0.5803609829815497,-0.6601225725237025,-0.7281111425794365,-0.7870933176886276,-0.8379168501255083,-0.880462387717891,-0.9145602495873378,-0.9416295661832103,-0.955575758941264,-0.9589066710479026,-0.9574092256553904,-0.9548110906996083,-0.954748675466711,-0.9588043099325778,-0.9630460664657625,-0.96285809962882,-0.9618348450255211,-0.9654765617056692,-0.9742142339075207,-0.9834235053184349,-0.9901166840871252,-0.9938314191173366,-0.994062326721339,-0.9902778433603325,-0.9854506331540135,-0.9859774966995323,-0.991417193713747,-0.9871427820995821,-0.9696880434576676,-0.9645982450175162,-0.984631466530627,-0.9935729552385987,-0.9453476761216604,-0.8493291366959524,-0.7452479372098497,-0.6388997812221476,-0.5086732290647247,-0.33913880687705983,-0.1451191300713057,0.05213030252965032,0.2527224256465299,0.45489054742588864,0.6264199501625944,0.744557014604085,0.812467862954145,0.8463346681122208,0.8654358901710926,0.8812103151173705,0.8956370225255399,0.9126768855458733,0.9308999524262827,0.9476769438860168,0.9608017031447114,0.9684567654086538,0.9693040700860773,0.9643217035543151,0.9573332595009065,0.9549810424871943,0.9604362974200549,0.9694049938272283,0.9728088539366272,0.9677328243311668,0.9583960202210015,0.948037143018937,0.9374248221602386,0.9264565954522657,0.9159100019398041,0.906317835130419,0.896973025670277,0.888098440178121,0.8813643885549101,0.8675169824022944,0.838027585907592,0.7893470254237587,0.7165597825545011,0.5997766885469394,0.3923712778811815,0.06495795682409541,-0.2725569203136336,-0.4976657886564321,-0.6091351823267019,-0.6504596521753742,-0.6499258621694664,-0.624623690030922,-0.5874044969860659,-0.5542338486499663,-0.5568648769431266,-0.6167260282678944,-0.7095743570798925,-0.7939407031369795,-0.847994244664915,-0.8729434151934403,-0.8790784242430473,-0.8789338315704601,-0.8878386572775382,-0.9089764599496203,-0.9350897991167888,-0.9575156429328333,-0.9740868273793172,-0.9845085429990466,-0.9901129370840469,-0.9919100095452307,-0.9913375088458662,-0.9898251429881777,-0.9877477759157371,-0.982420274404596,-0.9715879359885257,-0.9550034121669057,-0.9373320630036485,-0.9234137896512988,-0.9121871733195057,-0.89288851149504,-0.8509587754696258,-0.7854418424030681,-0.7178609437112211,-0.6558492901599711,-0.6030512983863459,-0.5481894266739236,-0.4641525072098572,-0.309729251136266,-0.05689328178629214,0.20248746041026025,0.3767134751483991,0.47665077917953874,0.5263930645552308,0.5420774118374831,0.5468848738587085,0.5626391753262883,0.6055989738541975,0.6773887720133183,0.7638531767643721,0.8385831827340977,0.8905425673878212,0.9201082750856028,0.9349148151399533,0.9427296881583804,0.9474777791958421,0.9513624294916627,0.9553465514702281,0.9597114637805315,0.9652651188370618,0.9694964517922258,0.9652395850545299,0.9510407499960645,0.9333885878084589,0.9168629660330027,0.9017659103518901,0.8882193936512789,0.8785558351112422,0.8751918437087133,0.8755829362919879,0.8706808577736774,0.8532922036631486,0.8140505269831905,0.7276762480165152,0.4918254165317144,0.08139257248878674,-0.1645093556423039,-0.24639840266495294,-0.28857249856136663,-0.3611702066538994,-0.47146201111079206,-0.5723564137033281,-0.6358421248174465,-0.6715831068244829,-0.6970982305383306,-0.7233822680060842,-0.7570380866070059,-0.798243705479294,-0.8449927413284799,-0.8878369101099641,-0.919389802018206,-0.9389518029480258,-0.9520476983881577,-0.9613194579499266,-0.9660997068490318,-0.9636564453246866,-0.9537933156859727,-0.9427896324564733,-0.9381921384121906,-0.943628858636099,-0.9553836430667128,-0.9665483455501682,-0.9717844510888921,-0.9710704940229404,-0.965211997077135,-0.9558306401607837,-0.9442781940135029,-0.9307976886597349,-0.9155911418252972,-0.8966869882455918,-0.8705157878819042,-0.8416112100411572,-0.8129727625880072,-0.7716048540992672,-0.6975393219205728,-0.5750670067649575,-0.3734075991547201,-0.08379456322840458,0.23827632430518444,0.5001389251618511,0.6678643854809702,0.768471182895365,0.8265401980324394,0.8628926528061995,0.8847919983886806,0.8971525230515656,0.907115685275179,0.9153088222498921,0.9221003910991232,0.9274337571539901,0.9304244965775885,0.9288283156216884,0.9261171050672633,0.925320374469469,0.9264263316066906,0.9296085347824186,0.9357514085576251,0.944918719085841,0.9559317126088781,0.9657540667924837,0.9716345643875413,0.9697500681531801,0.9551532836567985,0.9236981543016397,0.8761812570381553,0.8191281631671414,0.7615026930864619,0.7105408157923818,0.6681160183479719,0.63455463219142,0.6017733649148495,0.5673511314760935,0.5296634762263381,0.48736396014608335,0.43123466423595425,0.35250861691049545,0.24870916234132068,0.12426911082384143,-0.0119591645077688,-0.10830392439686969,-0.15562641454134657,-0.18094992530806772,-0.19476839448289116,-0.1976468682652973,-0.19793312702213414,-0.20427977195152927,-0.21897902241515838,-0.24159816581942964,-0.27222185765740653,-0.31342756521124077,-0.3657164987028962,-0.42933262049400855,-0.5038539752487696,-0.5914365389323882,-0.6863376628262686,-0.7751997218943018,-0.8420353018670035,-0.8825652082002122,-0.9053608892078964,-0.9212725192202696,-0.936905975787492,-0.9510400544852137,-0.9576783962720485,-0.948161885160922,-0.9192154235089021,-0.8834812633699984,-0.8616135899485245,-0.8708720658985345,-0.9143719110306802,-0.9599083576031614,-0.9531490464247043,-0.9092964164600875,-0.8737919128674423,-0.8068075519458626,-0.5973578542828503,-0.331964824692246,-0.13376991310751774,0.0017644047857387221,0.10653728935671637,0.21429637559427134,0.32127388159425857,0.38627590529912886,0.4049174691821009,0.40258929304985336,0.4028519894039651,0.42010745611511796,0.44939636681881207,0.4866345338704441,0.5275540770452122,0.5689615622623685,0.6094236808816262,0.6516784990499959,0.6967033528562323,0.7459348471848045,0.7970481486989848,0.8405942596331605,0.8690224537673314,0.8842984715304999,0.8912680004844548,0.8928560395305094,0.8880005315681533,0.8802510503899205,0.8725285313806709,0.8659884006442414,0.8592555046083832,0.8525438336807734,0.8428931351224722,0.8345788557913709,0.8392222809609801,0.8633222351475341,0.8954143851834835,0.9175448813989359,0.9253290903177063,0.9173639048115061,0.8814881627804417,0.751742781234912,0.3145621464320507,-0.08029223483953431,-0.09069911343693904,0.022085582640227506,0.07960549007837954,0.013606022032744124,-0.21324843527700466,-0.561348979780598,-0.801530186318058,-0.8871915383714766,-0.9108370600698754,-0.9184888248567737,-0.9252907178721265,-0.93339788453953,-0.9387355869544219,-0.9403624961532739,-0.9394771395307866,-0.939661123731763,-0.9429301850410209,-0.9481150247065558,-0.9535169119349558,-0.9570855384783886,-0.9583528064886465,-0.9561907625306555,-0.9524236246074969,-0.9502132406998686,-0.9497459469010333,-0.9485588674736622,-0.9449455505821363,-0.9356954525103908,-0.9170173911232578,-0.8908947188432939,-0.8676399737336685,-0.8565917697816445,-0.8535622550716533,-0.8473055371724096,-0.8338847112134783,-0.7970976247330348,-0.6471435073792082,-0.18610105020493445,0.2317674600031879,0.4048203207257713,0.49575817381238996,0.5748765865559462,0.6433125836915152,0.7007563570247657,0.7502881132091881,0.7992437879847317,0.8454350655177987,0.8834870188701702,0.9114405971795525,0.9295235237026744,0.9398083793777863,0.9451187460097475,0.9470847494955797,0.9490978733451824,0.9526146175471779,0.9546311382121132,0.9549419985197025,0.9550240406259622,0.9553629894470864,0.9558602659386191,0.9581978389820619,0.9641166970440309,0.9718375292604321,0.9776164055299945,0.9777593715314378,0.9710275925747434,0.9553012752451258,0.9268313732159669,0.884975974208711,0.8321890578148445,0.7795018449217677,0.7393379804234714,0.7117451511772769,0.6877870017206466,0.6422724716772484,0.5387433351343714,0.31748534084040303,-0.012076970572210027,-0.27168184149078556,-0.3154205298492941,-0.21577183091857993,-0.12923629879571938,-0.1358621334064516,-0.2302881936451069,-0.38489974649027153,-0.5422445646277962,-0.6544859967221819,-0.7231980138234084,-0.7714598509163968,-0.817233828930915,-0.8638104164507888,-0.904062058879051,-0.9268800651408566,-0.9259668918405266,-0.9059743970398277,-0.8812181476465939,-0.8678235128985075,-0.8667578131375123,-0.8699852632312519,-0.8713526140461596,-0.8696469027014158,-0.8699266014566148,-0.8799745877738049,-0.9088359515218781,-0.9520167900271859,-0.9783805213526097,-0.9631331098472,-0.9226093620190978,-0.8928719504170843,-0.8832689648514281,-0.87781039006066,-0.8616891323995108,-0.8312548290140849,-0.7907231930736688,-0.7441392548260146,-0.691276106666164,-0.6288158309850768,-0.5480507500413518,-0.4310878664098584,-0.24786099458179114,0.004202064542394313,0.252915133615917,0.429234952338732,0.5370817815500343,0.6045167129220037,0.6467415959965662,0.6710601079001602,0.6877182129432283,0.707415670890939,0.739141153711377,0.7824552780926888,0.8346270707877269,0.8857156557652528,0.9184858248965811,0.9297278638556781,0.9309314972366353,0.9337994285397294,0.9401621699371574,0.9468560444268318,0.9529056465670595,0.9588609381648933,0.9657940244652726,0.9734225342487152,0.9793013524101521,0.9801210600643941,0.9670960847159386,0.9302333493806979,0.873644842411777,0.8155473038721194,0.7736412313275292,0.7507830043581291,0.7453836700721997,0.7496979890379286,0.7577713955484097,0.7565174284119077,0.7096054313944353,0.5642637041153852,0.3046137661952485,0.005127461152014582,-0.21470584707907636,-0.3220666760460299,-0.37663574821226015,-0.4310767493706823,-0.5090122558741739,-0.612096236255727,-0.7153105863847924,-0.8043064327501611,-0.867908511310597,-0.903313855936439,-0.9219274468041959,-0.9326548579793713,-0.9393078027696312,-0.9440884850147744,-0.9490437698515317,-0.9560702157534471,-0.9627822893074154,-0.9653678030732569,-0.9582622955082131,-0.9359960113900636,-0.9014570076965682,-0.865970839628464,-0.8442378007937488,-0.8438926124304963,-0.8607337493188493,-0.8825120003935473,-0.8976155100393118,-0.9033358012251551,-0.9022190875127766,-0.8964427650379286,-0.8863546271756667,-0.8736008333848122,-0.8603129806948885,-0.8479842447976771,-0.8328637182928268,-0.818094241849151,-0.8104085108478459,-0.8168105062571038,-0.6690741817533293,-0.20315609235557183,-0.0021124161560532374,0.06975487199859814,0.11593007210152774,0.16304184133545246,0.21494064980391792,0.2714572780770976,0.334330861437582,0.4026429393823973,0.46757898371168144,0.5207389953182886,0.5692028935038177,0.6282973763195352,0.7068277942270695,0.80153561818944,0.8982877510596662,0.9673434335924597,0.9871568381941644,0.9815147170529477,0.9797431355088022,0.982492089570601,0.9791997288262755,0.9676827750117021,0.9545281610318498,0.9473962970194801,0.9468332484221335,0.9458207375258179,0.937702149309925,0.9177850922086839,0.8834181210503532,0.8313107479949535,0.7528519986970399,0.6461766639633534,0.5288022249594363,0.4318722114447851,0.3780716166989171,0.37527373132532243,0.4106547947583857,0.4413984619682681,0.43581284056851394,0.38391722353990704,0.27944264231487614,0.1180116417711538,-0.09963175561702715,-0.3469831741454497,-0.5427916377686453,-0.6685519326330721,-0.749703261005911,-0.8117114227801565,-0.864938775280184,-0.9043903541485845,-0.9277319157154047,-0.9391729852470434,-0.9423730825234682,-0.9389060357592747,-0.9308261623405113,-0.9198361507563017,-0.907577577051837,-0.8971692667507782,-0.8945916350508069,-0.8985839164185266,-0.9060944667166037,-0.91615878004226,-0.927775422270192,-0.939891938694848,-0.9523096759405516,-0.9618581826970818,-0.9651055799094785,-0.9598621844839881,-0.9442347691473658,-0.9244153265506887,-0.917654938963958,-0.9384312275480606,-0.9657563244603825,-0.9480223384604284,-0.8778135285037697,-0.8052022705480865,-0.7495859763300773,-0.6968429168718867,-0.614156154486986,-0.452110769575667,-0.08795876637464427,0.5653014417975551,0.8407992102618274,0.8577883276395383,0.858990448423358,0.8682977278070603,0.8839134919608043,0.8989664244503313,0.9092706548911311,0.9198766376288241,0.9297864884456138,0.9344679272569372,0.9330978988717908,0.9287134643721681,0.920804649864009,0.90973165628224,0.9013757447390397,0.9014971173486466,0.9106639994531303,0.9256234458668302,0.9409631688605927,0.9503612665067745,0.9536297809417246,0.9531610721233064,0.9500228317945777,0.9471691586138857,0.9428660974996709,0.9373280064764756,0.9313238153516327,0.9200272230385644,0.8966653479370069,0.8617411356387717,0.8238922854444917,0.7946835818365104,0.772796004575963,0.7589552777143115,0.7505072392021968,0.7506720724444873,0.7482107444821663,0.7257064365775633,0.6522317508523285,0.4723425730541655,0.11358839962648924,-0.30996895462348145,-0.6197734098581805,-0.7955725245927271,-0.8830958191648589,-0.9187024087179108,-0.9319564354928214,-0.9375356381720283,-0.9340347977656233,-0.9127117264516663,-0.8695310877522175,-0.820466192969747,-0.7940871330356005,-0.7986555676041036,-0.8191145454753126,-0.8393332696058596,-0.8493677372261635,-0.8455720669585709,-0.8294487109987679,-0.8084006510863118,-0.7921683730433917,-0.7849553456296707,-0.7900980458308132,-0.8128915286007198,-0.8592045921791236,-0.9248544243257525,-0.9788353227111586,-0.9766964726139536,-0.9262765890725189,-0.8671178649432828,-0.8162769351782788,-0.7753954739149144,-0.7381374794774782,-0.6902507792320192,-0.6057840606461692,-0.45624427058893424,-0.2682699523225643,-0.10027958727141893,0.02327256977237902,0.11810625790041691,0.20432782616261366,0.30201992473447925,0.42344868736053093,0.5651448358538264,0.706162117830581,0.8077524075581077,0.8652358145394935,0.8969076274030617,0.9174089771831943,0.9334898158990663,0.9450845146623098,0.9513385206851923,0.948242615365825,0.9329035468527024,0.9120257885140587,0.8988492052060675,0.9009816293003741,0.9140241431331569,0.9272116098265164,0.9327966540935221,0.9276938192102449,0.9170146467959918,0.9135807702362468,0.9257749185408592,0.9467651985316434,0.963817563404672,0.9697846046420249,0.9692413964644635,0.9682190582464735,0.9697587415179141,0.9696874764925207,0.95888145811659,0.9420598782858893,0.9253750824269107,0.8929436458118064,0.8127570930517622,0.6967529506447475,0.5421791047651013,0.2970588746251647,-0.014212921305205187,-0.2512493343916641,-0.3965862555325491,-0.5040289026190754,-0.6009958716454664,-0.6965570287484055,-0.7788752522109992,-0.8298851093375234,-0.8541322052296213,-0.8678368542945767,-0.8792786468285537,-0.8906997065673817,-0.9025929835582843,-0.9172640018470857,-0.933013289611474,-0.9453502863839804,-0.9537865387306019,-0.9601521723610789,-0.9632151213653563,-0.9619325097294122,-0.9575477483389788,-0.9543850342222685,-0.9532446599358734,-0.953495875911152,-0.9554388812747434,-0.9577426439310273,-0.9607584884199006,-0.9633568406346243,-0.9626534916109772,-0.954166270635334,-0.9357957811076584,-0.9045837311046879,-0.8637662535229625,-0.8150224412192926,-0.7572689030787739,-0.6816381635728161,-0.5699448327731047,-0.3870605432940097,-0.10327670096795608,0.28262125716846864,0.6873418273537948,0.759673255669613,0.6130903335089677,0.4945973311295306,0.43047907855396544,0.4086886586173026,0.4182273020215809,0.4570831883627242,0.5316202534294723,0.6373512736273155,0.7544045323230194,0.8431344157335163,0.8765821505080899,0.8709549510835916,0.8620706549150897,0.8679924530803268,0.8899300524010519,0.9160158463106219,0.9344002096317054,0.9430346829880888,0.9441102128895474,0.9432096376778065,0.946273762711929,0.9556469668353347,0.9694952910201697,0.981564057344624,0.9881900759768296,0.9893460511257369,0.9854149693850655,0.9753038606990821,0.954168312786484,0.9198868151266518,0.8756008118569599,0.8327187318203307,0.8053735664409389,0.7927131910228827,0.7765442266136917,0.7376880170318642,0.6584218144695076,0.5208775487392762,0.3276169221550445,0.08503799334865439,-0.16852223001013694,-0.3893339719438601,-0.5619651780536378,-0.6860762443260298,-0.7650477636774495,-0.8133539684507585,-0.8412228131236416,-0.8553262354023716,-0.858051224954842,-0.8540859698310045,-0.8494108491165462,-0.8524939057458222,-0.8682280065880794,-0.8936175452186196,-0.9198883594817034,-0.9370827901927744,-0.9440558610056008,-0.9461209671513907,-0.9467025585115169,-0.9463251441231412,-0.9466666888913849,-0.9479703847636596,-0.9503488353456716,-0.9551201876456388,-0.9604100439161112,-0.9631599719521348,-0.955723291062145,-0.9264292433915277,-0.864229100605543,-0.7796931421352113,-0.6915372395564207,-0.6108156846616368,-0.5286999288975618,-0.4275898350618118,-0.29037351289527596,-0.12220978247190692,0.04467596627886335,0.16593674351609536,0.24011770894192122,0.2993066007071003,0.36060749804985825,0.4277134851000006,0.49704423981612733,0.563829691744316,0.6225370041426421,0.6731123042058142,0.7214227438862787,0.7674718144881822,0.8010504814665845,0.8195151141049192,0.8289605144179015,0.8345871115649544,0.8324324313227501,0.8278287639182438,0.8297820618990257,0.8456894471850924,0.8729749587015962,0.9073605387861771,0.9433469600212508,0.9695521437495734,0.9730381469205851,0.9543045010410405,0.9264369300913872,0.9006551020173702,0.8746990057707789,0.8369867266028689,0.7884026537457065,0.7402141690816704,0.7039463642918892,0.6914237259669463,0.7128024708749869,0.7800097773842606,0.8597737858546438,0.8705494632190772,0.777552587201315,0.6256197395510591,0.42748161154519604,0.18360885462399232,-0.07058810538423592,-0.2910876100797519,-0.45533818709353685,-0.5706422555629955,-0.6513704902877548,-0.7098825711477408,-0.7606987745964929,-0.8089307321546833,-0.8552457051382557,-0.8927605971516881,-0.9187545983780373,-0.9370426871563677,-0.9485105564189591,-0.9456049380234977,-0.9246084406820764,-0.8967349153029226,-0.877414005253586,-0.8673552517333843,-0.8624683026338035,-0.8607899199259097,-0.865594458088151,-0.8797757468228128,-0.9019744175465201,-0.9292419475992925,-0.9581640400835297,-0.9784646536070997,-0.9798567520263955,-0.9633890682072437,-0.9401763528077686,-0.9209060716773838,-0.9085979346509425,-0.904342764988482,-0.9071617076939151,-0.910909954145725,-0.8970170941590914,-0.8188615976034829,-0.5033355408791513,0.1733824090320292,0.5938168697781264,0.7331954335297932,0.762480878318568,0.7435616860310742,0.7111434306846377,0.6964944075600196,0.7098388738793555,0.746271847901858,0.7923905732030823,0.8310189574131366,0.8563149217288687,0.8685871793675497,0.8749369420318799,0.8793697522181598,0.8787336066906366,0.8729827029451803,0.8642798276828129,0.858949054160644,0.8657508363959558,0.8843620888379383,0.9097409759198546,0.9363708508878401,0.9592478598451813,0.9754851585681604,0.9841950451425584,0.9866988105601283,0.9863777584218464,0.9864486080613848,0.9873068508788224,0.9883692333021726,0.9880503069387278,0.9828437320721556,0.9671226983289412,0.9403505258577312,0.9051125352634817,0.8577842082783464,0.7929733657691517,0.6989901978249297,0.5765977028788282,0.4406018391786717,0.29232717681879705,0.1192075112782203,-0.08188601783786777,-0.27814219514777133,-0.43752851909659685,-0.556285857903667,-0.6406621021847319,-0.6989965436619935,-0.7465679145755154,-0.7932886006386582,-0.8363314219573833,-0.8707595738030418,-0.8981928393114829,-0.9218831845442728,-0.9415254275294002,-0.9535141527235792,-0.9579812889732622,-0.9578876059942243,-0.9553534521751326,-0.9515225420265441,-0.9481551570290482,-0.9463750239694411,-0.9429795075851384,-0.9341690323348676,-0.9216519996679097,-0.9158699209295671,-0.922879058021478,-0.9367176695225333,-0.948565700871823,-0.9564529135284566,-0.9589229972995952,-0.953148362196781,-0.934646563472452,-0.8939691008780157,-0.8023300459089961,-0.6161266793900729,-0.39140288125256273,-0.2620611538103346,-0.24919508113659236,-0.27851577579856107,-0.28956931856568163,-0.25784097767654085,-0.15625219207331695,0.0018040765127830152,0.17573583705739704,0.3225651005503394,0.42879754440496365,0.49555347993310195,0.5304747918796807,0.5434588419695926,0.5598546018117128,0.6060532025401649,0.7006934544303237,0.8268403936813296,0.9229468958781103,0.9580058457208049,0.9607600135776486,0.9584313478056526,0.9538659507477282,0.9451767688355551,0.9422659172419413,0.9530371831370208,0.9658182482571583,0.9682978456407187,0.9635961437437348,0.9598617893944885,0.9610184783235955,0.9669139691120668,0.9757579690390913,0.9843406641762569,0.9884634078249118,0.9851091938375349,0.9759271629294567,0.9653069511824498,0.9495165314481947,0.9205721968183006,0.8815643448354618,0.8428503829705993,0.8003293177358904,0.7417396340601533,0.6302766327793036,0.4092327007699346,0.025343096257443656,-0.4434710090524377,-0.7289272835026882,-0.8373160392546238,-0.8881807447673368,-0.9208840974722079,-0.9446212656862685,-0.9625198766125802,-0.9715584946014106,-0.9677713488133733,-0.9558232205639501,-0.9466022239454323,-0.9488564855762124,-0.9616731392089394,-0.9731995011056405,-0.9751397095079092,-0.9697164456893717,-0.960122683564499,-0.9478614364139597,-0.9346058199309345,-0.9209823371513268,-0.9086286758893206,-0.9049961150308599,-0.9134029343655733,-0.9286972554364356,-0.9449869662114804,-0.960229801551483,-0.9726322835731285,-0.9786183684025314,-0.9715866545836636,-0.9380209344980354,-0.8764303051903958,-0.8240237725364583,-0.8052048634557208,-0.8013960827359097,-0.7973260557383107,-0.7879794674969418,-0.7670324798182475,-0.7158991959197023,-0.5848975580533211,-0.13699326219874827,0.4903986662431732,0.6885790363114572,0.7020798025443882,0.6523484570197995,0.5776402198731498,0.5072883882688346,0.464665395304252,0.46990160004494885,0.5391197309677435,0.6672691465143891,0.8076895049090413,0.8999430784474389,0.9364361997474463,0.94253251942234,0.9372069210011283,0.9324382805174326,0.934623918569712,0.9441955158793609,0.9583657342639944,0.9703948117088579,0.9767604579942848,0.9781463692573885,0.9726339385157464,0.9558537516874426,0.9294860217962452,0.8994339887113295,0.8719989657151843,0.8512880580748768,0.8392318266631762,0.8369690345490632,0.8393126110366658,0.8414116573265584,0.8407905731290815,0.8270204335789089,0.7839987005227419,0.6941690424070469,0.5494278480563871,0.38144256231837104,0.21818013409535658,0.02239257175301207,-0.28197587714017414,-0.6371020921680998,-0.8433162398672678,-0.9149828443299958,-0.9288827540096896,-0.9167668737950571,-0.8929671357711048,-0.8709307135182985,-0.8617140480262726,-0.8705270626076489,-0.8961555545524705,-0.9347829953169543,-0.9708174268917714,-0.9853031745949825,-0.9791095336280206,-0.9669090663621605,-0.9579419919153564,-0.9524032282420939,-0.948979314834477,-0.9468359317465335,-0.946485029162157,-0.9495063477906902,-0.9546360573525948,-0.9595104204451566,-0.9598644343085144,-0.954172928242209,-0.9422224866725134,-0.9292357273230625,-0.9222106481190001,-0.92162209571792,-0.9250058125584676,-0.9251155885927183,-0.9168452048977455,-0.8949507678425581,-0.8577693005507881,-0.8016342079732303,-0.7237819183144376,-0.6063887529341856,-0.4007820790682473,-0.05940693376917567,0.30603319661476475,0.5519920220346215,0.6955981819880508,0.7833793733986314,0.8377326169366563,0.8704764918959029,0.8931032078908464,0.9110074056386701,0.9283943956315446,0.9431624645370816,0.9523166215749996,0.9557428686191985,0.9560152225874258,0.9566069706337755,0.9592405043797939,0.9648482655403846,0.9727440816053513,0.9798394467411181,0.9846122091700678,0.9855217603825476,0.9818647599969541,0.974941934120459,0.9678130119452611,0.9622623529016914,0.9557950625743488,0.9476810649192319,0.9426729872620386,0.9428780736931527,0.9402372553115484,0.9276453736532672,0.9041165431424989,0.8717537216694579,0.8270668141465195,0.7592373577573158,0.6613684810456225,0.5506386504822415,0.4501014614205219,0.32026568368839725,0.01955065975782949,-0.32342120650742207,-0.458544495651134,-0.5446420095329567,-0.6310675657675882,-0.7075592190989345,-0.7549602654892547,-0.7614960836898186,-0.7262923713723946,-0.6659202703173156,-0.6003024624512158,-0.5468766156193543,-0.5138812502345399,-0.5037594856514085,-0.5212929067128644,-0.5660710717362865,-0.6323791883338884,-0.707566958104557,-0.7783570771873958,-0.8374170415852824,-0.8823956518025192,-0.9098019290801421,-0.9154661741080835,-0.9093270576437696,-0.9126851217161358,-0.9343931014623517,-0.9615215682625771,-0.9738822907250726,-0.9708185297327123,-0.9656921183074606,-0.9610593083893492,-0.9319618082528504,-0.859524072702514,-0.7746546255847793,-0.7182078917917963,-0.698141637846782,-0.7002090911631745,-0.6731462176176238,-0.5290956644207144,-0.2614183676434404,-0.0007700588830259741,0.20108868907176647,0.3565366696735847,0.47069117822653556,0.5414343517989237,0.5779368347248699,0.5991685883313296,0.6217455610950049,0.6584796616951668,0.7070995298590219,0.7584310010723556,0.8048268649878236,0.8399762853652891,0.8643829537652972,0.8826718566767662,0.9019766980393739,0.9223910729317139,0.9414514502226181,0.9569238357529566,0.9670686892345612,0.9723686415252587,0.9736294732344175,0.9730616562091349,0.9716151811316078,0.9688830488558137,0.9632587414552205,0.9510595628056788,0.9305910143777283,0.9015616326673249,0.8725882961272868,0.8626649273090566,0.875577700816139,0.8870974379595765,0.877992783102389,0.8541298910822672,0.8401590891115546,0.858661978870875,0.8958854383784011,0.9144190743658331,0.9005225544051475,0.8477563917785854,0.6936100940132651,0.2502455094849435,-0.41677943838129994,-0.7399201302718307,-0.8434650321835149,-0.8850151526928598,-0.9118669171526252,-0.9326655646015952,-0.9474512748589536,-0.9566544164342025,-0.9644407514447091,-0.9704525238838116,-0.9701314800361813,-0.9598552459380323,-0.9370213934485281,-0.9081415344189577,-0.8944473642065535,-0.901753478982625,-0.9200272496196585,-0.9388833263953165,-0.9537994842544281,-0.9650635483719753,-0.974267049051898,-0.9798386607431014,-0.9806391420538165,-0.979579821933243,-0.9801914157355159,-0.982088476659747,-0.9800142139377468,-0.9682718472034636,-0.9408095109944073,-0.8918590828768513,-0.8365189981656028,-0.8010162017743907,-0.7925519894850723,-0.7943982214167357,-0.7890173241225845,-0.7737518850239647,-0.732521411603462,-0.656553870175266,-0.5400527109104246,-0.35493685659534896,-0.06624782815542414,0.2939703107653785,0.6001010215347345,0.7822618246399593,0.8743326548887213,0.9214131262311777,0.9475023648395275,0.9612279045454312,0.9670893896774109,0.9684456988288361,0.968199701465771,0.968896060680538,0.9719181507883093,0.9767228379698698,0.9827641077293063,0.9887411745235104,0.9929521198263279,0.9943745905534894,0.9935003235884976,0.9911618382457466,0.9880022172422003,0.98287927515209,0.9719405309762097,0.9527717465056947,0.9281742427900421,0.9040519339032541,0.8855470577679301,0.8736678625557852,0.8647476045478985,0.8578242495413344,0.8492751014495505,0.8192849023327217,0.7472813036271535,0.6513634175234951,0.5590034994227276,0.47676171970463177,0.37852008041157403,0.17490063456145286,-0.30988213699860756,-0.7167491279199754,-0.8306426693901078,-0.8650763500984727,-0.8848924862203814,-0.9073950555798018,-0.9354288776916221,-0.961837490412345,-0.9752101001643695,-0.9762105372962593,-0.9701613715498747,-0.9593521636230139,-0.9448856670141508,-0.9279408406514202,-0.9148126363955167,-0.9129255204931567,-0.920210642853123,-0.9312104554159809,-0.9431166821319292,-0.95548711402869,-0.9679842079735763,-0.9777605524562747,-0.9816801986211598,-0.979919501018764,-0.9722750911846114,-0.957909589664186,-0.9411940019956208,-0.9301487316437308,-0.9280950601258848,-0.930261825279715,-0.9320736617188289,-0.9310738412597406,-0.929017128005038,-0.9253827706165411,-0.9147609394746796,-0.8891907248366766,-0.8163667695805743,-0.5426375067191441,0.29775318737771667,0.7640628199425212,0.8633778107394591,0.8693223740349808,0.8213625628886919,0.7817084417957737,0.7968093799318398,0.8442091843929836,0.8821317881999711,0.9034345500269921,0.9141012246482768,0.921388469864007,0.9284487635643718,0.9344444866458365,0.9386746569267416,0.9459798246556379,0.9575948196169674,0.9681160732151903,0.9728512721365141,0.97259194820655,0.9719342539987453,0.9711001961732058,0.9555250761263644,0.8946139995026272,0.7865239120566301,0.6840394254437381,0.6292131842708292,0.631026018539446,0.6846452783166603,0.7729013564278268,0.860779671685933,0.9097287657538046,0.9200621840605198,0.9164771365150932,0.9101945023987821,0.8925436110042635,0.8455743567962507,0.7436484421906049,0.5693779026451712,0.3355404397733021,0.03717990635754738,-0.27347054760622075,-0.5141711257375443,-0.6895278500185726,-0.7951970531815868,-0.8453741442577294,-0.8655756687346354,-0.8766103721837151,-0.8834889505790711,-0.8838540178572507,-0.8756029915499465,-0.8695031810749695,-0.8766869322095989,-0.8959996656640358,-0.917564692407819,-0.9376183010105911,-0.9536037612940763,-0.9637441650286159,-0.967622965846091,-0.9669587040239304,-0.9625932671312867,-0.9563613602316526,-0.953232607155258,-0.9574543439584349,-0.9683548762901696,-0.9794682055332515,-0.9864312261738566,-0.9893811936624999,-0.9911639760844568,-0.9936913504985371,-0.9955049727117096,-0.9931736221886696,-0.9782161467377672,-0.94254749278651,-0.8913629898458941,-0.8255844346217179,-0.7376549132070482,-0.622853664022899,-0.5043838826698807,-0.4071597308622909,-0.3237775734446593,-0.21257028852339743,-0.04691862849703527,0.1481620348050106,0.329535286338585,0.4830468499109421,0.6253645189754041,0.7619418564075938,0.8713634480310875,0.9339727459823716,0.9625574084822918,0.9728898648201694,0.9747339773774293,0.969953830471925,0.9569120096678534,0.932846048916075,0.9015195669062304,0.8708651916410721,0.8462979078481275,0.8281357276820983,0.8119356956946343,0.7959863422129058,0.7852676539944783,0.7869469389803052,0.8086916573528933,0.8554124234628936,0.9145067044513112,0.9569332646230974,0.9698585970964084,0.9616678260053875,0.9465800973228963,0.9276766571806119,0.9045541804164102,0.8724225299920834,0.8299568255764014,0.7819096790722521,0.7377374590844512,0.6971006746212302,0.6331605062858159,0.47847880743222165,0.1930640725882569,-0.11912094701316144,-0.3651827106822869,-0.5509907038296917,-0.68341924067167,-0.7631272380316557,-0.8066534909220467,-0.830269119248421,-0.8468375025503291,-0.8589120189629583,-0.8634776078508076,-0.8580055488321263,-0.846574310294294,-0.8438059523763136,-0.8575216489888909,-0.8812075623677837,-0.9040069680904533,-0.9225069652330437,-0.9386072779162941,-0.9528369017492397,-0.965263442680865,-0.9755183404202786,-0.9818196300951085,-0.98206057691971,-0.9764353269783693,-0.9667611955624771,-0.9509614495566309,-0.9239722629945613,-0.8803048609973407,-0.8283894681821258,-0.7890947783802144,-0.7779798219131501,-0.791427794146116,-0.8106324586007186,-0.8125268803931155,-0.7878357634853392,-0.7284645201173878,-0.6270977284228348,-0.4914387502373011,-0.3226499705482419,-0.11547994181419849,0.13502844396945596,0.3809681345801529,0.5484778259613019,0.6317181869652231,0.6729261615376132,0.7076565617195447,0.7590694293571609,0.8208097566475177,0.87366861813491,0.9113098879281722,0.9337001567632822,0.9448077977093243,0.9403993569847069,0.9126549598641585,0.8663288220201039,0.8212119472069466,0.7986764253228313,0.8129377565694264,0.8579971164172853,0.9068094762931491,0.9353834800071297,0.9457805793187946,0.950265327399071,0.9552775937617216,0.962990090910995,0.9704521063773047,0.9722968904184002,0.9644110123953195,0.9488471442839427,0.9313122548680892,0.9166701899255,0.908605488378807,0.9069210881153101,0.9040381321801862,0.8890338916998852,0.8487760686990415,0.783650370984488,0.7059982192022385,0.6007944210929629,0.4530683793832354,0.22195220850953853,-0.1632586273171601,-0.5500602639757104,-0.7483162865932831,-0.8412144328146324,-0.8939994795643533,-0.925572525733173,-0.9400251302445567,-0.9434679738498702,-0.9426652304942232,-0.9413951270932684,-0.941890655131175,-0.9409312313456146,-0.9363812994290738,-0.927670241140496,-0.9180187955955967,-0.9144072541828586,-0.9200949818307956,-0.9342690692106491,-0.951935750221284,-0.9661004924567596,-0.9745800682290471,-0.9788821450476175,-0.9809309266185536,-0.9805336825536581,-0.9809118686866002,-0.9837197026765324,-0.9863804270351513,-0.9861387429867364,-0.9840390941732055,-0.9839909233585694,-0.986423351909187,-0.9868644755887804,-0.9812408084974623,-0.9674062588727075,-0.9465490955368249,-0.9176104508162944,-0.8685261438937447,-0.7533227647116066,-0.4470978267679861,0.15448061515965975,0.6410758628879053,0.8285949741071091,0.8923150359661599,0.9109187866093232,0.9105833919689719,0.904382411055927,0.9032205699677522,0.9137468665208481,0.9316081791901925,0.9450984362221934,0.9507174893644521,0.9514733062418637,0.9471271383146634,0.9366557662554877,0.9218441004597617,0.9071741342471631,0.8977962391366964,0.8966928494439083,0.9049945894250554,0.9237778594314936,0.9464294213567823,0.9672634473570784,0.9817742083298023,0.9890482444537222,0.9907002558161977,0.989979750628531,0.9903762144624991,0.9920943200171092,0.9918552095891513,0.9863391682881174,0.9746949752195507,0.9597314968135389,0.9408827109880666,0.9153078158430673,0.8709757975153877,0.7916473198469105,0.6637768360748992,0.48387723545735245,0.23984437632290356,-0.0468859756796321,-0.30750285465313143,-0.4331351696254107,-0.45834432172848316,-0.43541810263331193,-0.39608513531855466,-0.368723211285493,-0.37194230894234387,-0.4119393097180365,-0.48947390820300146,-0.5942681203582766,-0.7043999501878154,-0.7977009471812769,-0.8637072617557283,-0.9013140559709045,-0.9178757803661637,-0.9237610051246382,-0.9235362329838847,-0.917080919046642,-0.9068789860760734,-0.902638813690535,-0.9123364954433599,-0.9330534724244636,-0.9522569220354342,-0.9583665649364175,-0.9513395966826175,-0.9416261435570638,-0.9383238177292403,-0.941672910157208,-0.9475474133355114,-0.9436313834972667,-0.9153113282477567,-0.8461462918273196,-0.7350904378422531,-0.618093471492027,-0.5367554713817407,-0.4888755499708535,-0.4585765298584292,-0.4038062273984967,-0.24489797041618386,0.06250756854956069,0.3077856717252114,0.44428222287958313,0.5336860824847127,0.6133982508760902,0.6899981750415901,0.75150766751104,0.7926723176134026,0.8261062811790069,0.8604262168258187,0.8952710874467306,0.927156590261527,0.9511520187110829,0.9663385385819833,0.9757584742568577,0.9808568453824791,0.980422507033919,0.9745950853155421,0.9654585630296751,0.9541108815010944,0.93755376098279,0.9164297056390016,0.898250741606918,0.8907168468948924,0.8951770019699197,0.9109762412034572,0.9293646666406203,0.9379400233676567,0.9380834157684651,0.9445169146837877,0.9536013071190715,0.9300701850122784,0.8732504542887142,0.8312891792949327,0.8253919251352235,0.8222608524675524,0.7254313316219964,0.4862373738840614,0.20463887422714522,-0.039272217247275906,-0.2332383953458545,-0.3885419130703095,-0.5267715594876105,-0.6606343959094086,-0.7743083459649402,-0.8550101749766186,-0.9039517278696775,-0.9319084044406829,-0.9481064298475302,-0.9584241977884848,-0.9654556090409034,-0.9701243850012534,-0.9717384296539732,-0.9704935857342719,-0.9626816029002926,-0.939014514684704,-0.8936460796911572,-0.8474771571714581,-0.8375934306881161,-0.8660920870389276,-0.9026302380743375,-0.9223429699722102,-0.9202193101080441,-0.9061182528634532,-0.8905602513249601,-0.879875430362447,-0.8777105485078427,-0.8831093877190778,-0.8910086456162414,-0.8974416551934892,-0.9025126924584975,-0.9046386686630443,-0.8779813362962179,-0.8163546283311115,-0.7715752725806725,-0.7634350236713088,-0.7663388182866794,-0.7626035579967096,-0.7182503983088031,-0.552121788738468,-0.11344583165724118,0.34731037352199806,0.5608071434718607,0.6536290852828265,0.7115290460396776,0.7602769368063269,0.8002647086991084,0.8222918716755713,0.8184171593688803,0.7948467467941969,0.7721809081201533,0.7745940954409385,0.8097820239970004,0.8678724128418646,0.9226974964992278,0.9540806816324526,0.9654335336326123,0.9685332661864177,0.9711820078191797,0.974762998960821,0.9797048372130445,0.9845806148798021,0.9889751143325253,0.9928140650242373,0.9946677664343591,0.9935816722955484,0.9896170353743617,0.9836153778634937,0.977412631086674,0.972432982000376,0.9676453826242537,0.9605430281467264,0.947998451305749,0.9274543304125175,0.88923045744399,0.816264618319863,0.6843476030190708,0.4884979023602041,0.28547089445809987,0.10298088553132867,-0.1470790995391467,-0.4524392373290558,-0.6734246587248566,-0.7992287604573699,-0.8738793792197047,-0.9170164626918423,-0.9362549694865236,-0.9387000419442371,-0.9381318877574103,-0.9420537148130415,-0.9491897280059396,-0.9551444043809382,-0.9570494527851559,-0.9542899816883373,-0.9495602361052637,-0.9468375718175537,-0.9510926706496016,-0.9641775440653916,-0.980102621443083,-0.9890390826511448,-0.9878267413054813,-0.9824098265807697,-0.9817331701022275,-0.9857026669469156,-0.9719034524911563,-0.8945380153121485,-0.7394281527117359,-0.5737484032474471,-0.4637897683780077,-0.41871014041093346,-0.42229254737023236,-0.4622704580164763,-0.5265870200108699,-0.5929955186076363,-0.6435894112615929,-0.6586875704534336,-0.6024780155491963,-0.45096384651260063,-0.2578098042078182,-0.07450056220990332,0.11333688408213138,0.324192459503901,0.4994553057928328,0.6110607071704821,0.688876598534834,0.7535219556099865,0.8063198982452217,0.8455927472297071,0.869348527971663,0.8783383572221335,0.8812091068125881,0.879971119214819,0.8705351020244477,0.8549601383777655,0.8406266712322334,0.8345542071286163,0.8359050690584124,0.838213327510318,0.8412772152458159,0.8481740163392107,0.8627863813241466,0.884472648439526,0.9081127877613648,0.9302083372252938,0.950406172767286,0.9677452767768342,0.9812354893402233,0.9849718684213169,0.9718967346001269,0.9439011427792514,0.9168532768581031,0.9002747605768394,0.8930116199949738,0.8888866119089776,0.8819713150554469,0.8716658235930999,0.8323492370080445,0.6646515065140677,0.19713808770466415,-0.3071342258916252,-0.5598024325299219,-0.6761735711704965,-0.7389846052615406,-0.7744873886399237,-0.7929888843583012,-0.8093891391960255,-0.8352719473471605,-0.8696912522060148,-0.9020540058520069,-0.924841822693145,-0.9383373307980093,-0.9456490033827694,-0.9474894686274025,-0.9433176824013711,-0.936761526688386,-0.9333389930981932,-0.9366489723198462,-0.9431580347361236,-0.9489562923744695,-0.9586956148408259,-0.9718843083163056,-0.9805624015938587,-0.975823676148036,-0.9595699157776734,-0.9471001834592945,-0.9465617513423819,-0.9399049692079593,-0.9015550026839028,-0.8404038755716556,-0.7883019555969271,-0.7680417009896907,-0.7851526042040989,-0.8312527156436202,-0.8793445931310009,-0.8903242312159413,-0.8449524108540885,-0.7534028521194416,-0.6365640905808803,-0.5034888361096953,-0.3010807553406181,0.0493817114818462,0.45789438205674887,0.6988320699769992,0.7708530585928849,0.7685098986218298,0.753847924674063,0.7628206405311977,0.8079942465902946,0.8721462773169653,0.9190910961521509,0.936878958970101,0.936553895469743,0.9376171260149335,0.9521131809781248,0.9705834454461094,0.9797250955337158,0.9806608247228981,0.9829158557054987,0.9882432218483055,0.9928759444347793,0.9929114331601471,0.9867421897281226,0.9777024424608446,0.972008940738434,0.9737443337182843,0.9807184051956315,0.9879710727809871,0.9914724747619934,0.9885454498111084,0.9797683323203004,0.9689859361799256,0.9581250706482575,0.9414280961107364,0.9167197812830868,0.8862085483296102,0.8555676182320329,0.8269595143431694,0.7859332827390919,0.7117721155939741,0.6111018106101277,0.4653101665234476,0.1784128246984543,-0.2446724712842401,-0.42799830890545837,-0.4267522961003543,-0.38894105361696246,-0.3653339297370395,-0.3774069105418595,-0.4419555814232696,-0.5680676945178822,-0.7361285679744374,-0.8762395531078675,-0.9387122605085169,-0.9520552914574333,-0.947226782264391,-0.9322902069424569,-0.9153972965067086,-0.9105210772768249,-0.9219188134598582,-0.9404813584260902,-0.9563120800859707,-0.9648047055053502,-0.9671807624864991,-0.9640384429211896,-0.9545397413102518,-0.9380850008049172,-0.9166551402255659,-0.8972152447594774,-0.889981981016154,-0.8996553093664644,-0.9183105753494338,-0.9255873040042913,-0.8984702012765647,-0.8373589489411708,-0.7578656862539448,-0.676851989146296,-0.6058043728417015,-0.5395424905791205,-0.4428284662411697,-0.28007420596694244,-0.037310642637541226,0.24789043534236754,0.47530118732196697,0.6126051119485025,0.6895001559472834,0.7362825672167047,0.7728927989459022,0.8099130671929322,0.8410320424150526,0.8632563962149743,0.8781226527445386,0.8875867770308302,0.8951556107014401,0.9048021361614486,0.9183825162209676,0.9352881084428138,0.9528219623852431,0.9669151841144772,0.9772566321705893,0.9862513756998489,0.9930701691621853,0.9957233537572925,0.9935062885761974,0.9878149279792269,0.9804412807245078,0.9745972139153116,0.9723751742131957,0.9726378487268207,0.971112543479147,0.966572102694156,0.9613996774667378,0.9584076762077594,0.9577744039868031,0.9604327269509626,0.9634902900080295,0.9563507025018049,0.9178989732941144,0.8147046783933006,0.612015656854882,0.32312537683559706,0.02568653807630477,-0.2190819278815081,-0.39415475507890435,-0.5253202979303581,-0.6326083682866764,-0.7231767832838931,-0.7935950965012013,-0.8366576835772725,-0.8580175531305207,-0.8635317399645056,-0.8528480499774924,-0.8223909241683619,-0.7755199032706289,-0.72628144853771,-0.6941112582813163,-0.6909106299579847,-0.7190046065030814,-0.7739055242565075,-0.8442290661542596,-0.9115058070789173,-0.9596947970265671,-0.978189143659421,-0.9579230574746478,-0.8970347697653122,-0.8133096094357085,-0.739089146320175,-0.6938153062686762,-0.6822238980437151,-0.7017689834380261,-0.7579689653060149,-0.8560921341142705,-0.9505057240911792,-0.9539237617920859,-0.8983835757560404,-0.8622554596385689,-0.8591285183548034,-0.8619642842641162,-0.8338002133661807,-0.6890604020171809,-0.26103574769689303,0.2952658613171266,0.6751970794374461,0.8439473512928071,0.8608870653027807,0.8198043830734538,0.7796427232513401,0.767541964219999,0.7886933000945199,0.8325131998033882,0.8777160259376896,0.9073401953360248,0.9195970267876797,0.9230495932489127,0.9244515677377875,0.9278432713690177,0.9338397683374647,0.941446753514818,0.95069948495295,0.9590933637728233,0.9640014038610039,0.9646931416388274,0.9643461107607794,0.9664661754445215,0.9717096707587977,0.9754820278151434,0.9689974675794704,0.9478904417055938,0.9198922005651695,0.9017472965180656,0.9037165977801015,0.9205702880335734,0.93849397972107,0.950785884526729,0.9587306078212467,0.9606833667496322,0.955206897389093,0.9302349452267422,0.8569774265110943,0.6957994020569501,0.4191919308181972,-0.04888430219348942,-0.6036155891224213,-0.8000647622496764,-0.8488262698286899,-0.8790954538437922,-0.9047383669071964,-0.9260540573946542,-0.9440490093283663,-0.9617201007509658,-0.9762311050560704,-0.9824070335238473,-0.9803622145145608,-0.9722425131931118,-0.9562223986791665,-0.9300765713954389,-0.8928100262771587,-0.8503459167761518,-0.813177184074606,-0.7912468328527497,-0.7910076406915489,-0.8127174422631304,-0.8470656316528757,-0.8809263725949942,-0.9057005637314972,-0.9203445579287414,-0.9319381761749822,-0.9452549486846041,-0.962753654508959,-0.9783587901057613,-0.9657031718623016,-0.8964305135426015,-0.7896095878188777,-0.7013126331565099,-0.6611635191697062,-0.6627166510030255,-0.6802868623358325,-0.6803688725041352,-0.6382199089527872,-0.5490442581566259,-0.403013045663626,-0.20889751152156047,-0.009964350067380195,0.14983003510473025,0.26516668260218546,0.35538858929624934,0.4379071408874054,0.5173007786852725,0.5954909865286091,0.6731270736959449,0.7457937074510935,0.8043586381010188,0.8433851107716407,0.867202194004291,0.8880504507248708,0.9116629461550663,0.934355080422103,0.9517367557201635,0.9649706740540619,0.976616541158709,0.9870748690175324,0.9936694945060756,0.9951595040635233,0.9922410868093008,0.9850688339518314,0.9736820253338347,0.9617480196810828,0.9547399074754702,0.9568764374676781,0.9661464807310812,0.9737922081836147,0.9735217906961533,0.9700595371798066,0.9710687891512821,0.973590619302068,0.961787831446769,0.9218576717844483,0.8332995311557738,0.6268804544625735,0.2760294503356319,-0.06301426859819745,-0.32400442361877796,-0.49448181736280883,-0.5857720178968131,-0.6523097636609326,-0.7191567423606045,-0.7888333341875762,-0.8532753709188154,-0.8999393208001135,-0.9260670411405273,-0.9384120270648906,-0.9439321549848152,-0.9451688762296091,-0.9435535437092566,-0.9426117273957465,-0.9429464939363184,-0.943085044353484,-0.9423013718868557,-0.9425466375796777,-0.9452467174587671,-0.9523280866410332,-0.9631964166192211,-0.973676750042258,-0.9733048450106865,-0.9605490977645829,-0.9405597214665573,-0.9141462812117523,-0.8822966798393523,-0.8502537657855092,-0.8254208077563177,-0.8091206937279529,-0.7980296360333101,-0.7942395030724653,-0.7954074320322646,-0.7931494102418742,-0.7864208411934014,-0.7761179844377776,-0.764731758940981,-0.7533336898880802,-0.7171906467145691,-0.4649264544349163,0.31423653255110595,0.6767843102836655,0.8110186491743436,0.8908523275968093,0.9435279481164208,0.9727740483642958,0.9846070090569305,0.9846253042424827,0.9779190139309479,0.9618326039440203,0.9156558502189265,0.8126690778043232,0.6892877409944922,0.6120767587997252,0.6005070414566929,0.6473512021321972,0.7385988164479391,0.8409536792463833,0.9109232497438603,0.9392061485819684,0.9463823394006831,0.9447085622335751,0.9373513145681358,0.9298073376373344,0.9262421001210893,0.92068373683806,0.8985657865223601,0.8546623619959701,0.8075946087556405,0.7807873106576683,0.7846621267695059,0.8130957377350374,0.8395036932678469,0.8244759386247051,0.753088179052776,0.64373795976084,0.49409805048441385,0.29754148791239526,0.07227521754299045,-0.13974132120480112,-0.31150726671974643,-0.4234125203464906,-0.48623053398689814,-0.5346451873317917,-0.6006133699353273,-0.6944299357647066,-0.8013014391880945,-0.8807121558890616,-0.9122035218768373,-0.9096345717109845,-0.8981419014173927,-0.8932255942851584,-0.8998223400203931,-0.9140529254913211,-0.9301811711182723,-0.943938866217277,-0.9529372674526662,-0.9573268925896161,-0.9586377392853207,-0.9585824700667019,-0.9577163910309385,-0.9585656747932713,-0.9636273921693564,-0.970985360491524,-0.9772948033523556,-0.9802339177402118,-0.9796890496162018,-0.9765531315382846,-0.9708056534652376,-0.95963509590184,-0.941374433233471,-0.9183329236845832,-0.8909961078979426,-0.8617538712545872,-0.8284155741762403,-0.7842706450215494,-0.7184394445750508,-0.6067080314588844,-0.4273848508503027,-0.20057456399566642,-0.01001409707762556,0.1088911869104689,0.1972267270474989,0.27681519544890043,0.37418180829659603,0.5065053979725731,0.6645050655124813,0.7857249423112255,0.8387492230562521,0.8501060382291681,0.8595724034846677,0.8867611849825493,0.9239170966088652,0.952556557305865,0.9573966901366248,0.946390614094359,0.9384921988025423,0.9402576855900546,0.947766764005531,0.9564170822262968,0.9642760197419521,0.9718730098461923,0.9799478552740912,0.9864881283134673,0.9893014990453226,0.9876399790811881,0.9830311359762228,0.9758461598568512,0.9640163883021449,0.9416105580351697,0.8983952107651111,0.839532441144146,0.7864096540755845,0.7458639004388956,0.709579754874152,0.661337042917695,0.594529165878047,0.4979231643015577,0.35879848349949145,0.18210519926715227,-0.01057428225603294,-0.23977240337324243,-0.474018395824885,-0.6591390689677792,-0.7836449666397488,-0.8643472879843247,-0.8990354639564234,-0.8823078754276529,-0.8344660506013408,-0.7869588078220527,-0.7545620608250556,-0.7334274445748972,-0.7186804927730354,-0.7130290644645224,-0.7168431050912821,-0.7362995386392694,-0.7723097235587675,-0.8178229611036522,-0.8575872101379003,-0.8799401720215296,-0.8819160315414936,-0.8696638526372777,-0.8456722463452863,-0.8133361792184955,-0.7806086661524225,-0.7547420427165759,-0.7366760426039721,-0.7216734003847975,-0.7051173592329166,-0.6790655516108027,-0.6408082618436252,-0.5954079098370364,-0.5469918921330412,-0.5022536553029725,-0.469539913547082,-0.4381857880535491,-0.39680478518093837,-0.34079409976292396,-0.2731134261248491,-0.1964885105649131,-0.1095335609644004,-0.014808013084334692,0.09779628171399696,0.2423235748328274,0.4214048870298699,0.6051604369794955,0.7500428485523084,0.8373691674525433,0.8809503036784446,0.9026873648051312,0.9172479547167692,0.9327122403707505,0.9522772695639786,0.9704819080812527,0.9806202598076736,0.9808660296367689,0.9741681959187837,0.9649993206418626,0.9594234651522847,0.9624281227887066,0.9718081968852345,0.9798473396119519,0.9806623436493082,0.9739705314458669,0.9666580753823919,0.9622204763464359,0.952775144140156,0.9221348825220431,0.8592471253220769,0.7698936016260169,0.6759424913289298,0.5970716470221901,0.5400293334040919,0.5029959607235731,0.47308635208907357,0.4289279149610154,0.3514910408280238,0.22108709197051632,0.028740789413541006,-0.2269979255457146,-0.4838199217140557,-0.6469392151686999,-0.7144706647494526,-0.7245982890520168,-0.7149259730050324,-0.7121228792855734,-0.7456322480996087,-0.824824934098394,-0.9101346824704406,-0.9591819172302732,-0.9703178812677897,-0.9652932685901199,-0.9612157717005206,-0.966039977401153,-0.9786763215958886,-0.9881619553814125,-0.9888504014224861,-0.9868544380510408,-0.9872410414820616,-0.9898862897216948,-0.9925119683943521,-0.9930653969188766,-0.9907708126570921,-0.9862830368799135,-0.9794865778260454,-0.9649045627853157,-0.9355462356559069,-0.8874656372841597,-0.8221683557042726,-0.7560425537115419,-0.7170413913705381,-0.722325372196011,-0.7523336006320276,-0.7801104108865677,-0.79533608134699,-0.7931503839297784,-0.7765714927417892,-0.729842849888125,-0.5275288685369907,0.057146917914627546,0.4281463627827359,0.5686020051291628,0.6488180355449417,0.7139013790819261,0.7731419787409963,0.8278153111928418,0.8738388566419011,0.9036449873638523,0.9202064526857799,0.9303088733356907,0.9407544046409922,0.9515672334931842,0.9600740746914549,0.966349758811944,0.9729690578862942,0.9800279196070824,0.985146822469011,0.9873120287339711,0.9870380085485848,0.9869243997292046,0.9892569983241813,0.9928329258232255,0.9945737607851379,0.9929797225764245,0.9888321918812544,0.9812526866161476,0.9686511480360663,0.9500500082866388,0.9285125954946495,0.9126193351136103,0.9089262431105332,0.911396769005386,0.9035854677834869,0.8821874294801222,0.8555923523640507,0.8158650866424396,0.7288988541263177,0.5269517532831584,0.20592576225728199,-0.10676439956937274,-0.32951050200281,-0.48268772201523974,-0.5968300470401631,-0.6831589315518554,-0.7467718379841911,-0.7913453334884011,-0.8282673124779885,-0.8669576748270487,-0.9063264385499058,-0.937551736406818,-0.9552517689493949,-0.965349766440205,-0.9732430635666488,-0.9802678665141935,-0.9842763842484322,-0.9826112230140053,-0.9770435233048947,-0.9701694770757912,-0.962541024594989,-0.9546801849141691,-0.948092944086578,-0.9448675090816737,-0.9452394478595287,-0.948328665905559,-0.9534137619602678,-0.9601014602518939,-0.9690294606667446,-0.9790792280117356,-0.986227276632251,-0.9863023034196235,-0.9751512889616105,-0.9561780134924722,-0.9375449033633712,-0.9196871681533612,-0.8972146823018681,-0.8638480204262227,-0.8102020592284358,-0.7150545335172135,-0.5323319720240858,-0.2306859492832345,0.13562607357537876,0.42986242737755875,0.6119277180705744,0.7164238626881089,0.7802817992797174,0.8216647877327548,0.8503583552597387,0.8685471679325698,0.8791303648314782,0.8907693458226376,0.9100055279588893,0.9316648928497673,0.9489845319701925,0.9567969662834235,0.9470983249619082,0.9244183928504492,0.9060614287142932,0.9071468463118039,0.9303305507885165,0.9608004843491145,0.9823716620540193,0.9916334010193852,0.9945970130266455,0.9950375757972413,0.9939133495979917,0.9931897597698012,0.9931398485432149,0.9922276782498878,0.9894891744039848,0.9848655809518869,0.9799317393976801,0.9760276421289504,0.9699496043440418,0.954875957819277,0.9354965559945124,0.9216513200905514,0.9101322112917141,0.884371741470367,0.8109261391927296,0.560904760954303,-0.01871066853965925,-0.47289230785064246,-0.6510006366147907,-0.7317635135214522,-0.7817775181161338,-0.8219686476980506,-0.8509459558523637,-0.8664166961998797,-0.8723649989183972,-0.8748936846096815,-0.8745535590822187,-0.8733346544807823,-0.8798496893118348,-0.9035966654207851,-0.9394370306834608,-0.9653804352382046,-0.9555212050814051,-0.9035695707970242,-0.8381421423363564,-0.7952823099684734,-0.7907454693020081,-0.8200735006243673,-0.8687190463690448,-0.9167100896115837,-0.9510712170921461,-0.9739963122261335,-0.9848754586592421,-0.9820538637135295,-0.9730287874675281,-0.9680741980448815,-0.969619173130147,-0.9706493743163818,-0.9647817454933878,-0.9457825081050496,-0.8926543964546086,-0.7724978041715352,-0.5416346680008985,-0.22315303936803466,0.08740096977771775,0.3556318069019048,0.5656439286365665,0.7007842889936627,0.7747121219217282,0.8093444140308385,0.8207329337913012,0.8291685998890276,0.8445119700338146,0.8679865905733156,0.8908814618388754,0.9032896525169236,0.9027439489520621,0.8884334955371523,0.8617443603626159,0.8365303009926388,0.8329936097047683,0.8580379638084467,0.894555489780589,0.9235758631173088,0.9434432612555478,0.9592575785925013,0.9747398415405192,0.9868059747026094,0.9935120003142763,0.9950945165165561,0.9921425198394129,0.9833291078684823,0.9681914290000531,0.9476190044579549,0.9222007486159118,0.8956253746701816,0.8734813928244592,0.8592203961270515,0.8540008657662245,0.8561301041837415,0.8521117834527313,0.8222738663980398,0.7602082171166505,0.6705835153611405,0.5417308990773736,0.36558548951343006,0.15034767578248173,-0.09832747711937674,-0.35529039058635614,-0.5661886568301213,-0.7063224598174939,-0.7892552530351139,-0.8360971596252686,-0.8628613518339361,-0.8787685770328387,-0.888621877121034,-0.894246582415467,-0.8958798379031692,-0.8900514343025699,-0.8796799172085722,-0.8738678233542149,-0.8819479499244604,-0.899810456886903,-0.922569061076268,-0.9439712808812034,-0.960626534955075,-0.97185476897569,-0.9794911894275156,-0.9840876174670586,-0.9860551168488613,-0.9852135882530787,-0.981051495859568,-0.9734798515710101,-0.9633545369228596,-0.952563475066939,-0.9434226560745335,-0.9384840202465862,-0.9380964773841876,-0.9347839849159566,-0.912492999767045,-0.8552481479022213,-0.7559319223629037,-0.6145501647314474,-0.43459505099068446,-0.23005805020110576,-0.03177867660461996,0.11688330027092017,0.2412001443742708,0.36451722633405015,0.47935784975050405,0.5817758003428186,0.683996719501793,0.7877942423633767,0.8713595795548953,0.9179668150245447,0.9352512725666714,0.9437920017778472,0.9510734570668,0.9484124409085182,0.9361747022375536,0.9271421264740023,0.9281366526104964,0.9366999931656442,0.9476180381814793,0.9570374262634577,0.9640773006642084,0.9714433840224255,0.9787449554205295,0.9835385130653209,0.9822264303315569,0.9739854900487392,0.9617725458879254,0.9529038506769941,0.956406273269542,0.972864884741477,0.9887487242761782,0.9904683624992442,0.9791607225813508,0.9629168490319268,0.9453172882219615,0.9232952496522896,0.8754696079076154,0.7540297058859157,0.5143183214484796,0.22883137077671703,0.018119900481868186,-0.11840087532572893,-0.2165191478637206,-0.30032244181283935,-0.38029155149204186,-0.4583465633643221,-0.5324301983923888,-0.5948001825081902,-0.644473195099758,-0.6895216429186792,-0.7373235225806465,-0.7920656270557855,-0.848788779503182,-0.8979998638277491,-0.931795775440908,-0.950609735570022,-0.9613922027175305,-0.9679609406827686,-0.9696137518888741,-0.9644840160545544,-0.9549547066793522,-0.9449424533697451,-0.9317620715424364,-0.9105220344865308,-0.8739638492322516,-0.8197699897453499,-0.7623908938624879,-0.7381355335890121,-0.7764167989031033,-0.8395260084607651,-0.8512429482990069,-0.8212425929909616,-0.7836516299594413,-0.748885339616534,-0.7054905687099592,-0.6430103558106488,-0.5582465404160802,-0.4649022210449332,-0.39019579886876826,-0.3349218423198143,-0.26470580842154595,-0.10607479250164153,0.25216830973889953,0.6646579251885981,0.8211833639994737,0.8504515586473028,0.8501678086750732,0.8470484513858985,0.8501567011990306,0.8627034357650669,0.8816173598906644,0.9013467076293227,0.9208268455264041,0.9366221601965244,0.9454375062428119,0.9482392212248758,0.9469064130673124,0.9456164952542824,0.9477315939025573,0.9528008810210046,0.9574005211828743,0.9592402088799885,0.9567622370855388,0.9481101647143417,0.9296712329747773,0.9020482090649746,0.8723120685945399,0.842851479018773,0.8102704752880706,0.7727756750304198,0.737221313229968,0.7106462871784998,0.6963803083693276,0.6930642068640708,0.7107331771289254,0.7570315252289442,0.809392871653025,0.8280880704992655,0.8155812680053313,0.761324402976395,0.6219357525572037,0.32932565190139634,-0.09832100980169499,-0.442273264478537,-0.6462419485548178,-0.7797161296615659,-0.8536196996871263,-0.86756851704982,-0.8386533434159867,-0.7949493811539509,-0.7551900209099964,-0.7306078283491196,-0.7304168987923713,-0.7590262253572251,-0.8095510295403586,-0.8561045782539541,-0.8862815961182986,-0.906481122764861,-0.9217772519389145,-0.9380374395421703,-0.9584438528782552,-0.9762305322642877,-0.981747180463694,-0.9756843501616052,-0.9686375424227504,-0.9642993220321394,-0.9598832912060918,-0.9537460301414881,-0.9476664957945249,-0.9452271288979394,-0.9465297801899735,-0.9418087999923992,-0.9207785325899959,-0.8887802642647281,-0.854278649343609,-0.803532104157926,-0.6983995735524948,-0.5432349881746538,-0.39356414123538147,-0.272396275046664,-0.1573065464443864,-0.032605157079322586,0.10685788605286362,0.2457997037019991,0.37026533491930286,0.47396959495877583,0.5637090473207088,0.6574289373569489,0.7578675103643211,0.8427301839842026,0.890010254287733,0.9098697813261243,0.9221809912404284,0.9398795323682412,0.9595632329479871,0.9730005304366593,0.9780281578000967,0.9798545222509653,0.9824452392401251,0.986641861095493,0.9885577530222553,0.9862943684484027,0.9817610830059099,0.9783859646539103,0.9770733668448951,0.9763027458996227,0.9741313840764825,0.9685343798765838,0.9599255528363548,0.9500605724264949,0.9410512016297418,0.9334302767228816,0.9267370707455224,0.9179290916474808,0.9039453203041289,0.8846544323118837,0.8601736812966525,0.8227991922791492,0.7358552782870149,0.49105312693085196,0.11645465770206392,-0.09825370641924863,-0.18183877863303974,-0.23076730060202247,-0.2835984423598764,-0.3565815379006317,-0.45302309551300235,-0.556616815905315,-0.6385084262322284,-0.6953640405276138,-0.7387293636488954,-0.7748970100752238,-0.8056486612704542,-0.8271451812824827,-0.8384036344787994,-0.8448876910893579,-0.851739528214393,-0.8629640578194264,-0.8791182494075818,-0.8945180896393964,-0.9065564922704711,-0.9138572078645637,-0.9154092534700004,-0.9112019250730208,-0.9033308200792591,-0.8939890578474828,-0.8788464500974711,-0.8442116798741405,-0.780444343069304,-0.7033492508004296,-0.6366148800305785,-0.5926296585890107,-0.569722185775187,-0.5614748231866099,-0.5568772150059409,-0.5443693255480658,-0.516127276413246,-0.4688785662983919,-0.390466927768451,-0.2547383524897995,-0.10698797479322962,0.027485894944487985,0.16438657525184622,0.3115416531665009,0.45513912293872,0.5782993707581888,0.6796760263618963,0.7617968169226969,0.8253982656004127,0.8694123349538742,0.8952132386897782,0.9047094369771034,0.9048678135207685,0.9099559595796586,0.9225798137140779,0.9361331058199029,0.9484532617948982,0.9570640220650547,0.9619637315246254,0.9655393711692565,0.9690453361167195,0.9732262589194732,0.9763762733169783,0.9743086351147782,0.9660293005522241,0.9533686532259478,0.9385011688676169,0.9221262831899915,0.9072556789786553,0.8976109705777388,0.8972082397330544,0.9040825980166934,0.9160057294040451,0.9312143942523219,0.9393851947391451,0.9250456441012768,0.8839632833918892,0.821640646622429,0.7351564787803507,0.6194896916457542,0.4536644693262927,0.2077463449831237,-0.10713505709911134,-0.3950508159709572,-0.5908947265569235,-0.7160350321955755,-0.806086409228759,-0.8695036690698257,-0.9062560324493559,-0.9241492069299072,-0.9346276914291427,-0.9429302895490586,-0.9498860608444503,-0.9548172416523503,-0.9561714823431731,-0.9536770759918217,-0.9485753024929872,-0.94560098335905,-0.9493791195985771,-0.9605572041913206,-0.9750800070462492,-0.9854851249303896,-0.988596343912835,-0.9874349313541938,-0.9857262218258621,-0.9838406244061192,-0.9804414881790106,-0.9739822719150577,-0.9662176707596173,-0.9598632376174897,-0.9557561675491448,-0.9530397207849262,-0.9485601176043906,-0.9400027136632826,-0.9192251299781903,-0.8712298306468493,-0.7870586473911938,-0.6673647444828074,-0.5183350850285394,-0.3186183033236914,-0.0554003108442756,0.20931170642176403,0.41112031220648954,0.5526055222022536,0.6546082382902967,0.7352979071567023,0.7954581186290436,0.8400343875827759,0.8739097898340387,0.898833912008028,0.917279545746809,0.9317079403820208,0.944702352810804,0.9562973314455506,0.9671179853916055,0.9757447054029653,0.980083200416461,0.9817982596921269,0.983074799816871,0.9838895357626114,0.9836624791617111,0.9823092095581794,0.9796590594657262,0.9750803228703787,0.9679214955510922,0.9623046591386712,0.9619975717472983,0.9661540412160987,0.9681207113831267,0.965938330557252,0.9632192132362736,0.9653257784320578,0.9694117130399035,0.9673150450868951,0.9480040401885035,0.8966887656478157,0.7902712197428915,0.6158240591570723,0.4142442209297778,0.25368876117177885,0.12913742492704036,-0.040722213177230106,-0.3216141610256533,-0.6042114878311142,-0.7690614181731599,-0.8536250997490648,-0.9030493612698348,-0.9324905626877126,-0.9502363293362285,-0.9609619201065669,-0.9658084355544367,-0.965089531044692,-0.9603418030962394,-0.9550935649424267,-0.955301528704988,-0.9624421866553107,-0.9718211898670666,-0.9800023842349296,-0.9858572822523475,-0.9876391811253902,-0.9855001715554127,-0.9809328403703538,-0.9729786189771334,-0.9612939545633937,-0.9482892626174999,-0.9383643000320885,-0.9355479863619003,-0.9386043159542907,-0.9476088460218763,-0.9618657398583805,-0.9737727430149953,-0.975991466127863,-0.9743408694913452,-0.9755612292020417,-0.9773102221499127,-0.9721091398224366,-0.9481380225764912,-0.8776630375530662,-0.7287835499325361,-0.4429900731815447,0.02891434593545448,0.4342940444162244,0.6223078894242757,0.715260679223114,0.7733440655864722,0.8136092638233723,0.8389832923505507,0.8551310879290882,0.8673273482972624,0.8794640300471557,0.8902440047924263,0.8992652278935002,0.9101410269173048,0.9271303019194174,0.9494061071821707,0.9707181020749901,0.9847524900265092,0.9905645332183598,0.9914721642099454,0.9906360818797624,0.9882475439696675,0.9843435505977494,0.9789767894118503,0.9732272042591954,0.9677448334503096,0.9631876284420693,0.9604472186580327,0.9619016810757317,0.96958797945613,0.9805254918367726,0.9866353844574138,0.9817012606790231,0.9669517870739094,0.9465866300925952,0.9253467345062953,0.8969199741186099,0.8495887499459144,0.7783650192796031,0.6856916147410851,0.577367205356318,0.3886564146325411,0.019471602585170337,-0.3891242659364918,-0.624803796038953,-0.7350994712011243,-0.7977685395449208,-0.8474412474244939,-0.8893073804932095,-0.9192776126215106,-0.9406511219956151,-0.9575625195532204,-0.9696723850850878,-0.9737557110836113,-0.96406420414378,-0.939665264199186,-0.9117337395793688,-0.8921269871654761,-0.8857773123628622,-0.8888154127672397,-0.8944256748537245,-0.9009793401294897,-0.909422137050021,-0.9172966287122974,-0.9246506244620607,-0.9310390465684386,-0.9335202377733154,-0.9312279521832243,-0.927559715411131,-0.9253377727770135,-0.9276976883856819,-0.9336188430908721,-0.9399217160544519,-0.9453561605490622,-0.9489268431813052,-0.9425647324138177,-0.9143731319440515,-0.8608821951556336,-0.7821444918425079,-0.6565707135621582,-0.4166295631195403,-0.09180140922515051,0.15293269842466495,0.3197261214785602,0.4419821537722682,0.5275708815952274,0.5836202319307223,0.6144202757049683,0.623570420962,0.6253038118353924,0.652016608796198,0.7250360549599316,0.8321210518845079,0.9252898105992288,0.9717977760941594,0.9872083367228897,0.9932719737137448,0.9948651558334317,0.9928374655504089,0.9902052421662058,0.9874534320054267,0.9823665663046258,0.9744330119279128,0.9681665323942602,0.9654340142335952,0.9647674370859539,0.9645941635283691,0.9641528463272889,0.9630124613968647,0.956777542728216,0.9425746010541771,0.922489512063982,0.9048655976577997,0.8935233360510073,0.886499293743692,0.8807003734893237,0.87398838064579,0.8614202152392344,0.8267262058491103,0.7291599715910801,0.4253154803696595,-0.38019731985536986,-0.83407069421537,-0.8839216343177148,-0.8428920923494245,-0.7703458965072232,-0.7017243299831492,-0.6726489148278773,-0.6903835783414811,-0.7352924335762366,-0.7896982495119705,-0.8435631742671105,-0.891291331209701,-0.9278686050509126,-0.9551455958978289,-0.9728717536158245,-0.9801505405178428,-0.9779429497615129,-0.9714081672854693,-0.9641367019207154,-0.9578367976844294,-0.9539906247582571,-0.9509953897828044,-0.94848336829929,-0.9479338008479848,-0.9502719137287801,-0.9531816917092143,-0.9552572351710609,-0.9558990624198413,-0.9520500433942121,-0.9383958448616054,-0.911068386305808,-0.8668684196452394,-0.8155739873671669,-0.7697922259122401,-0.7131001730598062,-0.6230935352247968,-0.5118077904530234,-0.4034983283844544,-0.3088447579045132,-0.21531413826962387,-0.09641103065502402,0.04522799996175495,0.18532376754798294,0.30495606602795344,0.3934747968097602,0.44468209092355193,0.472067350881241,0.48855875775740976,0.5116010818147169,0.5483017469621991,0.5998732709501547,0.6626192948549016,0.7343895110554503,0.801127214032715,0.8412800071198258,0.8357143061775565,0.8002925598834479,0.7718272744717656,0.7688029426450133,0.7929864900389973,0.8318878280950014,0.8656578013093501,0.8875125069657293,0.9080664113331386,0.9321742442563354,0.9409484604344381,0.9165796114892735,0.8653381614062249,0.8077974311304369,0.7685399392593467,0.7628851150914981,0.7899742602742623,0.8281043268272786,0.8488416697063993,0.8421740564887714,0.8069870798485703,0.7238415901701777,0.5714837026401812,0.4082061086840982,0.285592285067738,0.1865227148664619,0.08055914371626349,-0.04484556590657711,-0.1803830336459971,-0.3024066364149604,-0.4012267537828102,-0.480808976424522,-0.5433519465641706,-0.5994674324997009,-0.6631746061853829,-0.7365571991981364,-0.8097440439418535,-0.8713237129695484,-0.9151484685939786,-0.942446916287679,-0.9558663381840988,-0.9593573961141401,-0.9579141803007817,-0.954175094962663,-0.9482720065609566,-0.9384305858712884,-0.9233970675776486,-0.904982521158441,-0.8864484728585209,-0.869228228347381,-0.8562661298883335,-0.8486997161004914,-0.8449050474792199,-0.840785954027491,-0.8334980905538851,-0.8241583850855334,-0.8143015287419288,-0.8047169968008674,-0.7945499072677193,-0.7715958801057172,-0.7142127747544487,-0.5975161940880934,-0.42196975424499356,-0.22355319146219066,-0.03525162357694307,0.13523414850052323,0.2864675687928248,0.40380136015954515,0.4784391125092681,0.5273712129367043,0.568984690275482,0.6132892101749643,0.6595131724442825,0.7057041280591017,0.7558328766956278,0.8158554067403422,0.8845635406311999,0.9379795103525959,0.9578597119739347,0.9566320364466233,0.9489418875116193,0.9348374074398474,0.9184099431059045,0.9125024972145318,0.923228483744815,0.9421393806805654,0.9573466962088709,0.9635843647053646,0.9634651016823101,0.95863882211652,0.9497064110899404,0.9405214829894306,0.9322460694735129,0.918926457846307,0.896475779150751,0.868235676523471,0.845534481594361,0.8407716891749096,0.853066280190537,0.8607133115770808,0.8434397222048924,0.7945137129855813,0.711799111826019,0.6032404467906877,0.4720802432740942,0.294752337021823,0.07864318426997723,-0.1241285437986668,-0.2952425067550776,-0.46464925384380734,-0.6355713789471091,-0.7768894281970838,-0.8707900387460356,-0.9219941501344892,-0.9461756165935872,-0.9585239091160282,-0.9656691278621569,-0.9711674198341304,-0.9739662015359897,-0.9734662712899649,-0.9708192648960005,-0.9685565064122618,-0.9698980014219557,-0.9755560074759657,-0.9830624328282885,-0.9899843577102743,-0.994541635031806,-0.9964670962232278,-0.9959730410616725,-0.9930669530353733,-0.9879208655569183,-0.9811402116886081,-0.9753848041954405,-0.9723622757730613,-0.9684457961068553,-0.958140579342887,-0.9444219861070643,-0.9333308221089326,-0.9257418478923285,-0.9082480063508814,-0.8648260312416778,-0.7899478249483982,-0.6760475687836707,-0.49360255897327887,-0.24061770075190844,0.015268531821639252,0.22317683320474097,0.39067668584857873,0.5278635272513837,0.6429792066656277,0.7395133373798638,0.808057466942315,0.8450652597756477
