-0.9838688427732638,-0.9820732764921746,-0.9807070518146828,-0.9816097602469727,-0.9843736511625492,-0.9865308089083965,-0.986671641334629,-0.9863944837431833,-0.9863217641483328,-0.9869793572231927,-0.9891019522384304,-0.9923840539744272,-0.9951501363660548,-0.9957839277207081,-0.9937833888385497,-0.9897302950051263,-0.984916613705366,-0.9815182046034084,-0.9773685190104315,-0.9704495546078997,-0.960041995586906,-0.9435363684966568,-0.9120387015527645,-0.8535152823725899,-0.7385496108293936,-0.4894797027527146,-0.01303043313071878,0.4449258943547134,0.6665159743115989,0.7749131592526253,0.8365094757430722,0.8757204974977357,0.8994225693549515,0.912121154248198,0.9180976904107523,0.9218242622037811,0.9268586628623822,0.9341234699696747,0.9420445943296578,0.9479802540031753,0.9522043793253137,0.9562904953407785,0.9607021664108328,0.9662426505762006,0.9708822843399816,0.9736096201932072,0.9743818214207752,0.9733162455497597,0.9736964914140477,0.9785880081523719,0.9871102535986843,0.9943023370643014,0.9976664400229243,0.9974215100825217,0.9950560778786097,0.9915198430349591,0.9878136523043773,0.9838229479307883,0.9826198823711406,0.9825463936396894,0.9730008805937634,0.9526899916857187,0.9248193117077991,0.8843930289189638,0.8055222330158279,0.6207149681096401,0.2623626125790595,-0.08331167739108254,-0.26554371415050937,-0.354723929866249,-0.4190845856172593,-0.4780111155971649,-0.5441348807327315,-0.616357787212242,-0.6838264885836589,-0.7428304801069914,-0.7946197073973396,-0.8448814707393527,-0.8895363831547797,-0.9229303044124207,-0.9441782343896276,-0.9573469799095329,-0.9674686005289149,-0.9762034435300757,-0.9823230212348496,-0.985816491402399,-0.9876327455343801,-0.9876668162174748,-0.9848297753016255,-0.9784361140282664,-0.9717347743902832,-0.9695059969130876,-0.9719194230931086,-0.9699971977861492,-0.955290104611099,-0.9303412290248477,-0.9022992191156645,-0.8746171680118121,-0.8483159859859191,-0.8261266622548026,-0.8107743863772106,-0.7924312580375713,-0.7516129384586077,-0.664789233695891,-0.5235741792082026,-0.3325069019518706,-0.10010275799370218,0.15600626618295835,0.3986965073000516,0.590655066011183,0.7202201731476835,0.8055177362546376,0.8621146864007342,0.8996193529199055,0.9256891849227461,0.9438628613892526,0.9580670746643604,0.9715130284117712,0.9814103154931163,0.9862761872639744,0.9864772092981914,0.9845828764742098,0.9841667793959374,0.9861896370820891,0.9894227137499797,0.9920232089589649,0.992850576883589,0.9909792142687445,0.9876422748462645,0.9860164817019157,0.986964021031409,0.9889148974000311,0.9900520190438996,0.9899946819452076,0.9892054069498554,0.9883564695341809,0.9859830638343141,0.9808420566415673,0.9750214290354773,0.9722695602677365,0.9764187737401906,0.9791160005561976,0.9615228273751523,0.9119944706754566,0.8235881169591489,0.6670436497915048,0.3705801675550973,-0.09325952397497185,-0.49770400744327903,-0.7056279819137355,-0.8009560820418815,-0.8547059877681994,-0.8908761927685269,-0.9170687928086123,-0.9365207376519646,-0.9520743980282161,-0.9660124115143661,-0.9773010265010018,-0.9850773866430649,-0.9890187939739901,-0.9897962481800882,-0.9875469725405053,-0.9832101191776298,-0.979062927189521,-0.9760386028199038,-0.9751342624113135,-0.9755683667726919,-0.9747347759457872,-0.9726146204559474,-0.9707520718838689,-0.9702443733524247,-0.9716705098691872,-0.9746864408180955,-0.9747265348520704,-0.9666945688444772,-0.94667318153837,-0.9146881786936787,-0.8800979516195642,-0.8559007027985331,-0.8416895788645681,-0.8302959024076373,-0.8225620192068667,-0.8235307202845135,-0.828099061322562,-0.7739234359263291,-0.6292994387962249,-0.43836880100587,-0.16606811011064,0.2280193332383273,0.5903144224070314,0.7830311513303233,0.8703377391448149,0.9128112198049785,0.9330587427255583,0.9392181705087249,0.9401439532695092,0.9440404618182183,0.9543326044808355,0.9662972144040296,0.9739633797690204,0.9771177621038364,0.9778416584288526,0.9780906857532001,0.9796729139422746,0.9829775627228949,0.9868436835888604,0.9897762998313125,0.991519961010251,0.9920595516880298,0.9917258690189266,0.9916978563468087,0.9924686944358628,0.9935591472931715,0.9938778219507209,0.992996687270428,0.9907486316384723,0.9882364740974358,0.9858358525710004,0.9815843157217946,0.9711861745433259,0.9514097218375906,0.9189081000560654,0.8692442965720482,0.8032009374332032,0.7043219915423705,0.5235008170793873,0.22484168681209324,-0.13252656409426417,-0.4283012101416798,-0.6268608615303632,-0.7569880607359046,-0.8379012553799631,-0.8816755118178368,-0.9028762103919875,-0.9153695607076672,-0.9271018477161452,-0.9393728300940973,-0.9522235325264223,-0.9625270823665023,-0.9687124618342009,-0.9718715500685674,-0.9741812703824008,-0.976455524234321,-0.9784536984926678,-0.9804331253263228,-0.9818670168706835,-0.9829541969217862,-0.9842480093870769,-0.9851742935247254,-0.984737129462788,-0.983327325201886,-0.9831786366018279,-0.9852523375427442,-0.9879778214547349,-0.9885452549023446,-0.9851638934284556,-0.9767734289436335,-0.9651895452396195,-0.9542069155433466,-0.9452442789456998,-0.9368584632717996,-0.9241130349505627,-0.8977566095072869,-0.8435689918413314,-0.7472295580580474,-0.5974125608899937,-0.3944588511495223,-0.1335295429496863,0.1728902582070964,0.46376544223845784,0.6536111796627101,0.7594358054284114,0.8092928772079607,0.8312999525885814,0.846975614514267,0.8678212540631893,0.897055041146604,0.9285313666281167,0.9538354973826827,0.9661649000200727,0.964311909188867,0.953732696228575,0.9420796243507041,0.9347221501227561,0.9327402421585775,0.9341120936078886,0.9367090082038216,0.9380484764190564,0.9368497039299134,0.9361210253575056,0.9448457628253669,0.963473038802056,0.9610133605456039,0.9124326751831107,0.8566476508973121,0.8350221934817142,0.8507808174243402,0.8942792475205734,0.9463880249093056,0.9760784622922759,0.9504233690577109,0.8748539719472899,0.7983782846424379,0.7626314049763347,0.7855620715790677,0.8111573031328121,0.5516581522024364,0.17487030820538818,-0.1462198333158716,-0.4503662991222592,-0.6898466070266566,-0.8314228359884478,-0.9008179087111059,-0.9262461457325204,-0.9302925034974243,-0.9219200016657754,-0.9046167132337871,-0.882714544497941,-0.8666942624360514,-0.8653419046664312,-0.8727185681325753,-0.8781811582484104,-0.8842027766708882,-0.8989989666931376,-0.9210470295746905,-0.9412752512063304,-0.9570571110569078,-0.9693221448974383,-0.9785379034593014,-0.9829153673552029,-0.9832011669758148,-0.9818010058207696,-0.9791894961705775,-0.9754008480344464,-0.9698194073920144,-0.9621462662449684,-0.9530720089922126,-0.9429011276152448,-0.9334896446986723,-0.9259330524446758,-0.9172302585122967,-0.8987142433522529,-0.8596083668061385,-0.7913033582228748,-0.6759702097953199,-0.4842536969846774,-0.214220918775174,0.06859513309618409,0.31305042176980813,0.50971529388599,0.6541126326734097,0.7546846767918799,0.8240927132310385,0.8653970517384224,0.8904886595447336,0.9119752466174775,0.9325131291994005,0.9494056981957626,0.9601765050593966,0.9647127177856526,0.9652567477731274,0.9645996960370785,0.9660990097060727,0.9696078457354533,0.9737903403885243,0.9774984285568523,0.980773143624976,0.9820852064874169,0.9809106671270831,0.9785077332435742,0.9765573498859356,0.9759182016481621,0.9767506313506213,0.9780751126305516,0.9777717603588841,0.9743909981789677,0.9699143766058979,0.9665971659408292,0.9628518930374496,0.9575902386911135,0.9487212743410932,0.9314660277237204,0.8982284315053659,0.8294580949423291,0.6863538283481225,0.39766843662055834,0.014784265568973172,-0.2882823467335992,-0.4714629305647218,-0.5881068201076213,-0.6829363286574381,-0.7672041269210087,-0.8390263158683281,-0.888965859071144,-0.9154382980452631,-0.9286411717865822,-0.9404237450468924,-0.9541778436835705,-0.9668615374304006,-0.9742604170717909,-0.9747469242739121,-0.9708571047379573,-0.9674217253366745,-0.9690639600089227,-0.9756649706603931,-0.9834422310456761,-0.9895940095743265,-0.9934190414516572,-0.994552561170327,-0.9935002642840913,-0.9918479571977347,-0.9902666294036084,-0.9887408339191468,-0.9870775121608437,-0.9865608772749397,-0.9877570581432281,-0.9901615389724738,-0.9921320709412976,-0.9904896471276361,-0.9839019975206663,-0.9734568560101852,-0.9587657163676677,-0.9348712603374328,-0.8895456330181809,-0.797716864365048,-0.5986330047512038,-0.22707738090638513,0.26943774504605517,0.6520606375205872,0.834942611178554,0.912756659069773,0.9488111621246365,0.9642006836724484,0.9694264901901919,0.9710130861567896,0.9713171822120618,0.9717376889260307,0.9715600972233902,0.9703345423526959,0.9685189513996131,0.968344865458801,0.9696386026398955,0.9713576336156869,0.9739021778308194,0.9780486022000896,0.9825993954216609,0.9866520753652975,0.9902194894961249,0.9936661262779857,0.9964208890995716,0.9975132683691194,0.9967085697605644,0.9947203227592468,0.993098678162089,0.9921896673925525,0.9908971626841954,0.98771104305134,0.9817292493433651,0.9720815112749798,0.958721661388261,0.9482268072832043,0.9422265460235252,0.9356376201659726,0.9192099769114684,0.8753361986422151,0.7689245227895187,0.5437670025280441,0.11706966266505575,-0.3422034792737218,-0.6071132086177202,-0.7376356077722355,-0.8145745523670817,-0.8641226612900026,-0.9030721387093379,-0.9333195616737332,-0.9553723172705174,-0.9691798387527764,-0.9763518403010991,-0.9810671403719092,-0.9853221203268314,-0.9891317628673593,-0.9916405115194645,-0.9925863634752925,-0.9925922424021645,-0.9932124766624439,-0.9949299987349343,-0.9964728206311942,-0.9968294561758366,-0.9957567984710737,-0.9935544287692534,-0.9906009114958072,-0.987815649516784,-0.985275984948137,-0.9823809308404416,-0.9792482536775768,-0.9756185261730329,-0.971069872075252,-0.9662441308906368,-0.9580421321480468,-0.941638576075791,-0.9143140517903642,-0.8757767490671884,-0.8231454765426582,-0.742206193846782,-0.6175067049105999,-0.4495323514875804,-0.22557814668314063,0.08356069764208422,0.3864416237343092,0.5922276855387743,0.722829242712421,0.806003813153041,0.8536255843391067,0.8810903489906144,0.9005110464001368,0.9184617521800442,0.9326891205403987,0.9430300556868136,0.9457718998593929,0.9392816933172028,0.9248343756757404,0.9105563168146075,0.9058726965349062,0.9164754346853473,0.9372952290785308,0.9575150897004405,0.970831122575178,0.977101150355114,0.979317588410132,0.9791653497096542,0.9795299904755234,0.9815440863536459,0.9836801875893663,0.9843031879588331,0.9820607618351808,0.9772106267498384,0.971333655184523,0.9649498450768487,0.9577055122383537,0.9419122152581237,0.9043945455986343,0.8303849939881743,0.7092477715527724,0.5266173939581721,0.26111256064795757,-0.050823149411645105,-0.3199307760977025,-0.4978121926162188,-0.5944040772985665,-0.6376155977328238,-0.656262275212287,-0.6768835665018996,-0.7095669436216487,-0.7598029426037133,-0.8191432829362042,-0.874166793660853,-0.9130608068013734,-0.9363476227322338,-0.9497072133405718,-0.9585868829052521,-0.9637804895568542,-0.9656981417057247,-0.9670415583018445,-0.97047300247468,-0.9761811397281444,-0.9828859437721698,-0.9892483930397152,-0.9936746998246673,-0.9954614095454108,-0.9945312520924263,-0.9924660271176355,-0.9904440700031005,-0.9892480903312256,-0.9887112459625351,-0.9875819447324607,-0.9840437524570006,-0.9770778532997201,-0.9691516128550242,-0.9627239594005516,-0.9589101346467516,-0.9521860520283771,-0.9322437005615689,-0.8925026325877162,-0.8228566754943584,-0.7167614349416543,-0.5673866094394061,-0.34222122517589393,0.005870321372376957,0.3920303202564499,0.6510712637601076,0.7846720783867889,0.8560920643852461,0.8963238147994177,0.9178044629678836,0.9289122871125578,0.937162624529917,0.948242827321488,0.962019556913276,0.9735853842869769,0.9804635309349967,0.9824356933359019,0.9781839124676588,0.9704500476086952,0.9658960058726042,0.968640698803884,0.9753145327288099,0.9822850880730684,0.9870074102246083,0.9888204414692545,0.9888701373670289,0.9887761716250069,0.989624726548674,0.9901606745139336,0.988752783885599,0.9853288150584674,0.9811068037669465,0.9784159689431386,0.9777939220407317,0.9778832638238291,0.9730290204459671,0.9605183633119806,0.936310474572604,0.8943574508677867,0.8199293316337635,0.6975508236905706,0.5026457712080602,0.17742414830754347,-0.19633589636965268,-0.47295417521655625,-0.6672163706574137,-0.7887041976221791,-0.8492910541945786,-0.8762261223118242,-0.8936857516287482,-0.9096903140811936,-0.9260923853808349,-0.9411656449188562,-0.9530436472634943,-0.96152269786638,-0.9670049475346986,-0.9695606673061395,-0.9719497714121013,-0.974952091037456,-0.9790242535412567,-0.984834265370986,-0.9900920914068184,-0.992928136931754,-0.9939836997816942,-0.9945632190467563,-0.9952971921171707,-0.9957018785952193,-0.9958548649763271,-0.99593933901461,-0.994978917424942,-0.9915598321818104,-0.9842744905704864,-0.9740674514177529,-0.9664964916996883,-0.9679171531353699,-0.9752544019356096,-0.9782772416904436,-0.9657433052427533,-0.9281488873310187,-0.852560114563235,-0.7194896492546611,-0.5209866940966057,-0.2648219135956965,0.023812595117044602,0.31104410671446814,0.5438947949670875,0.6964987255977881,0.7912956025940537,0.8527891028013271,0.8984352087513673,0.9297268659371234,0.9484052230408199,0.9587909028918418,0.9642345078869234,0.9641480696138117,0.959568981171599,0.9522295891541331,0.9445689488476422,0.9391814029613854,0.9391900829210488,0.9433484886697032,0.9502001127506273,0.9576471082520853,0.9643879179084626,0.9701170032417027,0.9760025572482802,0.9824434269573485,0.9892299568694851,0.9944286774698723,0.9967573654818085,0.9967040805014444,0.9951986442253301,0.9926949482627362,0.9899400619774357,0.9875728255696419,0.985150895072944,0.981209705688947,0.9743459397548342,0.9571488592689923,0.9098221032213227,0.7918403016734025,0.5537259781101932,0.19947314872594785,-0.12809517649328553,-0.35431469122666104,-0.5151701142079074,-0.6397042141145914,-0.7412017691608155,-0.8190085533497846,-0.8688574743536169,-0.8980697823499746,-0.9183800247611351,-0.9342626667040358,-0.9474563011956053,-0.9582023829766247,-0.9657206773959626,-0.971352887170511,-0.9763062600150296,-0.979958327765351,-0.981236986835232,-0.9807002878078535,-0.981028227157806,-0.9835665216273924,-0.9880933682037444,-0.9926596826641383,-0.9952115045737459,-0.9954369713241937,-0.9947962053155632,-0.994117235235869,-0.99322262740407,-0.990843196350805,-0.9864479851870731,-0.9807351612581116,-0.9763472758052231,-0.975624020999729,-0.9767272548725577,-0.9755060504664695,-0.9715040360110211,-0.9641306379042265,-0.9386610799800721,-0.8725806390040668,-0.7372311593522171,-0.4886809465866758,-0.07694778693695638,0.38676441488108104,0.6770643677096437,0.8114400239859633,0.8783885335931434,0.9159399196234919,0.9390118722457437,0.9518694135379644,0.9591070967030019,0.9644022609208811,0.9695115409412063,0.9741759584989309,0.9750011694650751,0.9733286824714105,0.9707121685040213,0.9681697223230322,0.967391234129583,0.9692183843546059,0.9734484908701138,0.9787313868926926,0.9837966811605608,0.9871482699756432,0.9889436858914508,0.9908933991786578,0.9882331680481791,0.9675516722433107,0.9294319910451031,0.8899629138910576,0.8659563991552941,0.8658857884342225,0.8867740930722273,0.9191505520196898,0.9463070651823289,0.9571259490636609,0.955251523661465,0.9435606452058487,0.9173934227396229,0.8506734126488024,0.7056069897128158,0.43329731868553223,-0.005063941885663846,-0.4467092706100063,-0.7052211842365673,-0.8260316664391765,-0.8857224861103568,-0.9212655626627467,-0.9399624708444039,-0.9486595370624492,-0.9533459236964951,-0.9600131826378895,-0.9666396024636618,-0.9654719776568765,-0.9513681568040926,-0.9315519070324109,-0.9226596032069935,-0.9359249812128826,-0.9621076025995272,-0.9799466482099972,-0.9814021833444694,-0.9761329785761388,-0.9741205619586285,-0.9759230967360976,-0.9758914933772848,-0.9717815871417828,-0.9662944042232305,-0.9628385409104145,-0.9626311772565161,-0.9647444038897648,-0.9680861460052701,-0.971329824751487,-0.9744197966858242,-0.9765161482903044,-0.9739407233572831,-0.9612194590981816,-0.929981625272025,-0.866968639331746,-0.7613485713591529,-0.6114156411799425,-0.4088161097181834,-0.18842300871471873,-0.010398344265309787,0.1270262546549608,0.27194421180048794,0.45214217032391923,0.6262080841794375,0.7502937332970666,0.8222703679170424,0.8677472063455263,0.907392924122645,0.9448302691142687,0.9726867386135208,0.9876592923574922,0.9934369615894026,0.9946130424584568,0.9935157889177622,0.9904922108801385,0.9869885725871795,0.9858683860091428,0.9873265766857366,0.9894700356760527,0.9910182746751364,0.9918586236815936,0.9913514831332306,0.9876678143461673,0.9792584716537422,0.9704493087735816,0.9689141229463915,0.9749289932777422,0.9806862202618659,0.9800280786562325,0.9750446630071405,0.9709704552665043,0.9716920178649151,0.9778357072786282,0.9814321662728835,0.9763352305663968,0.9578411979349543,0.9104921911339215,0.7948809178334998,0.5365659447390642,0.13900251426632,-0.2506976363660051,-0.5305313034130688,-0.7227084719558425,-0.8416407870386161,-0.9040141698610916,-0.936994705147723,-0.9560709083534744,-0.9668963993905098,-0.9726487558627666,-0.9753049107693945,-0.9763794822973086,-0.977734647816172,-0.9801327355757747,-0.9834892007966531,-0.9861823658947447,-0.988475791417565,-0.9908738442933936,-0.9932488340820229,-0.9930456501906785,-0.9846393751166993,-0.9673841813269799,-0.952248502193938,-0.9525916605494423,-0.9686771729852354,-0.9851690051461152,-0.9866537680939792,-0.9752225620260035,-0.9632269884974689,-0.9568344673008226,-0.9560748628158984,-0.9603622512165487,-0.9647831754451667,-0.9634392653212044,-0.9542126866121878,-0.9337494093304494,-0.8853761301005693,-0.7698191716950328,-0.5365791166761215,-0.2110921052587393,0.0852048337397909,0.3378119135980659,0.552684990068412,0.707107344056015,0.8085979652847486,0.8714576258901348,0.9109531404566661,0.9351303063945992,0.9488155778548721,0.956172087647861,0.9621805595289118,0.9690555482260581,0.9763423670050204,0.9825925539389088,0.9861642966800096,0.9886352830349635,0.9909906598968765,0.9929048590596187,0.9937697539133089,0.9934904591792889,0.9923320187350437,0.9898608566356534,0.986362654397252,0.9831096422826219,0.9810558821887898,0.980602369612755,0.9808001704509537,0.9806959260406817,0.9800301513029983,0.9789972887986252,0.9760330676127527,0.9703483402906093,0.9617989640744128,0.9465649076525411,0.9199982536988333,0.8797379624283417,0.81711776597495,0.7072427396668177,0.5311008704172936,0.29479134131981455,0.01396276431971603,-0.2668947976298965,-0.472993560431765,-0.608635306141749,-0.708382670376823,-0.7852798095150314,-0.8415477399115543,-0.8831132639500205,-0.9157377588929628,-0.9408946511216773,-0.9593045083546846,-0.9713807192617121,-0.9777188863701101,-0.9811443567412759,-0.9826228878056512,-0.9826782255739122,-0.982646979991589,-0.9844501674280165,-0.9879337730736129,-0.9913542011233896,-0.992883909769519,-0.9925139876682174,-0.9912179413720303,-0.9890283529083098,-0.9854949650981703,-0.9808412106937952,-0.9756566769027687,-0.9712697846756563,-0.9697251122565796,-0.9702241613219238,-0.9718366974390501,-0.9726351536488329,-0.9712621324354903,-0.9666443437024446,-0.954910198199087,-0.9279540133606892,-0.8695777806204181,-0.7522534323000666,-0.5399692942515082,-0.23980612302849122,0.09894177046900023,0.40472015980760845,0.6182731387066963,0.7394146663384951,0.8100481057124385,0.8561873526317061,0.8894265272939854,0.9153879266840316,0.935631606677533,0.950882963198128,0.9618036623479489,0.9695636956653372,0.9741173763120441,0.9762219844319451,0.9764475372586865,0.9763316502808486,0.9774202324432774,0.9802237153551142,0.9834701819819565,0.9858207884065145,0.987149064384445,0.9880462651093816,0.9890300227672835,0.9908778302925875,0.9932535517971903,0.9946930212382298,0.9939859902084971,0.9919429858838749,0.9904322078625232,0.9902749383892436,0.9873931461690661,0.9759333023357194,0.9545689555966411,0.9255333641783509,0.8886258433302575,0.8394441085399297,0.7675144555181954,0.6526989204173953,0.4734188636177223,0.21572975854740326,-0.07902074281058774,-0.3355948871997122,-0.5279431431518473,-0.6601964812370312,-0.7495377696287391,-0.8050488442228195,-0.838052626991634,-0.8620584190738791,-0.8900075254995569,-0.9214415216613924,-0.9505971287346113,-0.9694472352076227,-0.978231256477936,-0.9813186108140165,-0.9814912883703556,-0.9804568730182761,-0.9788913286991269,-0.9774480297796573,-0.9773946520554758,-0.9793138906788293,-0.9830455263379732,-0.9864989068987073,-0.988775151095547,-0.989479659980365,-0.9887395448448987,-0.9869961084154356,-0.9837726723108181,-0.9780739471940857,-0.9712248834130276,-0.9662512938165506,-0.9641725035975752,-0.9629101592750448,-0.9595570690519637,-0.9534244341134559,-0.9421458531533224,-0.917912954526206,-0.8397210624967177,-0.643231156901643,-0.3737513671022527,-0.14537453701211658,0.038746962695634164,0.220539453213523,0.42960947977901487,0.6659133246427537,0.8452066136375884,0.9061219062451614,0.9068150262570832,0.9043168737941708,0.91436570837021,0.9289993446882894,0.9429208483912398,0.9554534739093193,0.966519649625909,0.9742569004493085,0.9736986967809509,0.9633989792686495,0.9495067233888048,0.9419123984603047,0.9458732515307882,0.9592741221793085,0.975339377863313,0.9883553382576454,0.9948923390020308,0.9952337416756509,0.9925194133064692,0.9900035951129609,0.9884115882642205,0.9881641002014777,0.9894763767844498,0.9908182554160334,0.9887089999101494,0.9819722039118597,0.9745613473157242,0.9689186381815531,0.9609990489884059,0.9447690361340294,0.916756299795398,0.8678292949557377,0.7699413614998765,0.5354509774779181,0.042673094809527565,-0.48616755908442955,-0.7435822569467402,-0.8352841659154883,-0.8671665728008925,-0.8770138504053041,-0.8826559707574393,-0.8900542667790243,-0.9026031381640658,-0.9187245520651066,-0.9343868422409413,-0.9465235825912937,-0.9537150365881163,-0.956877144880263,-0.9585123384049736,-0.96027023259752,-0.9654998388009913,-0.9735150667465827,-0.9811159619176867,-0.98647398966011,-0.9907788338425786,-0.9948079383025865,-0.9974186215077284,-0.997549580098766,-0.9963247114406348,-0.9949533444051357,-0.9934909817713506,-0.9904364547561657,-0.9836731482212657,-0.9735065137740826,-0.9637160667088168,-0.9601892570484415,-0.9627181511972029,-0.965292129833725,-0.9614144741321614,-0.9400503400270315,-0.8692044670271143,-0.7123344039891539,-0.48465557478451365,-0.22601829923440586,0.019651942942694577,0.23514663006235267,0.4194848499060841,0.576745331123477,0.7097120891355831,0.8076306676770051,0.8701993030230958,0.9045475053218143,0.9221425417033946,0.9341243799264609,0.9451387589663871,0.9547745813234119,0.9621759014857032,0.9679091052375277,0.9721150450082205,0.9755189075444579,0.9783365936832819,0.9817769841197934,0.9862519396610689,0.9906188226004019,0.9932495562504685,0.993627742975393,0.9923548190746787,0.9897140647315535,0.9842210093117087,0.9767706114506838,0.9689480100511082,0.9618452612096667,0.956706357594892,0.9571103625009006,0.9633018771961134,0.9704272401473408,0.9714582359610497,0.9579168991775043,0.9301727320346448,0.8949388262707499,0.8572317749638932,0.8105220953402708,0.7179442007541982,0.48472971776469226,0.04057670525829685,-0.38576588356204666,-0.6279022203156988,-0.7578197712567891,-0.8327315194125569,-0.8744107886871656,-0.9009125647301502,-0.9218767740240547,-0.9389955248364955,-0.9497683423389154,-0.9529055430323993,-0.950063572178329,-0.9442404099883833,-0.9387889229129077,-0.9388466804192787,-0.9465733541915565,-0.958294404367148,-0.9694526736290677,-0.9787543675655209,-0.9863703875977404,-0.9918868343768529,-0.9948356879502263,-0.9954225501193122,-0.9942498764195107,-0.991959313707501,-0.989233017347188,-0.9873625986446081,-0.9873223668340316,-0.9877054898078956,-0.9866590266952946,-0.9847203673548738,-0.9848030126451599,-0.9866769115116745,-0.9875653550242945,-0.9839634449410893,-0.9707776919668979,-0.941528168147522,-0.8862083521403435,-0.7631762238990389,-0.44888507539438555,0.09849228712852383,0.5502977107358689,0.7539034921894142,0.8310528311937349,0.859030592380582,0.8728987769409831,0.8849994370049753,0.8976879508953818,0.9134673044252507,0.9321771658376676,0.9490755416860192,0.9630020086511558,0.9730023603323175,0.9792600667561845,0.9810578420275217,0.9796970155378312,0.9773910106210011,0.9747004290708896,0.9726499346333539,0.9710076672458264,0.9699678071544054,0.9692205117183632,0.9725250734854286,0.9814589852128063,0.9914992646017354,0.9962450841042744,0.9946081507750866,0.9909321467579469,0.9889427228901463,0.9885142963130732,0.9896802527441751,0.9926626578428095,0.9935120763860908,0.9862530048448529,0.972479374842291,0.9568575249413815,0.937626070375505,0.8937914130984476,0.7647606296815826,0.4399350965829653,-0.0754884752574668,-0.4627973215045782,-0.652978642618492,-0.7543129535392239,-0.8196963816991568,-0.8609884118632118,-0.8846575298304591,-0.8994545299189441,-0.9159087185774292,-0.9374181563406003,-0.9601861977021657,-0.9770934866137981,-0.9858790566453342,-0.9881034625217896,-0.987461364956382,-0.9871589146496513,-0.9870247010673002,-0.9857341233793118,-0.9847856466781025,-0.9855951047296458,-0.9875681095914003,-0.989540002347047,-0.9909502944814318,-0.9920381221815024,-0.9922292734795214,-0.991314505559767,-0.9898474672340107,-0.9881844851006518,-0.9863962649031309,-0.9846876959541052,-0.9838027146840006,-0.9840013949927753,-0.9831243293001343,-0.9771338485413262,-0.9636885206993069,-0.9455386134142281,-0.921574998227579,-0.8804162226311086,-0.7859233837547127,-0.5849269263474572,-0.23906252961729088,0.2017027403492183,0.5736896006455505,0.7959753807699785,0.9049210833961441,0.9526018637624633,0.971509173305582,0.9769264197071539,0.9776083242418016,0.9779136628714121,0.9803242369653729,0.9835927595096561,0.9802739830721978,0.9668718800907643,0.9496608631292676,0.9405487924743757,0.9458580876205727,0.9594876025121726,0.972782813451197,0.9829094692016499,0.9889869763113669,0.9924261606592365,0.9944337089691432,0.9960362052703955,0.9963174370727489,0.9937445991060965,0.9868184833306725,0.9775873715846082,0.9680898178793785,0.9569928737781801,0.93562754299082,0.8944451546561911,0.8326924417453531,0.7548315146092034,0.6733057819673671,0.6019418669414571,0.5404436346914548,0.48278510796591184,0.41431767805166875,0.2953494825722173,0.058393127489402556,-0.276151653200892,-0.5099610951853314,-0.6245601596493754,-0.6934255067937017,-0.7491112127884899,-0.8050227618743953,-0.8588832779103429,-0.9005984257206114,-0.9277192286762161,-0.9454171423549883,-0.9570065924071421,-0.9626901743578948,-0.9650425193856121,-0.9677267614486854,-0.9708880603562032,-0.9740841820184146,-0.9755281304294219,-0.9747045957811578,-0.9741846249367775,-0.9745469610468427,-0.9749916786997325,-0.9745332860139301,-0.9746697285320787,-0.977106533547831,-0.9808789319761835,-0.983684839411501,-0.984764686487699,-0.9838437443604666,-0.982089415601474,-0.9801548924806401,-0.9791182605922013,-0.9791115909308797,-0.9772745738520664,-0.9694384455731293,-0.9490628648836362,-0.9061937317266058,-0.8052970708365362,-0.4923343560575248,0.18972695534821174,0.6041842063339534,0.718581246121683,0.742878031198311,0.7554415089959489,0.7828488840355019,0.81918096709203,0.8606895532202318,0.8992287943808446,0.928407829395228,0.9444865931359934,0.9505874331528822,0.9497616202125873,0.9457576517584747,0.9397531166753172,0.9340667980891048,0.9329054589171139,0.9390254660782448,0.9516289004120388,0.9659846229749249,0.9772979348770768,0.9835592585949101,0.9859741813076305,0.9863046703796957,0.9858096252877073,0.9849754649279014,0.9850225292368199,0.9859358431467936,0.9852730574972295,0.9736197859204914,0.935215951054904,0.8773728639131427,0.83262537366209,0.8116445567932167,0.7890924419198075,0.7373992058928377,0.6385585501061921,0.5035085945855214,0.3722170793053313,0.2705563928495154,0.19225651843834474,0.10466928211413191,-0.04731728591956811,-0.2870983328002524,-0.5238063233933951,-0.6777590502409369,-0.7672224607906668,-0.8244948397603178,-0.8618053263794339,-0.8859391419449539,-0.9036451879128242,-0.9167156227788796,-0.9271135036509518,-0.9360870062526369,-0.9448921489756934,-0.9531841700918748,-0.9609426239566554,-0.9690763815589275,-0.9767863713464354,-0.9827740319247372,-0.9867055483834674,-0.9890140484781987,-0.990006378491942,-0.9904762221719823,-0.9911439027510897,-0.992659313188627,-0.9940520791879867,-0.9942661583389719,-0.9932214441415262,-0.9911291856455177,-0.9884370654508697,-0.9848405872890695,-0.9808534707104809,-0.9741440091442485,-0.9601365159052374,-0.9327980145835114,-0.8862154167028103,-0.807265765716791,-0.6821524452503476,-0.49374943230822144,-0.22744481083639934,0.07745486867535872,0.34851071167830355,0.5353728058780265,0.6496401409979419,0.7268699254010859,0.7896710458664598,0.8452505585148706,0.8901194031592234,0.9210090040997312,0.9417531327612096,0.9567155621899459,0.9668783345560784,0.972584757745773,0.9732510665398431,0.9687254996245543,0.9617459372132723,0.955055843463108,0.9506661317440915,0.95034549350103,0.9544328625076428,0.9608927253865611,0.9638864406174573,0.9615395655171243,0.9570758494449167,0.9550237665557187,0.9546367060809628,0.9530898432010737,0.9477630147507222,0.9425910588562681,0.9422254778033621,0.9479557081234905,0.9544598188633864,0.957052956103859,0.9517780472116556,0.9327933956356831,0.8911805865304139,0.8128823034400373,0.684826210110073,0.5015642894871398,0.2699563175930708,-0.036207699793253396,-0.364503719404112,-0.6032506765065875,-0.7383951175778263,-0.8098385942452356,-0.8446442272484208,-0.859415567668758,-0.8654595518675813,-0.8734250779922568,-0.8897671275707087,-0.9138799812474857,-0.938055770746649,-0.9570902557206296,-0.9700658042594287,-0.9788135958913196,-0.9842572102955748,-0.986892823965104,-0.9884328972210872,-0.9897907487684863,-0.9896830571514795,-0.9864772824925828,-0.9811989745410818,-0.9760209588272071,-0.9726501341207485,-0.9726705284984609,-0.9763676375980788,-0.9802683426079352,-0.9804380874065118,-0.9777625336525216,-0.9756895263930064,-0.9762642370942808,-0.9775131761843309,-0.9772725014632299,-0.9718635796365073,-0.9587304330557647,-0.9317077341433783,-0.8761999166152036,-0.7718912496275706,-0.5940184329796758,-0.329630275620785,0.00796142464636864,0.3665888706996293,0.6383010911676619,0.7902929377467237,0.8658283225941582,0.9045103086542051,0.9259162346671665,0.9399182966546461,0.950327875336056,0.960905631080982,0.9727207085271705,0.9827776811429975,0.9881530706689624,0.9887427996901194,0.9870263357492552,0.9846507325626027,0.9833142327106524,0.9847274958689988,0.987841467649664,0.9909033530042572,0.9934377890288206,0.9955787998082941,0.9968406426029846,0.9969016493119931,0.9966394654844112,0.9971254762313689,0.997746534407676,0.9968571481210292,0.9937856473817773,0.9895978833479778,0.9855608501209161,0.9806433725195622,0.9729112158601123,0.9627786362880311,0.9489420226229627,0.9244831457767138,0.8867463253386411,0.815143676234417,0.6704884493506242,0.39037142349286796,0.009302511007447278,-0.298792807980192,-0.4996709336035653,-0.6466761491463447,-0.7586748526918455,-0.8340070753182481,-0.8762919910531227,-0.9024085074307197,-0.9244116220887093,-0.9439650999636768,-0.9584222123495528,-0.9676669774730366,-0.9731793973697462,-0.9757065654344057,-0.9758978632307824,-0.9760398370122265,-0.9775087902451496,-0.980767161009053,-0.9856261452027077,-0.9907366980079321,-0.9941204818457878,-0.994975341556006,-0.9936193704091345,-0.9909474020232191,-0.9883805849911056,-0.9864323509055942,-0.9835790630100771,-0.9787926807632892,-0.9742657889183595,-0.9726925496881497,-0.9738127243581063,-0.9734063783885158,-0.9676534149822305,-0.9531072060486527,-0.9278261929410931,-0.8841978949357453,-0.8104360955017341,-0.6960327501643494,-0.5379685717025201,-0.3371815952222138,-0.0755981505914118,0.22530597904243754,0.48508368713652655,0.6504793865151646,0.7385192834857888,0.7864727473697054,0.8159843755693649,0.8445019522633511,0.8793443854397145,0.9188670424936545,0.9514544092235466,0.9668356493781501,0.9650944114452515,0.9568018415984841,0.95207213415542,0.9543821447055828,0.9620840298655364,0.9706005057617488,0.9772731536276529,0.9820889527190795,0.9851422857602622,0.9873201461521937,0.990090145459983,0.9934183933408608,0.9962589250563127,0.9970335871534275,0.9958487019553632,0.993871410708919,0.9918856507283901,0.9899888679090091,0.9876141415231291,0.9834294023877926,0.9752728472443281,0.9616841642418601,0.9412544750908505,0.9111569275451431,0.8647110358317637,0.7800478929089075,0.6073508211611321,0.30481056577197563,-0.05700830141527977,-0.35937123636499074,-0.5614418234280282,-0.6796979481588494,-0.7555449862526594,-0.8198365763076729,-0.8750022085004322,-0.9163752687178631,-0.9432739790856292,-0.959302448354317,-0.9689240688091684,-0.9748598303899065,-0.9783951081707061,-0.9795974910068821,-0.9792264661289518,-0.9784952555790668,-0.9773175173597517,-0.9762739675600745,-0.9772686925807803,-0.9803424624712738,-0.9833517772056539,-0.9841775838598912,-0.9833952107576219,-0.9830871765067919,-0.9842399284827351,-0.9851965017611543,-0.983726684247569,-0.9791848201635992,-0.9723128098677821,-0.9658090057506347,-0.9579469871817902,-0.9442447062820335,-0.92463021311753,-0.9001556698977763,-0.8681892529462151,-0.8230086365688868,-0.7582560351775568,-0.6595459719469604,-0.5076859742873857,-0.30178558955170004,-0.0467561077524858,0.24102027080086022,0.5006256890261718,0.6878181196010962,0.8063505364173225,0.8795454421075117,0.9212320595842014,0.9405448068791441,0.9473502488729362,0.9513975751589906,0.9594035870228222,0.9707318925216881,0.9803243618536546,0.9857383269061178,0.9872074454768713,0.9873283088719144,0.9870109921139038,0.9865745203487117,0.9872294908364677,0.9890786332796194,0.9917126588404317,0.9941440960009914,0.9947997326264607,0.9917488513986493,0.9828965623718727,0.9656248671320783,0.9418245636734295,0.920108679147207,0.9107671351318302,0.9161414484920214,0.929966969288657,0.9438127964623991,0.951310039305717,0.9510199078117507,0.943330732394651,0.9233286150821727,0.8786210724979474,0.7760116351557785,0.560666167632482,0.19608331902178908,-0.2282351350717644,-0.5493725977612789,-0.7259533090834003,-0.8192157859901237,-0.8734786967606694,-0.9089918448727258,-0.9334030829372122,-0.949263201212822,-0.9597082677821878,-0.9660552874261056,-0.9699018928491585,-0.9728284351629015,-0.9753114261001733,-0.9776209728514058,-0.9806433280117381,-0.9841031014240715,-0.9872860871422848,-0.9900513922969779,-0.9919011441510154,-0.9929069224085918,-0.9935930351736763,-0.9939564385585096,-0.9933729762263316,-0.9917394956404691,-0.9906135573259327,-0.9911967455806858,-0.9927919415641052,-0.9933945190715726,-0.9924423630669384,-0.9908914341588155,-0.9899043143511095,-0.9886195785864987,-0.9866381329398394,-0.9858874013453955,-0.9840860278001948,-0.9759218449007895,-0.9544108448395386,-0.9007192569403263,-0.7450749072583158,-0.3711630905534934,0.13145400833625986,0.4897746276559436,0.7142325542598452,0.8572141423523597,0.9240578589363683,0.922965378427417,0.8880765253309915,0.8611947122598109,0.8656136105498312,0.8971161079808092,0.934652425636421,0.9592342467489214,0.9671175948238924,0.9643406414978362,0.95858002754412,0.9548981663485804,0.9560416932799785,0.9609457454332259,0.9678238817360095,0.9748045612643467,0.9806724547882011,0.9853065082742448,0.9885332844987985,0.9898567943132422,0.9903132765320615,0.9908856646076545,0.9903124169894405,0.9869833921468435,0.9816257574316413,0.9757510008095571,0.9718939150987146,0.9728565360581598,0.9779798882733173,0.9826503146695326,0.9829545945521293,0.9718685031309978,0.9461437005052441,0.9044949494356104,0.8362826833715205,0.6841219555000486,0.3475747631268672,-0.0892818377862711,-0.4179220571854085,-0.6216831864514579,-0.7487437728692047,-0.8322755053858408,-0.8922301616226386,-0.9354448884989189,-0.9618139260563711,-0.9745306029310097,-0.9794494287390002,-0.9815072780503327,-0.9821991710163038,-0.9832750901235355,-0.985730072921744,-0.9895137753511648,-0.9926551062188196,-0.9937047163744385,-0.9927660442801872,-0.9918097492811184,-0.9919710433296528,-0.9930609368370323,-0.9940220640806605,-0.9937261838255065,-0.9917362601384817,-0.9893025910804414,-0.9873736970625402,-0.9855255557320308,-0.9825379322887509,-0.9777320042780034,-0.9723148216924515,-0.9686086652849974,-0.9674210412720996,-0.9669639570968206,-0.9639477011051609,-0.954547021904577,-0.9329913035657755,-0.8916294752897619,-0.8212045421279602,-0.697181767242937,-0.43625447068565526,0.08343349236059505,0.5187930612754257,0.7249014980538495,0.8352757225155109,0.900501669594243,0.9381948450387526,0.9598282328869684,0.9717446712275384,0.9795833951467302,0.9843109455222158,0.9856536783235746,0.9831642541425908,0.9768100489450092,0.9678241855257845,0.9602509231671992,0.9605992538789214,0.969079439914577,0.9784759078541292,0.9841514190086632,0.9860179316466531,0.9870889389244977,0.9893406283638556,0.9909628270068878,0.9912953888310244,0.991377122327677,0.9911614662283584,0.9905056375064476,0.9903172908286547,0.990233588111016,0.9898357164596777,0.9888392033374005,0.9874435503269677,0.9852141722516997,0.9791211962300403,0.9616726406165286,0.9220735897840786,0.8332293687873066,0.6536331348591304,0.3257882588446312,-0.09267944523046966,-0.3989185098304504,-0.5690722632432945,-0.6787310285755147,-0.7576560041488559,-0.8162400030116658,-0.8603024409005795,-0.8899489309549939,-0.910159464424763,-0.9259464993282258,-0.9412346448132979,-0.9554164525899144,-0.9663887679944804,-0.9727820636480399,-0.9749880764358088,-0.9752420340471705,-0.97573991350589,-0.9776571121939904,-0.9818751068463346,-0.987475923801375,-0.9917675476843066,-0.9931853088982533,-0.9921609300035532,-0.9895670140112615,-0.9859949244161679,-0.9822338520799799,-0.9786191400075144,-0.9744575990445224,-0.9694961497485007,-0.9638106084173181,-0.9556849597589516,-0.9433530042040751,-0.9240269839924767,-0.8967664949757924,-0.8642997189440226,-0.8229094675373436,-0.7501595689553939,-0.5977280628260215,-0.34689110795492534,-0.06776841114583734,0.1616381233041254,0.34011696245775036,0.4994128496187053,0.6563694784486535,0.7873337429034916,0.8736588982608521,0.9162426676967431,0.9350100725178702,0.9448588954487326,0.9545005155370737,0.9644011649591362,0.972017558186874,0.9750452055719407,0.9711711261450277,0.9615621549055521,0.9516375011370892,0.9476669855569472,0.9525684269571759,0.9620282539858118,0.9717001117581138,0.979700045625993,0.9851813517938972,0.9884008729156527,0.9901966985546362,0.991037725791008,0.991606016403422,0.9927631069828623,0.9940706078482793,0.9937889819480961,0.9889484279760334,0.9776827673175374,0.961609171369622,0.9473316506282555,0.9391800182521763,0.9338289425915657,0.9127508640465181,0.8422192401918928,0.692686672968877,0.4922733622204585,0.30810642373921865,0.15926425630506202,-0.024700185566939575,-0.30881536910007146,-0.5992839161927138,-0.7855974880592249,-0.8825507935289976,-0.9295850792971119,-0.9519003007477426,-0.9634130683939047,-0.9706549933554243,-0.9773856376002957,-0.9845066847941539,-0.9882893156672374,-0.9847434699481212,-0.971663654500175,-0.9546258688303944,-0.9472601202760766,-0.9576322438188135,-0.976439564303938,-0.987658655291503,-0.9868915099764702,-0.9820224578355555,-0.9799941516808743,-0.9818562194965788,-0.9834161662508993,-0.981612639304485,-0.9749536366616516,-0.963513289094569,-0.9532482689077324,-0.9504182055254994,-0.9567588865467846,-0.9662891240251522,-0.9711712065340281,-0.9640008987176083,-0.9371661922421458,-0.8913202639633366,-0.8383899706888458,-0.7853530761806955,-0.7165364185266577,-0.5608135175520834,-0.07390525977034354,0.6639535646573681,0.9047966371158737,0.952203468044749,0.959762637246119,0.9561081394435371,0.9502556123641444,0.9456987751481142,0.9408885448023181,0.935092698007677,0.9282401773734058,0.927403478464886,0.9387448472638902,0.9584559266446218,0.9758546786451452,0.9858579617780207,0.9902200922529775,0.9908595804874047,0.9892054749560127,0.9862473872995885,0.9836557120448948,0.982620650501312,0.982934763899973,0.9836671005924478,0.9840470310788163,0.9843106208680525,0.9845482112783202,0.9846198313032103,0.9834823500661942,0.9786956982596913,0.9680050611089742,0.9534127548453227,0.9399979553514611,0.9271144828961477,0.9061590143594217,0.866492324573803,0.7891295378868047,0.6475625537908536,0.44691779045581015,0.20959273397480818,-0.04696269348010264,-0.2973942069035513,-0.5021849732608402,-0.6464551193737923,-0.7430049291829709,-0.8089665814168292,-0.8571130503933467,-0.8926056468445368,-0.920448011285039,-0.9433019209394637,-0.9608492592577906,-0.9722284079504104,-0.9781824316076213,-0.9800171435212766,-0.9791302852295877,-0.9761627221470769,-0.9741505745173193,-0.9735581439341383,-0.9736841500148269,-0.9737408808134765,-0.9749218724288574,-0.9776706708095957,-0.9821428987563814,-0.986937215039919,-0.9901636275751041,-0.9920581567909371,-0.9930450016362548,-0.9920722600400589,-0.9881257610296093,-0.9813035794854131,-0.9732704775705533,-0.9663140611517133,-0.9598603077523786,-0.9514747265542631,-0.9341710393114732,-0.8975413242552814,-0.8285727907588963,-0.708310918223749,-0.5013958951973214,-0.17844250729009242,0.18808174759837293,0.4754793670078695,0.6487742975433266,0.7466104308352223,0.8053859205873313,0.8438752141045869,0.8715093206649313,0.8914833158512716,0.9089439382060407,0.927302309782715,0.9442381681202965,0.957189896364424,0.9661927206793857,0.971508323869685,0.973726483088885,0.9742422863571614,0.9748624909444615,0.976956628690958,0.9804058649431093,0.984093755963861,0.9874250484383769,0.9896742711213471,0.9911779709901752,0.9919615567112888,0.9915539514567054,0.9908586025446323,0.9908250268822975,0.99064557930945,0.9886444985365721,0.9828699820104124,0.9735548358986913,0.9626198429759157,0.9547242034298299,0.9512337607934911,0.9456121957619131,0.9297799603381838,0.8995765592210115,0.8512831447380493,0.7625529205162401,0.5742647269521259,0.1867545337914436,-0.26825427977419647,-0.5403494287574964,-0.687727168728073,-0.7887673113383515,-0.8630821533048838,-0.9136247381814602,-0.9432442474520314,-0.9601619369586792,-0.9714031031073631,-0.9775213147174928,-0.9779688177936533,-0.9727646719698487,-0.9680408110722758,-0.9698209671240977,-0.9753392403593202,-0.9775405516168787,-0.9775167279536153,-0.9802248971932004,-0.9852335806417166,-0.9905396210087276,-0.9941893676780048,-0.9957334760925661,-0.9959431590467653,-0.9956027652799923,-0.9950101973958144,-0.9932316578840433,-0.9900921245118919,-0.9864519460895727,-0.9827547178547184,-0.9811059595433904,-0.9824545749339286,-0.9861118963262694,-0.987362056207356,-0.9793458496396154,-0.9569443489050562,-0.9232531546470061,-0.8791385523023346,-0.7979352458583646,-0.5973736271048417,-0.18199170321753932,0.2734708858400698,0.5848091289535187,0.7631380580373927,0.8595960473259839,0.9112376265020203,0.9347487747666916,0.9407800089124564,0.9428448350978155,0.9495480200087562,0.9613524098438998,0.9735697461042881,0.9818956513552838,0.9852677462247778,0.98569490479973,0.9847317296461742,0.9835129990912137,0.9829485418225535,0.984093431667144,0.9868972481006822,0.990416726582973,0.9930906431828014,0.993915653047664,0.9930953428765429,0.9919344893470373,0.9917551037129411,0.9927517743350347,0.9934994829438859,0.9931464913579129,0.9925223121901586,0.9917901036463946,0.9902863516177084,0.985676492259557,0.973245946649693,0.94862548365681,0.9124518701929402,0.861512500987569,0.7771219801128298,0.6301621320329105,0.39363331115141825,0.10395492573752012,-0.1962220250490665,-0.4637446276213391,-0.6790141988745784,-0.8225151671118335,-0.8990892777637155,-0.9383716798970481,-0.9595194682465492,-0.9707027828142658,-0.976699577126395,-0.9804592723342074,-0.9824297151162119,-0.9833840157774728,-0.9838667850898795,-0.9842881154279225,-0.9852935331566224,-0.9871281636393038,-0.9895005856539807,-0.9914019096549272,-0.9924876895565873,-0.9931335301873807,-0.9938875232172871,-0.9941012777078062,-0.9933738148589567,-0.9918903666117477,-0.9902051919558075,-0.9885223196551369,-0.9876685008229222,-0.9868132956474628,-0.9811147406362376,-0.9697355864010505,-0.9596330664539572,-0.9543212861543251,-0.9516261068780824,-0.9445394446064123,-0.9254075744189572,-0.890657912956256,-0.8283808428542299,-0.6893155978471829,-0.33751703351228873,0.2706606287015101,0.6321105347421279,0.7477189908631858,0.7900967280037844,0.8167097673419437,0.8416160522917728,0.8649223195905835,0.8803406529954191,0.8870600698057011,0.8912042717390627,0.8996938365134743,0.9169621634232001,0.9379397527799423,0.9551695798967708,0.964865453858301,0.9684880069113985,0.9691463890419525,0.9707902100660085,0.9748202446763278,0.9800659350632435,0.9850114628465858,0.9886525037966762,0.991063210906279,0.9929192973957732,0.9949184286843418,0.993530381439911,0.9776511357906115,0.9370269114433644,0.877696935425297,0.8208851716807861,0.7889455047616165,0.7945369988810073,0.8310418285556593,0.8774189264816395,0.9131904080803543,0.9220496926439661,0.8825366950414673,0.7786245135847351,0.6258527469961339,0.45139909108741283,0.22117648478385607,-0.18049383083904935,-0.5645381040851047,-0.751005624470167,-0.8236542108691571,-0.849300868633635,-0.8574058758263198,-0.8598440983259636,-0.8664618183357006,-0.8844479032662644,-0.9102495352710192,-0.9356629481115512,-0.9525266646080873,-0.959715264106611,-0.9616643148237931,-0.9664014517306512,-0.9749361671533059,-0.9801342929152028,-0.9757709889550215,-0.9654196732630385,-0.9581208557756825,-0.9583396181413705,-0.964345858652713,-0.9716195484252873,-0.9775614471368291,-0.9803345779863069,-0.9786426841077174,-0.971518891993912,-0.9628635425500387,-0.9624184429436974,-0.9730649665129224,-0.973360560200858,-0.9363589985573447,-0.881180246798234,-0.8532206562702873,-0.8687547951575413,-0.8916191668843358,-0.8046162229118612,-0.5121454000889818,-0.17839308602882784,0.08881578659270224,0.30895079232978795,0.49199085516628666,0.6376094925325249,0.7523364090295211,0.8377825804863643,0.8957725260278772,0.9320624960167511,0.9525941650042141,0.9643652149779198,0.9704640162077751,0.9725123913830084,0.970878975473846,0.9675323080473287,0.9640306025902219,0.9635238024374969,0.9676185520345917,0.9741923270513829,0.9802236673512877,0.9845530374014887,0.9869935153573696,0.9888662887837902,0.991120145926694,0.9925899928619151,0.9905375642323592,0.9845214561847175,0.9788970366063423,0.977644731526229,0.9802950289468831,0.9829662331254185,0.9833284371258486,0.9820088508997907,0.9781193543365012,0.9677765049875133,0.9468783075894712,0.906418134620582,0.8254773117679818,0.6643498262780158,0.41420356646992995,0.16235410461148636,-0.03879864350457828,-0.24458134569693932,-0.47650314330780635,-0.670369556828693,-0.7881762432604612,-0.8574719741995208,-0.9008559550458303,-0.9271936722467553,-0.9398191444782211,-0.9456955039981487,-0.9496740143539045,-0.9543245893526601,-0.961354501785413,-0.9714363121901224,-0.9812075717831866,-0.9879151544241989,-0.9912524488181487,-0.9930037553756619,-0.993758685949857,-0.9937303639372578,-0.9927493975871505,-0.9919745975481252,-0.9923260324408348,-0.9939535766476038,-0.9957156848444075,-0.9955587774133411,-0.9927703032374158,-0.9889779892790388,-0.9860295479694209,-0.9839538804169647,-0.983589445041708,-0.9857870695564495,-0.9888577635704533,-0.9874635405155128,-0.9761802333183618,-0.9527583056458212,-0.9148799049907076,-0.8225867571896814,-0.4795469821060537,-0.004202936030216072,0.18729314239945263,0.3135475801998892,0.4823112963639039,0.6569872642730046,0.7842835642012801,0.8589522727040738,0.901809278495103,0.9249273648464815,0.9331275635026138,0.9321753502379371,0.9336780133895659,0.9438765966904313,0.9578864330041087,0.969306783911927,0.9762207911436636,0.9798798345812205,0.9816049462263559,0.981318495096943,0.9805780307589649,0.9809214748540884,0.9828076561132304,0.9854578616958188,0.9884803960753797,0.9907879014823922,0.9915566475285034,0.99071740181026,0.9892086542654166,0.9873823438482835,0.9853758415285561,0.9842291421099253,0.9855029723997831,0.9869324415241353,0.9856133424084457,0.9797558332567122,0.9714567131944163,0.9634280489751218,0.9486357079518358,0.9016511011146663,0.7866126801948093,0.5703547692343113,0.2215144232159936,-0.22817136661733528,-0.5715638395845312,-0.7564112671957408,-0.8459436939374316,-0.8921324862611969,-0.9197768054466784,-0.9386363021511934,-0.9515676177457014,-0.9603641370179055,-0.9663651602140513,-0.9696629258682024,-0.9707476337112407,-0.9708626898610458,-0.9710216711887492,-0.9724272227318539,-0.9757058025311433,-0.9800872467567316,-0.9834834600301503,-0.983775820723427,-0.9805478562348318,-0.9760830691368957,-0.9735644463408722,-0.9744071040659247,-0.9772046825898445,-0.9800852230361954,-0.9819668322830815,-0.9803964969782274,-0.9758311170520921,-0.9736657042340577,-0.9787263869458599,-0.9852256457284663,-0.9834968476738989,-0.9706478387090641,-0.9494697144462435,-0.9163473923412747,-0.8569774822569863,-0.7418043164046249,-0.5162093378802514,-0.09625828569159256,0.40620784584714104,0.7014858287930349,0.8118008482117981,0.8534040446844385,0.8782704665669608,0.8957267406084252,0.9110927693758405,0.924633043844804,0.9327134264754314,0.9332817323237683,0.9297336417698968,0.9292516066229025,0.9324684227999455,0.9357504790068335,0.9362608531858625,0.9338694011072864,0.9302676540828333,0.9291914446241795,0.9335441308273189,0.945580829629681,0.9615590509714813,0.974347483803285,0.9754609903796281,0.958301968165141,0.9241779101996874,0.8771194470620427,0.818236718721013,0.7487085409955296,0.6747152664961428,0.6165607620756501,0.5921145064862771,0.607470795516317,0.6613296908242297,0.7444076453951752,0.8360906898703071,0.9018308386442984,0.9163470802536101,0.8385875474506843,0.5478473591807983,0.09960928768430923,-0.23237855175673316,-0.4700539599015463,-0.6537008306976788,-0.7667441092111716,-0.8376385389462722,-0.8879817551351747,-0.9255956199837507,-0.9508131573550805,-0.9655713667479645,-0.9724392571467517,-0.9730954966536256,-0.9682177694306083,-0.9625559839904376,-0.9595646570450971,-0.961249980183517,-0.9661686207198932,-0.9712852995677981,-0.974889398636039,-0.9769506328155217,-0.9781772889474658,-0.9795537727637769,-0.9814001310264597,-0.9831542936879162,-0.98371641318254,-0.9804928865672757,-0.9745635157863282,-0.9727326903759604,-0.9753081234480795,-0.9731053006859554,-0.9593899663522941,-0.9466538664364993,-0.9473381635962687,-0.9530978099333084,-0.9442666310968453,-0.9105555122849838,-0.8365284345836556,-0.6766650664090192,-0.4282376519706811,-0.1763167495095244,0.03546173930156021,0.24539097410896482,0.5086465790769893,0.8201180873239945,0.9729840976103327,0.9095567416830297,0.8199637856148678,0.7859192001640855,0.8081331236830058,0.8556827170974968,0.8986777695433403,0.9239113442809899,0.9354852179063938,0.9407353577631522,0.9440950910188761,0.9477297234604825,0.9532584189919272,0.9595239452108639,0.9653498909645809,0.9705309648258644,0.9748717648740407,0.9785287823603788,0.9819825170471568,0.9855873908938928,0.9891801081168067,0.9924709585472727,0.9945456501600939,0.9952987127743343,0.9939063493028027,0.9906326636190356,0.9862624178255992,0.980878702226289,0.9709854649408921,0.9512217611189057,0.9192690421150141,0.8746527014158918,0.8007657376822427,0.6695615536758249,0.4609070692418769,0.2183227837442011,0.03408330542946978,-0.07719456017819308,-0.16819998884765572,-0.2990003909187613,-0.48427792278063847,-0.6553464968235709,-0.7686715728069824,-0.8377316224360082,-0.8801773037883244,-0.9102474722846001,-0.9346269220859272,-0.9540473641163976,-0.9670180429977657,-0.97435018691319,-0.9761172801470196,-0.9746598118505481,-0.9733448481509155,-0.974440446077557,-0.9778898066129769,-0.9826492073292112,-0.9871589536163684,-0.9902960473926873,-0.9921990841578403,-0.9934988076067233,-0.9946194166707506,-0.9959147183669264,-0.9967537208142618,-0.9954882552764532,-0.9917388250682845,-0.9870358420143612,-0.9832245018579739,-0.9813892509897526,-0.981608065443155,-0.9814998063806828,-0.9789846518311732,-0.9718146549281521,-0.9533842115965114,-0.910670866734292,-0.8196158709555188,-0.6711577639521437,-0.48274739081046397,-0.2485123047239594,0.04481318717270743,0.3513615167281761,0.5749622161924174,0.7069891376479023,0.7843678698775104,0.8316345577241356,0.8593029728018007,0.8774491708704745,0.8942597045469654,0.910678535856317,0.9251751143447258,0.9373541796396009,0.9477413661191324,0.955541094248914,0.9608688753000502,0.9638450645011496,0.965468524810175,0.9659411436174935,0.9674191044838417,0.9715436075989617,0.9777867890740592,0.9847682715379692,0.989609201766095,0.9889310415651344,0.9811169674017025,0.9684468782437871,0.954937243594179,0.9423722617408977,0.9318925587029127,0.9250053929828302,0.9235840949670343,0.9253495266465233,0.9238272949213451,0.9116036537851175,0.8838593764084887,0.8394267318390437,0.7634608167001924,0.6059201099347874,0.27388413876373213,-0.1964415903283892,-0.5374133046708038,-0.7162418952202688,-0.8058717686074047,-0.8542620597101467,-0.8825850580491011,-0.9021688381272067,-0.9167705971527841,-0.9278938167745089,-0.936000451476982,-0.9412830709739471,-0.9449295453722261,-0.9487074818454003,-0.9538317037345956,-0.9587406542684258,-0.9625592746425943,-0.9651124383704363,-0.9686249151185989,-0.9745449241473807,-0.9821910718073924,-0.9881062953767711,-0.9891966653473899,-0.9856680435407382,-0.9803755703597997,-0.9770521194362926,-0.9776336973941537,-0.9793021163231405,-0.9779674138582548,-0.972814456551408,-0.9668452617782689,-0.9610984047481897,-0.953323904658712,-0.9401720349060632,-0.9190889814577734,-0.8878100408376507,-0.8452915303488682,-0.7845620206593803,-0.689219521414467,-0.5545819048849837,-0.37237500560165643,-0.12739717552673382,0.18724530833525296,0.4866073721465577,0.6908697193274222,0.8056526152626534,0.8691271071279744,0.9051855315984939,0.9247284541501454,0.935038987784043,0.9431518693795691,0.9524453063114551,0.9623334665384603,0.9712304237950075,0.978830226407961,0.9852048939822214,0.9880451151814124,0.9848018028996931,0.9767448333035266,0.9690912659166198,0.9676005423665672,0.9734252555838466,0.9827040671341971,0.9893832886733922,0.9909306690844083,0.9893353629725307,0.9882645664069256,0.9884538231083292,0.9866453617677942,0.9787683352280335,0.9631383141907166,0.9425920084594054,0.9256673706943201,0.9200487574307549,0.9227943941735831,0.9254568522632225,0.9178162769843452,0.8829521866995036,0.7700643372465243,0.5140138799811432,0.19338412254039236,-0.06919991743387462,-0.2710948310789564,-0.4546473889301481,-0.636106492085169,-0.7809967975200878,-0.8557348115766306,-0.8832086916865503,-0.8940784122366494,-0.9002582332765001,-0.9043705374390908,-0.9113020345810262,-0.9218305200362313,-0.9342929521107688,-0.9450014989322765,-0.954066960451219,-0.9601409525939855,-0.9644407664867384,-0.9699352624512723,-0.9762549261356145,-0.9828184652579223,-0.98995892126023,-0.9962410341105116,-0.9965780892788502,-0.9858017295631089,-0.9666436922799817,-0.9486066991915414,-0.9407960389371428,-0.9487408113944881,-0.9685866276842834,-0.981509741480437,-0.9743730282563894,-0.9535534464850985,-0.9279891777638087,-0.9019187953771615,-0.8748088026900204,-0.837163574326074,-0.7689467778135037,-0.6402922672721509,-0.4180528152995318,-0.11030926400934138,0.1776121755619216,0.3959629432402498,0.5611427441226666,0.6913627494699323,0.7908198566966957,0.858381031257441,0.8986973568172544,0.9206026539161666,0.9327177970436191,0.9406787444033716,0.9476203347085563,0.9539732385612425,0.9597484051417497,0.9627764084100829,0.9628298800263062,0.9612941522830228,0.96147427463224,0.9644446693417847,0.9694947108546599,0.9755596793670054,0.9814392615621327,0.9859509340621649,0.9885147195168421,0.9894062631292179,0.9892430727732155,0.9884800511812316,0.9878504085309034,0.9878870019657098,0.9884124599704291,0.9894715565978616,0.9917681344695114,0.9920269681078991,0.9880489408865849,0.9816345486726814,0.9751641234624524,0.9685358970962887,0.952034029389769,0.8953233590138979,0.7376137519872202,0.44954694222326824,0.09775129940757597,-0.24266751565313346,-0.5156330255678465,-0.6838556700975387,-0.7816981511930366,-0.8435064247546847,-0.8816270842808439,-0.9045107775788744,-0.9192820821200808,-0.9329589542891289,-0.9469924020854444,-0.9595440117065206,-0.9685015932135915,-0.9720635876146102,-0.9703391530067833,-0.9654324318866844,-0.9608030508645653,-0.959027809309454,-0.9615284572221027,-0.9687765779678562,-0.9789416648650687,-0.9888222863237337,-0.9949190811057879,-0.9971806000840413,-0.997273697067555,-0.9965817474705305,-0.99499506539401,-0.9924760630156413,-0.9896630579110633,-0.9873366284437969,-0.9852209580943287,-0.9832285885333262,-0.9808633518241828,-0.9737282530167879,-0.9576555656139938,-0.9397079450108,-0.9158617308292426,-0.8625337562399485,-0.729057390459965,-0.41649555639937086,0.0495849677438233,0.40374430128119193,0.5941372548553011,0.7065959885453511,0.7855242453845375,0.8394359196211646,0.8718699399942592,0.8942456332314698,0.9140620595821947,0.9329009550296585,0.94866338233777,0.9608246327528747,0.9691923369444799,0.9750606444070006,0.9787970796990816,0.9810738010863844,0.9827823565655871,0.9842545824182211,0.9860399576711131,0.9880756080489794,0.9900501524092321,0.9915514104028871,0.992430722321778,0.9922077460187239,0.9901985929057903,0.9876435920792438,0.9861369347316954,0.9855123484205476,0.9846990213814776,0.982475207361171,0.9804754816991516,0.9800947564060515,0.979562580652215,0.9781637971056709,0.9759156457404694,0.9723243608730472,0.9571273515302308,0.8851680144164102,0.6676303817109452,0.336105262301314,0.01675922870855265,-0.30241993396787364,-0.5757293589204482,-0.7209021336157264,-0.7888442796976474,-0.8280707670239988,-0.8608346254905981,-0.8909832429770378,-0.9170544568717834,-0.9385344064069314,-0.9548420825522985,-0.9675836935013662,-0.9771678483054738,-0.9828940178986696,-0.9858463963179271,-0.9875063794270272,-0.9888533895575126,-0.9902392450392272,-0.9918423304022579,-0.9933940681223106,-0.9943860114746484,-0.9942665736628171,-0.9933393667865956,-0.9928215877405843,-0.992900454505347,-0.992875383143266,-0.9925049868057622,-0.9920302365580932,-0.990866491234943,-0.9882741076004777,-0.9832292863078181,-0.9762683793197751,-0.9693720891046672,-0.9643874018876589,-0.9555525942077044,-0.930157081135664,-0.8816811028869733,-0.814800460100424,-0.7062058897262004,-0.46423476074242453,0.004485573157990657,0.4327213613970996,0.6532400025588655,0.7714611751362634,0.8462609783825277,0.8967635739993882,0.9310021561821256,0.9554667363150431,0.9709993966704209,0.9798887409721233,0.9840123660804135,0.98458290936606,0.9837932586091136,0.9834945147707962,0.9834225977674512,0.9816260652505137,0.9779068949713693,0.9738086220551351,0.9698897228425191,0.9663972495072584,0.9640090984803963,0.9645056374768146,0.9693747324056029,0.9784188689997513,0.9883446161268871,0.9952150042596177,0.9970299315890101,0.9942937019085196,0.9886220658150101,0.982021376434603,0.9744920999604991,0.9650879664106883,0.9515901845945459,0.9323502979196049,0.90607312269807,0.8689905831401541,0.8213470225641369,0.7570627859980945,0.6383455332002855,0.4320105291071723,0.2009936591532518,0.02289797111696488,-0.11048955443667223,-0.2468754570709661,-0.3964356429273521,-0.5401611083127732,-0.6637048437468747,-0.7733755970107569,-0.8667740619806447,-0.9315153451474588,-0.9572553991561189,-0.9557752953731311,-0.9468505548138779,-0.9457822888588191,-0.9544971974174432,-0.9667168752333657,-0.9765268950347229,-0.982193708008944,-0.9849919276971678,-0.9864677140699967,-0.9873228798323972,-0.987565674624592,-0.9881081658743958,-0.9894962258901153,-0.992256530501575,-0.9953651320126501,-0.9961366844891053,-0.9930717705861812,-0.9864474707463327,-0.9800683566958963,-0.9769960073122019,-0.9730705162092366,-0.9631176404284446,-0.9503786716651693,-0.9423421502338,-0.9383357516198977,-0.9207556226195741,-0.85291563655848,-0.6592717729915598,-0.30845017614978615,0.07239779083245497,0.3681844735553417,0.5664504122063245,0.6987697437173196,0.7951024997189338,0.8650721918160316,0.9125500976914963,0.9420394729010503,0.9580398476566387,0.9655435596221517,0.9665247130778555,0.9639190254441791,0.9605702023217456,0.958385657869838,0.9572314209541807,0.9571083667892257,0.9578952795098202,0.9613362825803828,0.9664500540043954,0.9721264530292896,0.9776395524587439,0.9825820673489496,0.9863486455363977,0.9883991965709942,0.988786155591321,0.9890223964626164,0.9896555054558003,0.9905506580567112,0.9919720509728547,0.9928211256302177,0.9907233617935629,0.9859320390448113,0.9777708289512129,0.9629191425530212,0.9356290619611152,0.8922439280327545,0.8219466505178252,0.709037515393728,0.5194220673386873,0.2743082533529297,0.035876628052606184,-0.18621011699844836,-0.39346018102013114,-0.5658112549859775,-0.6960895386509346,-0.7944320198335587,-0.8675625675316572,-0.9209012638519724,-0.9540105331667047,-0.9703457086024615,-0.9747584604152444,-0.9687024547641194,-0.9572977065742186,-0.951274287864612,-0.9561699919788869,-0.9668346380552802,-0.9765343160370145,-0.9833402692041677,-0.9878680514837932,-0.9910330642867314,-0.99389746202494,-0.9958763366820321,-0.9963605229746493,-0.9954615793559735,-0.9932198782862208,-0.9889923001055372,-0.9840419544642737,-0.9803907074124788,-0.979215794339164,-0.9800470099368136,-0.9827557953579623,-0.9835656745134772,-0.9763303433221613,-0.9533240741361847,-0.9056694312599942,-0.8312390890390597,-0.74626490803656,-0.6830081831224804,-0.6643970323962846,-0.6178874191797176,-0.24087806922493163,0.13474353519721985,0.38381798067688394,0.5736542255803991,0.7169822701651649,0.8180701379838524,0.8842125936659574,0.9198285379525826,0.9356947284191521,0.9430933926631028,0.9476411964665691,0.95037125974857,0.9506682015405774,0.9483492666253108,0.9491242599656315,0.95898689367962,0.975527372523474,0.9908480426333011,0.9968439592895194,0.9904941413502384,0.9753208690896876,0.957766760869994,0.9447231116626414,0.9433902237972623,0.9558052267818655,0.9744355145106663,0.9850926463443475,0.984433259562082,0.972849066788711,0.9434745505631716,0.8965701894572986,0.8505579838599672,0.8245187788914093,0.8214099278264466,0.82493315542991,0.8034475693326795,0.7375898864884473,0.6409112635199545,0.5415412407513482,0.4345860861455498,0.25594255391825527,-0.10085621096867538,-0.5558906289372141,-0.807034996311357,-0.8740467073439715,-0.8735177577374643,-0.8636566980015185,-0.8699148380571682,-0.8926072248006492,-0.9186687147589084,-0.9398788237619983,-0.955297540840741,-0.9677246377007239,-0.9763462766869179,-0.9811932109641188,-0.9839052579206623,-0.9859910289194389,-0.9872824245541368,-0.9880071726110565,-0.9874486704288198,-0.9847822417755981,-0.980678006488422,-0.9767321229043072,-0.9736729494990704,-0.9716343379428687,-0.9691772356703869,-0.9663487377644825,-0.9629839414380691,-0.9595722604986664,-0.9567325829305218,-0.9510409769824391,-0.9407332441125063,-0.9268443037378259,-0.9128741883758662,-0.8933621097929696,-0.8676494847910692,-0.8416735976017519,-0.8150045121203109,-0.7745237600757424,-0.6481925367804908,-0.26217648175099334,0.1307993330149462,0.3248961575167549,0.4563144730210207,0.5904718686003727,0.7235896506019275,0.8254200328857321,0.8880228095864573,0.919550407943481,0.9326415219929164,0.9401318463691158,0.9469919314333338,0.953591843550573,0.9567949941506179,0.9556864015870727,0.9508073269335202,0.9465548403120316,0.9478434450101504,0.9525484723083165,0.9582660640594988,0.9652178575041259,0.9748271614440042,0.9841452054166016,0.9874131780008051,0.9833881889660923,0.9774241432302873,0.9728889972179912,0.9694566455931156,0.9660584477827227,0.9626967406911441,0.9568845192352793,0.9455083006934033,0.9305638919142787,0.9191053397527068,0.9122889406869834,0.9046060610363391,0.8781780796469473,0.8157931562694547,0.7127931002059069,0.5578006230147846,0.30619777858313957,-0.034135936275771626,-0.35733534153787755,-0.6054882485132839,-0.7714098219628276,-0.8655430385860328,-0.9110871650535471,-0.9302111623715222,-0.9375362024184271,-0.9414982002973911,-0.9459615885907628,-0.9519920657415496,-0.9581369610861042,-0.9621802087379118,-0.9650273809352866,-0.9665839831986694,-0.967856772042854,-0.9702473358752083,-0.9741448703772907,-0.9785960286457834,-0.9824630975734125,-0.9850930281581173,-0.9865221245699887,-0.9868827488548326,-0.9864066463600185,-0.9860667617288926,-0.9848350984994473,-0.9821813202201521,-0.9809714739158766,-0.9831218840055753,-0.9871939221712942,-0.9901050128643869,-0.9876862561244202,-0.979910038878041,-0.9655597334332877,-0.9386286144763082,-0.8812005586742317,-0.7534198848809123,-0.5155948785108992,-0.21805294618096557,0.04916398652743656,0.2856878237430213,0.4892588463388407,0.6297691332251218,0.7236928031099595,0.7996836377600899,0.8724171553995892,0.9302063845634452,0.9624489951940284,0.9738564877990356,0.9774236547954976,0.9814977706664275,0.9853350246958861,0.9874547275968824,0.9878347483319643,0.9865372643622167,0.983749268482183,0.9817017511507786,0.9820383900925768,0.9834302892749165,0.984041440186762,0.9824137110663003,0.978456822302195,0.9717063926003332,0.9624332197403548,0.9533794202446382,0.9480739685181389,0.9487069800448408,0.9546273424820926,0.9632509514435033,0.9697621149554476,0.9711077924857352,0.9662823653576906,0.9556803417092167,0.9395780777277278,0.9180764970065978,0.8839097194913915,0.8178971555934827,0.6862330809647255,0.43775716873067644,0.07793552624493488,-0.22708590252937158,-0.41014103262120377,-0.5232334970646877,-0.6191850073246739,-0.7205678016568134,-0.8212893527097185,-0.8888712860559711,-0.910698033628246,-0.9142922459487011,-0.9216622547539786,-0.9349082838870494,-0.9518577732894041,-0.9672599956485964,-0.9768620737105125,-0.9812160310725981,-0.9831467565688236,-0.98475106721113,-0.986660143198203,-0.9889631506308412,-0.9907130924889437,-0.9909303460187714,-0.9905838369991987,-0.9909910810628616,-0.9922628931593439,-0.9931621512047172,-0.9938877164650444,-0.9949501314491508,-0.9943481377108441,-0.9912502274916284,-0.9871805195374496,-0.9836563219072038,-0.9801012184536866,-0.9749945055656871,-0.9648413230750524,-0.940970284063244,-0.8885232595700655,-0.7891553142117321,-0.616198394438084,-0.3274892790385096,0.07641071867428013,0.42912524897781873,0.6183315891020743,0.7186072935788822,0.7880032524202405,0.8386450572914337,0.8717561492576799,0.8967024073264649,0.916888813061761,0.9342092854332394,0.9487937114604011,0.9605520161483223,0.9689984902165832,0.9740229630046495,0.9756311679364628,0.9752828970692017,0.9746817298014597,0.9755762734830834,0.9785097453816586,0.9829661675147076,0.987659469572163,0.9915853522401142,0.9941381414169048,0.995235171090095,0.9953080695838223,0.9950464729835848,0.9952932625441347,0.9956963962247233,0.9953185086946637,0.993819344116599,0.992208334093649,0.9911599744220919,0.9906956849979138,0.9891852401450956,0.9838727781226627,0.9744672467095636,0.9587177935661717,0.9289147356357345,0.8643139131760308,0.7141629151359817,0.38886954997683265,-0.03710772767634189,-0.37393321540691354,-0.5916775334221976,-0.7237418780673277,-0.8025093938380714,-0.8544068661155569,-0.8934060147724041,-0.9248683982747234,-0.9501514032300734,-0.9677240990012628,-0.9777167946764733,-0.9805103156697926,-0.9730237814463879,-0.95280765319894,-0.9279441342239871,-0.9154882032763512,-0.9240873228801457,-0.9470268029131367,-0.9692021772882812,-0.9820040050307599,-0.9875549485848883,-0.9910559210576299,-0.9940427257683997,-0.996566551375227,-0.9983419518319472,-0.9988443175247431,-0.997687964987374,-0.9952788684882973,-0.9920741330617031,-0.987033463737725,-0.9773733054048349,-0.9564246118485853,-0.9169658301939688,-0.8622285478873961,-0.7926941432987287,-0.6877207732763878,-0.48957667948982153,-0.1954621889050713,0.08421872902026008,0.2785927383964407,0.40486764410759774,0.49290987493082494,0.5740719627911361,0.6559623413716382,0.7340026490904805,0.8012751934709469,0.8535213114107068,0.8918913121307872,0.9186215121752438,0.9374327061155636,0.9519575064115664,0.9625849354416273,0.9700013991482275,0.9764834405215979,0.9817098013781853,0.984233810189725,0.9849938561646334,0.9865652178318818,0.9895584210476603,0.9923433540534137,0.9946092029975963,0.9959004875312365,0.9963013668786487,0.9965855937384556,0.9968199862993664,0.9959922691341629,0.9928824904306786,0.987179032007926,0.9802861712775803,0.9760581070571573,0.9755359432134613,0.9765330087129019,0.9744427538538228,0.9661776760507589,0.9449597361449737,0.9014614247020291,0.8230984202638154,0.7152542235919681,0.5667602062742797,0.27222638984337955,-0.229434427803783,-0.6181495729265727,-0.7868000924160509,-0.8583692583250994,-0.8949930912831054,-0.9179500005968263,-0.9350467128986453,-0.9495317475904861,-0.9603126800028821,-0.9677415039499093,-0.9718459867753018,-0.9733480830718013,-0.9738144682256724,-0.973989396842771,-0.9744288061142494,-0.9755991666545772,-0.9773941152809269,-0.9793428868969979,-0.9817824790575069,-0.984425539168952,-0.9867395655636755,-0.9884248894511029,-0.989736409423371,-0.9916167132306934,-0.9936887300631818,-0.9952783995672577,-0.9960021850855508,-0.9951078216025656,-0.9933025874515107,-0.9916411821677187,-0.9907433450368882,-0.9898343010936685,-0.9871813876731356,-0.9807034814503549,-0.9677661660761004,-0.9428103195884668,-0.89724269749064,-0.8290823976884377,-0.7294453316301482,-0.5762825493019508,-0.30462171757915774,0.1453828476074913,0.594367173848275,0.8235570978262438,0.9141459213597324,0.949539246398474,0.9632403701569823,0.9694225002707918,0.9721860133998311,0.9736500165131263,0.9764880084185152,0.9813992697686781,0.9865546949521226,0.9899995790047065,0.9914747805103296,0.9910976473877461,0.9893590814364638,0.9870490421823426,0.9863963643053952,0.9877581991058754,0.9897233196816487,0.9910089251587976,0.9916301288022104,0.9906986441536101,0.9878096472573661,0.9842122293553127,0.9821807308690855,0.9839776452055895,0.9874996776449784,0.9897425897019217,0.9880042106782313,0.9835089753600326,0.9782295347288144,0.9722898017231298,0.9635294669568911,0.9467615240089418,0.9064953675702101,0.7814639635635721,0.44225648739835133,-0.09945557417143291,-0.5375791443426531,-0.7567410094286547,-0.858323059108683,-0.9032865532377031,-0.9210173509133902,-0.9272847858062263,-0.9323149824027159,-0.9405067239970387,-0.9517753437305491,-0.9626650804519228,-0.9710837670028571,-0.9754642934857687,-0.9745891088414966,-0.9673888952140477,-0.9536024505309654,-0.9357937652047379,-0.9190615214537052,-0.9068732802350958,-0.9002326966932812,-0.8996838243914986,-0.9015024640466666,-0.9007654670013402,-0.8962865897059553,-0.8888208974348389,-0.8809390137085003,-0.8803629565822975,-0.8986097373928171,-0.9389793525372336,-0.9781172029130827,-0.976201652868404,-0.9357932612580498,-0.8971236867969551,-0.8822530682900817,-0.8834673970395466,-0.8819594607294892,-0.8596765259435596,-0.7889847753992661,-0.6280548594134157,-0.40170630328751167,-0.20204588536878115,-0.027627624786193117,0.1650467366318955,0.3903209673218057,0.6139428918508036,0.7730274167744164,0.8607990479547118,0.9041256710734157,0.9229306740210346,0.9306241067552021,0.9338171400082933,0.9362033362649573,0.9412845726041241,0.9487872822257032,0.9577843937752926,0.9665283367525846,0.9723594072547584,0.975174459819493,0.9758700049016671,0.9759362679306883,0.975849418179804,0.975677491804423,0.9754718300808115,0.9749502027937851,0.9758460235764437,0.9787264773486842,0.9820631639738567,0.984110199810968,0.9833101404373931,0.9789224615132269,0.9741630923002198,0.9729431820020439,0.9713292090769841,0.9634489278261639,0.9498283495588224,0.9363801285887151,0.9172501374699493,0.880157997692614,0.8160818620625682,0.6987550796728961,0.42181148538821944,-0.07418605709913867,-0.47939865964047096,-0.681561263239931,-0.7877959593599895,-0.8519843593676388,-0.8964588693908881,-0.9272260970319317,-0.9482562480192221,-0.961380957075014,-0.9696073590532718,-0.9749175947624169,-0.9768877175413726,-0.9764113865769978,-0.9743222312378182,-0.9717905211393137,-0.9722061301962988,-0.977651349112565,-0.9848423744548301,-0.9870041677067782,-0.983819349318654,-0.9811512579940712,-0.9826488240785348,-0.987023590348183,-0.9906951185229895,-0.992211515272972,-0.9933471633899772,-0.9949163086426035,-0.9965633807678257,-0.9963461845980277,-0.9916216877204249,-0.9790226942276327,-0.9590206358608389,-0.9383091298063425,-0.9194586924828346,-0.8962154151628098,-0.8615982969258817,-0.8134028024776692,-0.753556196949902,-0.6760570105883126,-0.5339787120709361,-0.26718142041279136,0.12263618566161176,0.4874533802604806,0.7101016458986399,0.825984454603916,0.890961331181246,0.9307176356474588,0.9540085387562595,0.9655254285648266,0.9712645794059162,0.9745990516095016,0.9771628786098792,0.9786814083778995,0.9776582969627807,0.9747195923596961,0.9715451120425344,0.9688302326020761,0.9669235459799234,0.9664563946201172,0.9677717461733153,0.9695281754097785,0.9695112883630963,0.9708221714808716,0.9769087900547923,0.9846621097769874,0.9898210682748648,0.9912198144144186,0.9904947635876571,0.9900675391224614,0.9895275982574566,0.9847015103471409,0.9721417574204811,0.9542673309165234,0.9278224401183212,0.880566884146343,0.8002872400954695,0.6833351921370853,0.5426789023836402,0.37448106922804847,0.16169024949180594,-0.11855596204162683,-0.4108526176175662,-0.6422242103583247,-0.7886359747971812,-0.8713271908777002,-0.9100954565479611,-0.925741197018139,-0.9311964962937135,-0.9336845828175057,-0.9379745086893907,-0.9451873380598308,-0.9523918675670425,-0.9592816280294457,-0.9666962911582488,-0.9739007758806912,-0.9794862605618179,-0.9843114458675425,-0.9881385106202588,-0.9901090426227078,-0.9907180339743834,-0.9908817981467668,-0.9913164158263492,-0.9917459061741617,-0.9905955946569405,-0.9880001672583142,-0.9851940238389203,-0.9820862944934522,-0.9782581893548159,-0.9760832204000472,-0.9755117458742616,-0.9727854482882768,-0.9643549080523138,-0.9504776218151068,-0.927318980608721,-0.8823611336454561,-0.7937679447155801,-0.6600856207864282,-0.5141023415552902,-0.34179076406496417,-0.0707775600814582,0.1782304467859753,0.35506384027454707,0.4985891096638232,0.6286832189347572,0.7404380269523175,0.8173430485056246,0.8592289014071702,0.8825462690142278,0.8991928949769221,0.9115871421864153,0.9215243512111005,0.9299774515629448,0.9371678610415147,0.9422729405159856,0.9450576485649961,0.9460352538805684,0.9474573181974599,0.9518785540004621,0.9607647668450595,0.971483018138809,0.9788490585213164,0.980829693196671,0.9802853129086605,0.9792258000417781,0.97519637894796,0.9663174508773668,0.9546153688126219,0.9468787219613158,0.9532489448875603,0.9711346690715887,0.9752282485155077,0.9510697039712135,0.9193454630250026,0.9012664838480063,0.8963313830458193,0.8845603720641397,0.832028784182317,0.7065626544411114,0.4963126113528525,0.19711003494219512,-0.2021412798127632,-0.5412587210009261,-0.6978925424518279,-0.7603343443118108,-0.7917448146853123,-0.809547830175832,-0.819054957563925,-0.8210147000143828,-0.8201354567428659,-0.8257846762588087,-0.8432641432276355,-0.8683764386204247,-0.8936625474726492,-0.9134330395412273,-0.9264452261647876,-0.9355024247780557,-0.9432657806476757,-0.9525507596503244,-0.9648184155322297,-0.9772557642281058,-0.9866016358869374,-0.9908921020945175,-0.9915943192250319,-0.9912128945608031,-0.9907094447002202,-0.9897515420825876,-0.9880503231173371,-0.9862212451909609,-0.9841701507350491,-0.9815967025364706,-0.9772652138628447,-0.9717920601647677,-0.9631394307219279,-0.9438755021383306,-0.9104160414695134,-0.8711708444105043,-0.835476838966181,-0.7959042437718099,-0.7237864757996402,-0.5398918511669935,-0.1538368106466607,0.30442812577186323,0.6035805759587458,0.7522105199996552,0.8271746978473714,0.8629935925184639,0.8823368600386284,0.8960722682121243,0.9108015599537477,0.9277130083459824,0.9437777933603252,0.9595262523062352,0.972328580057387,0.9793629254706145,0.9815369307987736,0.9812473828059843,0.9805115653230075,0.9807418973489646,0.9833551862305843,0.9875145048984809,0.9912261445243887,0.9934105120577884,0.9940671575406966,0.994170998277258,0.9946540901998726,0.995501361216251,0.9960753998573657,0.9956166574375841,0.9938031913219098,0.9917020936226485,0.9914227197725374,0.9929852645331428,0.9938084396142876,0.9897705052207005,0.9794552472219057,0.9635509597879248,0.9386743911786358,0.8877651684204649,0.7253458853426901,0.17498335848060662,-0.47101025162123417,-0.7146154735288075,-0.8036023257992899,-0.8461920785465342,-0.8702105015071946,-0.8825892545342682,-0.8888758374135386,-0.8966639283996025,-0.9090400355868092,-0.9280150096037401,-0.9494652909978751,-0.966381690925208,-0.9750650770256938,-0.977777555034995,-0.9776275262979951,-0.9768359528877106,-0.9776613347384161,-0.9805434290252412,-0.9841987989037901,-0.9872173138983666,-0.9894535195142059,-0.9918213259390769,-0.9944710932247215,-0.9965248230542929,-0.997282028348538,-0.9966055573100732,-0.9946241113895805,-0.992154419937457,-0.9906855336063899,-0.9917938801988443,-0.9949775528889364,-0.9976048235550611,-0.9974263080685474,-0.9932563973975915,-0.9807998595235414,-0.9496024982648705,-0.8742616504269587,-0.6994602328820482,-0.3717297842412359,-0.014785348495436048,0.2618336340533181,0.45941120376846556,0.5941072182448245,0.6853855344599449,0.7453010102075402,0.7896524589508914,0.8317288114341056,0.874663563967744,0.9136004048769096,0.9425685601060833,0.9595542514544927,0.9685220393539831,0.973466737749327,0.9768830384823307,0.9800436290367609,0.9829970917092217,0.985854326069306,0.9883847773940678,0.990136490002438,0.9907374582072143,0.9911144766301354,0.9925586837639991,0.9943017134584031,0.9949247777143643,0.993507136406073,0.9913490594720614,0.990003641462996,0.9902521214647739,0.9906311706596027,0.9892360352602246,0.9854141877133723,0.9807270124432033,0.9756172681065374,0.9704777780960874,0.9613118828434459,0.9437318054409831,0.9151057167547246,0.8710807722221755,0.8010595493534891,0.6516759866208708,0.34795598776652603,-0.11894612831341261,-0.5439026667705307,-0.7645997735736073,-0.872123695082504,-0.9262765513667139,-0.9530785732228673,-0.965153423732791,-0.9706094930659996,-0.9734871254732682,-0.9749389867459801,-0.9759614287141919
