0.5572089248615935,0.7407001234108987,0.8472827430586014,0.8638764405084739,0.8167173174120628,0.7415522383997101,0.6847861964674894,0.6703977294373783,0.6836609249073677,0.6836137339166141,0.6316790651026511,0.4434721859435843,0.008002915762333581,-0.38835134268928384,-0.530680303040122,-0.5549096292694106,-0.5295541168739172,-0.43059668640042653,-0.17337249253920392,0.2452899801736624,0.5651368207219337,0.7067567819180185,0.7590191779453628,0.772956902622718,0.745035887366248,0.6391281982181178,0.4322781569619709,0.17962403329772827,-0.05139656307710971,-0.2599851461708707,-0.47716429201391136,-0.7148966112602804,-0.9138951347820674,-0.9699673495166711,-0.9318780067595734,-0.8944546336867436,-0.8797242844592124,-0.8806939946841593,-0.8894416153346707,-0.9017151389852824,-0.905817926585264,-0.8963308547612524,-0.8767612999520846,-0.8471083615816116,-0.7991116495091838,-0.719553981627781,-0.6114856594498996,-0.509253423199313,-0.4104869417845827,-0.2835425126724241,-0.09474666452627328,0.16278929076471169,0.46948262128833623,0.7357051407879186,0.8749266967641086,0.9214034400478145,0.9364564008363845,0.9434980616433271,0.9343783965243152,0.8796101480257497,0.7966441465089144,0.7614800881819239,0.8013506479306912,0.861118853554057,0.8895088376597431,0.8824659325637371,0.8440001745225744,0.7978847473728058,0.7726513829918509,0.7718637555150885,0.7821684547960248,0.8014105500570883,0.8390734056935405,0.8908132173861661,0.8819202265180089,0.37171923859913014,-0.1463719134311508,-0.32410296360695545,-0.33164317392407644,-0.06492471706156472,0.5649050837691427,0.6868628097374606,0.7030570330812498,0.7211572710940005,0.7547718828680066,0.788023619681559,0.8001655858888789,0.7318287614451016,0.42076902765131347,-0.06334023782463345,-0.39014951730668346,-0.5445237185396425,-0.5959493892258656,-0.5990205857554665,-0.611936140981277,-0.6699762095010937,-0.7493407678132895,-0.8042402154868626,-0.777753708488452,-0.6712252599230752,-0.5393861484313472,-0.42246502713164563,-0.3662039556633766,-0.41650427940071166,-0.5427073298437392,-0.6450627204825191,-0.6580122600504876,-0.5423235224529201,-0.3472827759285963,-0.19377939244133996,-0.14231265246994693,-0.20860618364791403,-0.423894536143117,-0.7249042125990935,-0.8482438724525384,-0.8169611784431571,-0.7780642495402161,-0.7607092783777754,-0.7659100451975128,-0.7841485496048608,-0.8040718653169209,-0.8220799714058299,-0.8377847981166768,-0.8468365864491448,-0.8303171974812388,-0.7637804528179937,-0.6270744215182401,-0.4764510788089802,-0.38041185777458447,-0.34780299241648593,-0.3652009967855045,-0.4239517648246807,-0.4996949278720764,-0.539457077238761,-0.4562061506134744,-0.22278894103010907,0.032501251521266865,0.1633430034306382,0.15065518623402166,0.0841013300521434,0.051080720640015176,0.1262593992188079,0.3299514552885448,0.5966342362881428,0.795971510166651,0.8672416685904668,0.8203069040211829,0.7506519610036108,0.71382062376268,0.711848447347616,0.7291175810916898,0.7550013302961409,0.7867983927753921,0.8207430612644007,0.8482419568743885,0.8630189060608701,0.8682805639551658,0.8659050836173128,0.8578622782274135,0.8452418584657928,0.8341741476625253,0.8262497070246626,0.824459849540587,0.8224966981750628,0.8098321552635068,0.7734036146463167,0.7182964672230981,0.6605623955202962,0.6096491892446861,0.5705686746004366,0.5228050229913627,0.45712452017874855,0.38773900943096473,0.3370599881282588,0.3079556805686153,0.2828300990596175,0.27221190068184514,0.30798956393745913,0.3945099212013919,0.5057732739295793,0.6032609984777071,0.6461236872501369,0.6013710182183185,0.40151029655154447,0.042105914618620566,-0.19524438564581006,-0.197626308448494,-0.12134003552593528,-0.1047547353382271,-0.1852426178386593,-0.3703301966606378,-0.6276376577600127,-0.8723177471540184,-0.9887169225645437,-0.9812541852432405,-0.9392700667763116,-0.9048705168507847,-0.8847271617352397,-0.8752119652141389,-0.8680854972282067,-0.8479581415891213,-0.8065471420222168,-0.7418393692958248,-0.6712860915321615,-0.614308579058281,-0.5662702948535382,-0.4715772771360678,-0.27899861035154877,-0.010915812061618391,0.26297208510187103,0.4973786947525419,0.6591435051018831,0.7558335869758126,0.8165253085224184,0.8630460087274151,0.9048820142321876,0.940027871390096,0.9640243198043738,0.9749820126828989,0.9496715237673049,0.8267174593899664,0.6517716653220408,0.6066199160139941,0.6989546591395022,0.8175077230820899,0.8796898801498824,0.8821006890043699,0.8370486933961444,0.7563880191659763,0.6665535704672515,0.5766917693726686,0.5098756177383824,0.4809681009828633,0.4688547500139505,0.46469930008770777,0.5559150568150601,0.7742929332740693,0.8902591109991685,0.9108235073654819,0.9149991585963414,0.9190597835331996,0.9252823159427318,0.9313749019805578,0.9324210729675771,0.9091276200896584,0.7895803050506567,0.5889653485553193,0.4908726679862213,0.45966892058278874,0.4131644886148824,0.25930328154043075,-0.20680142262607926,-0.7286321443837617,-0.8782805324591847,-0.9065848640429514,-0.9067532353578822,-0.9059389295280303,-0.9139722184918242,-0.928240328704113,-0.9266368425357479,-0.895067711610808,-0.8410236197274151,-0.778559955005376,-0.7317438423016253,-0.7233282454168908,-0.7305560293400112,-0.7052204104701366,-0.629181289325303,-0.5687952270845441,-0.5572893795020591,-0.581724817455433,-0.6422569692789439,-0.7350279077237877,-0.8312101885342363,-0.9047784474567814,-0.944747234249806,-0.9516169433444222,-0.9407292707140699,-0.9323057680176999,-0.9338817829451441,-0.9313115909355534,-0.9030639861965796,-0.84825000597457,-0.7908978765968002,-0.7489519217592657,-0.7252228558163326,-0.7036880843909304,-0.6766653797791495,-0.6470605487723852,-0.6053119756960204,-0.541145747161935,-0.4533267516407437,-0.32735947411797206,-0.1263217142159858,0.21835984512933407,0.5915881392865964,0.7647381436314281,0.8302630996345909,0.8657317624412652,0.8949864947518248,0.9219550416059206,0.9345293262634182,0.922549331616116,0.9016988687521322,0.8787758519962091,0.8467524924643454,0.8032603351670777,0.7553461084306299,0.7185422530754475,0.7114358363869077,0.7350617731826019,0.7824411702970965,0.848165244468284,0.9002174445322233,0.8672670555043047,0.7305979009689302,0.5760432893944241,0.5000111187565317,0.5693374445677485,0.7694480457539021,0.9192132387160113,0.9540964354963126,0.9551377251345002,0.9536790475423101,0.9540934772065314,0.9539956694465033,0.9472187456551153,0.9226470951591311,0.856721333917813,0.7647139213666495,0.6850623409502629,0.623744222033898,0.5749139966203857,0.5230096517979889,0.4480951209607687,0.29954666611282443,-0.005699090358887486,-0.38353387447919257,-0.5345002476120654,-0.5140438161358699,-0.45872160574895304,-0.40925470503662403,-0.3731712566509113,-0.3386696636820278,-0.26751671705456626,-0.1571309940583845,-0.07351776807791016,-0.06937239375160283,-0.1399468086189763,-0.28312842137592936,-0.47857145892609293,-0.6759934412105721,-0.8383982797983577,-0.9164040995910856,-0.8946175605765443,-0.8314298062110808,-0.783326847495472,-0.7697464148684008,-0.7751659785165552,-0.7766678097599209,-0.76017489115476,-0.733948565062642,-0.7149562405286078,-0.7190217358721434,-0.748308814953628,-0.7882567752214549,-0.8166411161009699,-0.8234167858422913,-0.807053254605733,-0.7668471400488936,-0.686898848583287,-0.57408842179169,-0.47804642726739655,-0.43153398094451934,-0.40081193527585224,-0.3392619855588978,-0.2546105473251439,-0.14591475929455822,-0.013872417350480875,0.12393676505451329,0.2546236757330841,0.40921822224126686,0.5754937265428486,0.679176642762118,0.7168227851079504,0.7246675111763895,0.7172046095743371,0.703882026808765,0.7042300825060499,0.7362434383388583,0.7948132490092208,0.8616976093687003,0.9125854785885001,0.8879672196415239,0.7242198596057493,0.534357482081895,0.4715974648760621,0.558574059678775,0.7422666647051579,0.8902470690402833,0.9256894565438847,0.9097789693609327,0.8954720887155566,0.8987162988860036,0.9052296671066156,0.8959595810853015,0.8450074206740225,0.6852158003792695,0.5290515009955719,0.4997984820612982,0.5268922526557349,0.5447349607207244,0.5462570671150235,0.5440546621757475,0.5589286553916796,0.5702362228554168,0.5335537593813835,0.42459342802606054,0.23589030643007758,0.045921076757856935,-0.08624140444303101,-0.14261476115194474,-0.16252085979088102,-0.1894618071084151,-0.2167948342200255,-0.21732040249306464,-0.20437163205729178,-0.23717186462034415,-0.37526356776266273,-0.631465426534666,-0.8634233854481549,-0.9301016916180254,-0.9141691432685568,-0.8774247625297622,-0.8411032001781605,-0.8134083392485282,-0.7916179078882699,-0.7722476878636492,-0.7557006425255615,-0.7544664347384535,-0.7702361560153818,-0.7970509766888909,-0.8286644811779942,-0.8593647221721976,-0.8828980259641763,-0.891293180298215,-0.8822815058920482,-0.8613800394116576,-0.8339211482025678,-0.7998269479991031,-0.7464813373152752,-0.6367297080511507,-0.373664698367333,0.3602965407114225,0.9032137993076531,0.908255893791669,0.8897200078037808,0.8911013099276549,0.9075018387200617,0.9288555897905405,0.9196485184405679,0.877391190141219,0.8710249175700582,0.8801993050354647,0.8598845881582574,0.807660161219695,0.7225350874479971,0.614830552457164,0.5462315319767782,0.5689058328320754,0.6496976587668574,0.7354194693541054,0.7931732554462098,0.8042804723649164,0.7931375311262995,0.8038099352506752,0.8412972898841127,0.88862929088924,0.9323740875190254,0.9528174896160263,0.9288283862889697,0.8706237697557303,0.8101459958827869,0.768917195225616,0.7349136461820435,0.6808421745017259,0.5987360770690823,0.4554539247501381,0.2851805664029211,0.1729935463396219,0.16013541020066638,0.272095661869179,0.47880019432973653,0.5572096063167996,0.468247977689505,0.3412176631900126,0.22635814587696357,0.14393297644301456,0.09842114149084133,0.06631082534061553,0.009019867828683756,-0.11360582772785516,-0.3031315506574629,-0.48671835146593967,-0.5958769628306005,-0.629173813187528,-0.5811277414810357,-0.47774023686749745,-0.4110346090619232,-0.4390081440334967,-0.5398713878024161,-0.6680724305121999,-0.8028120120650697,-0.9088677478935935,-0.9190747685453464,-0.8768427132746275,-0.853608962002724,-0.848328499643408,-0.8410090175527476,-0.8152663606284846,-0.7710199801747765,-0.7113470949386886,-0.6430508660389139,-0.5751849002093496,-0.5194781768640933,-0.4913312535165301,-0.5036009952841588,-0.5545534836868079,-0.6072357663066846,-0.5691455469342416,-0.45961989812681764,-0.3759649502641237,-0.39266455852045523,-0.49164219670458353,-0.5694360343788413,-0.5217603055776254,-0.26014217354184554,0.22037421897489876,0.5218498337637163,0.5766829222667371,0.5154076902941314,0.44400739573026443,0.42023095012310885,0.4451839281905921,0.5210334021736938,0.6315377079619722,0.7151716613514703,0.744998062855719,0.7608317786779696,0.7780260986833212,0.7949652779467544,0.8110843504894288,0.8222781782654836,0.8140018962696308,0.7602666694779129,0.6704867247112416,0.6005355286291125,0.5848746136587113,0.6186375505245687,0.6898220023842191,0.7902492019715394,0.8844818618278736,0.924772224551154,0.9079719361206109,0.8384615756428487,0.727835449172833,0.6263566733992975,0.5889195342093694,0.6065402543352786,0.652990351424274,0.6858917994617872,0.6611201684398383,0.5796545920587018,0.4777958810206466,0.3628022176425586,0.21685041516974327,0.04417127614563148,-0.14555633979615676,-0.3330285283968214,-0.4988403665525104,-0.6046109770711751,-0.645088948219857,-0.6499358908475102,-0.6455299421119498,-0.6496947898576974,-0.6504858050957183,-0.6508966150689732,-0.6532642370882437,-0.6798373626332153,-0.7263167504936693,-0.7821842237481876,-0.8348588567962685,-0.8809527319761279,-0.8947375149638217,-0.8784276966955923,-0.8594847065584043,-0.8459072900968664,-0.8382333033238452,-0.8355046009982223,-0.8385528122640419,-0.850204631456865,-0.8720795431766863,-0.9082464289797724,-0.9513233626227208,-0.967728948341744,-0.9513534161406805,-0.9644803992377874,-0.9295176308602978,-0.7336613302395756,-0.5091681304337345,-0.292130836650209,-0.01209236219688945,0.3570562179359166,0.6867179431183354,0.8651527133930382,0.940419678246093,0.9725605508871591,0.9851444782906693,0.9891751821138023,0.9900035517759458,0.9883029915624849,0.9828796066467511,0.9716886832321441,0.9478639090854397,0.9015398714547406,0.8330915477155172,0.7680590054491067,0.7277995284313643,0.7143121115438748,0.7083133043398422,0.6775614731126233,0.5766004323905093,0.3601118040313322,0.09903262440912998,-0.07417343871604742,-0.12450242807473048,-0.026250533697401844,0.41653838300342344,0.7847264145865233,0.8302936122219194,0.8584129314508253,0.8862828512015725,0.892229240886625,0.8449304785244505,0.699669908559854,0.4827152099326889,0.3314469992234653,0.2648773409724526,0.2433051727769456,0.22548179222501188,0.15589127206681552,-0.04910036049744096,-0.35440629363221626,-0.5936800134171355,-0.7282809990913629,-0.7843374075688619,-0.7708399872753312,-0.653759777522559,-0.3660503510435417,-0.11000773824257473,-0.10653064516862129,-0.25617872952843546,-0.43127768464492827,-0.5461571508005049,-0.5624724041852897,-0.4785105431149572,-0.35159202272106116,-0.25613482453762815,-0.25919202780322165,-0.37794520611091853,-0.5832658817686174,-0.7907210937243765,-0.9158124148936434,-0.934751787996585,-0.8968241466349631,-0.8556048226698851,-0.840159439748287,-0.858601358986516,-0.8922807881069692,-0.9143477872787708,-0.9021664508699724,-0.7812714525629605,-0.18954403693357674,0.5214308490902787,0.6986823737795148,0.6724421439986737,0.4952450100519161,0.2066212217801596,-0.016758323730181466,-0.03273763854701125,0.13443656562772766,0.2525673530375016,0.19117840267837594,0.012395550586452378,-0.14695667720754155,-0.16812893066262508,-0.010697169150400705,0.24952848439469555,0.4535993058160759,0.5424754343277184,0.5582972951032631,0.5479257930559845,0.5590754750900433,0.6383414010527512,0.7707188084725732,0.822393383962059,0.7730515818140548,0.7032211836146532,0.6400269291716553,0.5954908828539006,0.5748500727365813,0.5930797851801249,0.6632354856982265,0.7646695985559682,0.7285339073461979,0.4624769443152092,0.26704246763450334,0.17444247887018569,0.14669578786555812,0.18060366625107216,0.309597071818486,0.5504261345690957,0.7873535527523101,0.891196870291563,0.9094024217900752,0.9006553973717861,0.8730010926678655,0.815771321808012,0.6969740153967711,0.5306614491273891,0.4101440840641589,0.39929288588137785,0.44089341483379657,0.47334126544443067,0.4700064586370705,0.39419722372225374,0.23324808068017458,0.08824934905712513,0.03859414770782477,0.0902961182991731,0.16297384773825846,0.17625979531664412,0.12086872054645355,-0.0026039731482438255,-0.16240291950989486,-0.2820524277293951,-0.337997200581228,-0.3610574759933988,-0.3837356772669952,-0.43405014449725404,-0.5179607033189865,-0.6228416355173528,-0.7319774781852216,-0.8204018352525428,-0.8665163516039889,-0.8746621626900121,-0.8661878762059513,-0.8547449838212355,-0.8467794409623994,-0.8357180945849823,-0.8053055494714743,-0.7586904289731785,-0.7182073570428625,-0.6975125896080416,-0.6900587137709592,-0.6850683288666801,-0.6794766405720348,-0.6710492193789375,-0.6487220517592273,-0.589134445316752,-0.4958500823908699,-0.40715081935744735,-0.3420127158304897,-0.2959979025489873,-0.251897781491936,-0.1849127529525931,-0.07566524045101597,0.07103595071720598,0.19420570897237438,0.2437766282203108,0.24553618036132308,0.2784433321180234,0.4361487108359918,0.7109509195754822,0.8890694248359595,0.9130386156316865,0.8777501159097819,0.8373684029040973,0.8120654416104939,0.8114585134403322,0.8306202525078527,0.8607679672891385,0.8952865569406063,0.9235556175824472,0.9303245142627292,0.9060042632156297,0.8594681951707059,0.8133122844718372,0.7899445495567786,0.7801715540416482,0.7681869498929499,0.7442348539056589,0.730766716839268,0.7427270999403035,0.7546690855437207,0.7496217150251601,0.7298888383178558,0.7078408740136997,0.6965584398038723,0.710429075663203,0.7467650313966204,0.7710617728080771,0.7520724413204871,0.6865621293049097,0.5693305032555345,0.4082125838813813,0.2525681770936657,0.17472884655556672,0.16164537689529493,0.16405468727352038,0.11726814959671823,-0.035277739444668756,-0.3359640727689748,-0.6782409469640747,-0.864381471201449,-0.9194118732253282,-0.9128438973621309,-0.8426039910664062,-0.7098436627568239,-0.5801562991084922,-0.5404906559669519,-0.6510260419179255,-0.8416377486234795,-0.842147575527436,-0.7841339561812938,-0.7601399205807446,-0.7630714593844206,-0.7772827444903792,-0.7924262543601878,-0.8068231581632123,-0.8061803485010938,-0.7575381661603036,-0.635174128470978,-0.508322215301165,-0.45100377219752374,-0.4488078838140209,-0.4740588777987356,-0.5112123925516587,-0.5362148413384272,-0.5269718295956027,-0.4540894105114598,-0.26474724473799033,0.1530116765501365,0.5956303452197025,0.7121508233716316,0.6425101119517355,0.46950903102166563,0.2964764616263698,0.19227935673226065,0.1988320365383265,0.31991580738730163,0.5115433840999162,0.6734659076195266,0.7623127240462064,0.8151148223606268,0.8551949058718862,0.8602948534541808,0.8292606279475541,0.7968358560470078,0.7808976653195525,0.7817151103567916,0.7983665427462913,0.8316560737243484,0.8667787604642077,0.8697389039394883,0.8326367182517443,0.8116187933472919,0.8381224581741671,0.888747279110862,0.9187123341968302,0.8788303380425987,0.7653780183649626,0.6419881282688427,0.6104699699013741,0.6472026223324162,0.6655197785407152,0.6260756150467347,0.49678181942848404,0.3163784039141361,0.1883802500459058,0.168379456314759,0.22754659376047032,0.2254514543836703,0.12182405508761497,-0.03736203737638018,-0.12014977096171638,-0.036080190396940215,0.14475014203027659,0.2337638635915759,0.2254327336121396,0.1465511891550105,-0.01808268849917623,-0.2912126778631654,-0.626858628398926,-0.8493134212696751,-0.9234304233309494,-0.9166891745328536,-0.8511168035335254,-0.7811290461601778,-0.7713182510182224,-0.8262877658468477,-0.9200680391946479,-0.9706242356543409,-0.9150483325035921,-0.8235573624792766,-0.7573498721194173,-0.7262812557653388,-0.71921882915675,-0.6763187842076791,-0.3858890077275155,0.21551756200205605,0.517655527227214,0.6079200088781992,0.6081929957249951,0.5371323598879519,0.3807395848558586,0.12018840395825332,-0.2006122559983971,-0.4651504671432555,-0.5901132514420304,-0.5922404426007573,-0.5571797664701349,-0.5476641869199471,-0.5967157506085656,-0.7059265198535221,-0.7504714135755298,-0.6483034239239656,-0.4800960738417546,-0.3039026992828857,-0.1720950314852173,-0.13592983100894457,-0.18089030579106932,-0.23140643293975918,-0.2396305767679186,-0.1701585864349533,0.044311330075407496,0.3426392075499809,0.512769303668147,0.5697827704958905,0.5931726515026915,0.612496878797446,0.6462101490898822,0.6997504439749201,0.7632975916229285,0.8271457098625125,0.8890426754688548,0.9239787630174722,0.9191782231600945,0.8465713481532029,0.72816334279336,0.6672551738071593,0.680575078242016,0.7476375759037983,0.8296598763571248,0.8758012459204906,0.8732749738049675,0.8437440426444325,0.7999466003233182,0.7354204128870031,0.6546376019653749,0.6087937845007747,0.618719590663398,0.616112975761336,0.5457766954901703,0.41384515911280406,0.29810596848035725,0.23123744984211964,0.20925207807856522,0.2076689453949233,0.18896287439539586,0.13125579198108658,-0.02100536224959365,-0.3733635389501074,-0.7411072873748985,-0.8362372421359962,-0.849464777262926,-0.8389737604654054,-0.7664490550994826,-0.547290026018798,-0.23108870072929494,-0.09264580825631871,-0.1266766360774364,-0.272994136896354,-0.5023021530391001,-0.7211707832669539,-0.8282929449627768,-0.8548593960324398,-0.8468378750878808,-0.8224266189225625,-0.788985633932162,-0.7497836027055008,-0.7112602352967249,-0.690679681735653,-0.6905644484207263,-0.6953676429372478,-0.6893258351222216,-0.6442212509434224,-0.4776199123633898,-0.1805615367399344,0.06128907615581666,0.20771571527714794,0.2633261905365188,0.17932199992628042,0.07454525864788222,0.030205042682075484,0.061584502459848575,0.1416138792235288,0.19763976952233292,0.18146317089225164,0.09707926605857259,0.0035412969029052954,-0.056734465576209515,-0.04550057304745256,0.10747723496769736,0.4957389001994103,0.8389540533289574,0.8369414342825142,0.7725886400180874,0.7233749024193654,0.7009351366619353,0.7182742100934705,0.7840656318363353,0.8742279530744648,0.8846177947134521,0.7917509082587879,0.7290121770702636,0.7340845968123315,0.7716995253412312,0.8297989750868272,0.8995723606744889,0.9137662810291466,0.8485044947814372,0.7703420478571288,0.7033011393373263,0.6227516137044616,0.51973265504532,0.4182641425778475,0.41990276818752736,0.660464964841414,0.8558166153559291,0.8962177045631858,0.8886322809788132,0.8552235470993891,0.7657353783056372,0.5023787028173679,0.0015759005176526183,-0.3147932521691069,-0.40926176846142837,-0.4189885228725519,-0.4043129010821528,-0.40131592064807475,-0.4116167530706085,-0.4078917671547276,-0.3659196412064624,-0.28448773807624983,-0.20051378143982407,-0.1666480506502736,-0.1895582301749317,-0.27161814937706086,-0.42005131961393954,-0.6189211560096335,-0.8083857012831703,-0.9289028146856847,-0.9533993347401444,-0.9150689757447317,-0.8715617905995778,-0.8424033265363134,-0.8249895641496252,-0.8123989215651074,-0.8085130440133371,-0.8163544209695307,-0.8277763533583427,-0.8264429247458953,-0.803967628858653,-0.761582986502623,-0.7085420668172284,-0.6569447546970227,-0.6131340333435915,-0.5817544205473362,-0.5601588792219916,-0.5527352161165032,-0.5665028533229043,-0.6291749332762098,-0.7130814917258618,-0.7398532364172667,-0.6616386517700444,-0.5352985106826949,-0.3875574190993902,-0.22304313041745688,-0.06555345519555003,0.04074932374982646,0.09888562063866332,0.1398098708621881,0.19688628587640855,0.32045881634681,0.5782072258086846,0.7858434964296923,0.8158193096261405,0.8060322548250896,0.7960590598414006,0.7906096509152915,0.7965046449346762,0.8182185991848059,0.8522674647819566,0.8911395986347808,0.9287211041514797,0.9601249493688016,0.9759079838312288,0.9716823614719895,0.9425479795720152,0.8985457417552309,0.8600494700707275,0.8414068038903763,0.8573809350828727,0.8978933378028575,0.927885529732837,0.918612992720928,0.8906097491542658,0.867833844406983,0.8564546247763541,0.8459546079718433,0.7963367798741118,0.6100109787648308,0.25541447225793484,-0.01554595817383474,-0.10881970792719035,-0.13807992577246833,-0.13438466434213503,-0.11695951160068463,-0.16501637370242436,-0.3326066389938319,-0.5998801681795298,-0.7014779068224016,-0.684150305542215,-0.6759410481414042,-0.7148477912772054,-0.7144244803988548,-0.5275510127976123,-0.3350289948031623,-0.21075240381363977,-0.12472777688416256,-0.07583669952052383,-0.0961073327414516,-0.25676062407940753,-0.6270225167687202,-0.8606704931399868,-0.8578682657032981,-0.7919965162573405,-0.6172256740390435,-0.2112399347010897,0.1920876488149033,0.26902543465813833,0.025169614262471354,-0.3214233079833698,-0.5469122859617921,-0.6549319943361126,-0.6950226581962068,-0.6962245475224236,-0.6728725307124227,-0.6175112415833253,-0.5248126026469582,-0.3863510801291908,-0.19447500161623707,-0.0022241752247892936,0.13094267372198046,0.21764879332876647,0.2743804114013466,0.3149363574430259,0.3387137270228341,0.35067788772730996,0.36821698401160163,0.41804370792990464,0.5360938096336881,0.7043647582941728,0.8262166543073651,0.8187379614244824,0.7582123049501763,0.7122306729791748,0.6910767694286094,0.6924770111168586,0.7146098254580056,0.7651535850999123,0.8238265555573633,0.7602905399139743,0.6249849952485743,0.5952304113977278,0.6687013758867661,0.7931689954351644,0.909303594647821,0.9615268480832961,0.949123627635534,0.9134847687943906,0.8779792355853501,0.8524004096835673,0.8329053290743319,0.8045453644411371,0.7510585942195329,0.6690699606298971,0.5906808878856403,0.5381642288635112,0.49793144956789126,0.42239601605138977,0.16009720396400465,-0.5552299673084641,-0.6735373535714946,-0.6487273028613355,-0.6489910864182137,-0.6847138250001895,-0.7486420546818635,-0.8113937912376498,-0.8503243519348326,-0.8612563814759959,-0.862740857983831,-0.8682203750229952,-0.8885802717384665,-0.9095700643546436,-0.8396210869278027,-0.6958791329213694,-0.6622100136104996,-0.7764234249751909,-0.9110034944653421,-0.9293553786511671,-0.8631886899804,-0.7701839159061198,-0.6674783812592587,-0.5710465334123709,-0.5144819079285443,-0.5476055308808561,-0.674897894459274,-0.7397529097428617,-0.6971658751375199,-0.6393423037090751,-0.6111436320639584,-0.617828150257094,-0.6536577601562151,-0.7366200214630441,-0.8423164352180394,-0.8659672673229242,-0.8282705573465468,-0.7923725592465942,-0.7741296190447085,-0.7724457325254183,-0.7678638674887962,-0.7385041414221384,-0.67007125115327,-0.547245747550169,-0.37242719497923293,-0.14729131850579127,0.09177113407750866,0.2752002265535428,0.347903124723291,0.34022665434449284,0.3239322854055105,0.3678791545588885,0.5441912161450048,0.7840112490266974,0.7752154727648692,0.7161591303977705,0.6944826319810524,0.6959673889490268,0.7075670996950782,0.7315434598483213,0.7932698800317576,0.904058628253767,0.9578295560539521,0.918662680340633,0.8954067639724341,0.8930209670821176,0.8888759661914473,0.8743759196021059,0.8563041659845192,0.8565218583474619,0.8844575646295697,0.9199090397849352,0.9239693809841019,0.8887909846462655,0.8528516028888743,0.8441432242906345,0.843219428529629,0.8272770592986878,0.7858396525257231,0.7136086492719765,0.6068937084122107,0.4590594665097421,0.29816223312262335,0.13170194148117004,-0.07056314951311012,-0.2644494589754684,-0.385206396765884,-0.43769796921272713,-0.454243066405959,-0.48312968842084225,-0.530251909237857,-0.5740733034968301,-0.6067135025651164,-0.607773305359559,-0.580838834876339,-0.5573926946800025,-0.5645857637685622,-0.6028077212302184,-0.6694823654016737,-0.7722706384347414,-0.8794992145980971,-0.8997724376534186,-0.8646581559396768,-0.8436452244767271,-0.8455228605149485,-0.8631952906228763,-0.8889470215198885,-0.9045114986067194,-0.8965845019435866,-0.8729609023935635,-0.8442003638227413,-0.8133936391401699,-0.7772513339833339,-0.7257101494893382,-0.6613040120619313,-0.6034414822154051,-0.5374505747280751,-0.4209404861759849,-0.22892503996729924,-0.012080346413912693,0.16320760178777236,0.2980656856254726,0.433112762517906,0.5877886713976215,0.7303738284823901,0.8355895417509622,0.9014747352426866,0.9352820872930107,0.9440113948269364,0.933834588054173,0.9149286722507283,0.8952710356127856,0.8732737648342411,0.8424963679201942,0.7932496598656841,0.7268472809335378,0.6526732686852192,0.580491350507853,0.5128996932881704,0.4712490565325213,0.4617993748712806,0.4504169423217467,0.4966645166656209,0.5859951372805704,0.6666419363857924,0.708692688452382,0.711882186046507,0.6831816445620172,0.6527935787799598,0.6471050179060487,0.6710196279555546,0.6852974796340853,0.670979315619676,0.6417174425723281,0.6193888901342739,0.5953102773270688,0.5428265171235319,0.39491118127207325,0.05609079924219219,-0.3607234020818624,-0.6164312039924956,-0.7447435452599536,-0.8241004015180571,-0.8578753690879392,-0.8557485149436745,-0.8477670607641159,-0.8513581913004671,-0.8574288250921962,-0.8427006564122658,-0.810335944817646,-0.7764468694687703,-0.7577814040366075,-0.7347432778688677,-0.6875703099346352,-0.6311444994271709,-0.5938900224019394,-0.6000316135269007,-0.6578204458045789,-0.7539001538096964,-0.8529864437558675,-0.9100059526671284,-0.9191125266307539,-0.9095312409910016,-0.8973951966380624,-0.8835795176445894,-0.8765401413955257,-0.874942605299574,-0.8731782482728347,-0.867815479451352,-0.8490963644078232,-0.8156794114870097,-0.7940635455678746,-0.7810714390247283,-0.7563319783682231,-0.7017622485592008,-0.588469055226151,-0.4272298707135015,-0.25709404022894183,-0.11039145621873375,0.030791865382467032,0.20809264074583064,0.41841271796228496,0.5968135933006902,0.6899101620601481,0.7288373114366887,0.720318908954096,0.6674350871217898,0.58700657296216,0.4934178507540034,0.40648245303914177,0.3343402471039919,0.27963336991844034,0.2860985935891314,0.44620271380805293,0.7091682447666798,0.8356407465360888,0.8629284847495863,0.8648385843568356,0.8553330194050471,0.8416304183145273,0.8347023779211841,0.8394354945457906,0.8529237467269875,0.866616026208087,0.8633761129957512,0.8379048828527771,0.8288007138734514,0.8491843368133843,0.8745757102283837,0.8936857267899875,0.8976892034865935,0.882855008326454,0.8523006054330386,0.7665212355383321,0.5427471557039706,0.502520171218545,0.6323531071270326,0.8088570007538796,0.8779226951112031,0.8018891994983242,0.7141326066615226,0.663929727871014,0.6279728987061894,0.5800875112753913,0.48635700867970116,0.3240384779747322,0.12169648579069767,-0.08231210891400405,-0.2653483986383525,-0.4345621497181468,-0.602002395505603,-0.7398217775572362,-0.8050797679893336,-0.7858045494806839,-0.673155113370157,-0.5075045622402845,-0.39112560128192675,-0.40430754156563153,-0.5792586330014882,-0.8528706708512978,-0.921554486690407,-0.8498549319776932,-0.7944517028663934,-0.7729387844138593,-0.7756589771646175,-0.7888674757803791,-0.8058278338751388,-0.8263324199758203,-0.8468995956458404,-0.8481944709555946,-0.8281504604052414,-0.8010483937969521,-0.7813376051047187,-0.7669532731325956,-0.7498274516394423,-0.7139645475582613,-0.6361488828885283,-0.5096779163385053,-0.37482111559209474,-0.2497678452325037,-0.09953456547297818,0.11412786167410817,0.44417925581223267,0.5848963214726701,0.4388748575284442,0.1980652595979887,-0.3043091584032548,-0.7282071426356804,-0.45654424543029504,-0.2898731335530855,-0.1800640476550371,-0.02846518131283206,0.28650132105391196,0.714335081786821,0.8383203182225588,0.8206870443356277,0.788298536016528,0.760684582685102,0.7509653148045004,0.7791677810614451,0.8531065880756669,0.93954455728713,0.9858145188041677,0.9885686084922416,0.9722772223830636,0.9474475536959915,0.9084122331517988,0.8272066257931545,0.6272850322543602,0.22472293058471884,-0.2284657945186719,-0.5342286974798122,-0.6861225629540092,-0.7161761266212823,-0.2875251688909562,0.5763959678282834,0.7148923475770828,0.725086492024448,0.6379772298960202,0.2888743331646952,-0.24001623992522153,-0.5535759139290337,-0.726422158806237,-0.813633928670879,-0.8552747026871185,-0.8673485438934071,-0.8709192056978103,-0.8795701622774855,-0.890333264325018,-0.8963978618731261,-0.8905206276467149,-0.86677597579784,-0.8317239769858791,-0.782704992044684,-0.7004598907138839,-0.5706050631873102,-0.42053562891588564,-0.31726609641201453,-0.29716556320166915,-0.35323469531387097,-0.49848613176696155,-0.7227149990626675,-0.8774149821839227,-0.8944323804054579,-0.8633479515107518,-0.8255799991581904,-0.7891307139237121,-0.7565996146597733,-0.7356066448380786,-0.7320859067999281,-0.7446551718896748,-0.7631881337345886,-0.7701231613228349,-0.7521808301076327,-0.7125573529166391,-0.6651269675923799,-0.6123815931436143,-0.5284958246862891,-0.38263863267262144,-0.12833674411799073,0.2397601110420227,0.482054947424089,0.6227141796145932,0.7561397374113074,0.8227632189606046,0.8478877005864014,0.8671159565975213,0.8738753227674158,0.867926592223819,0.8621717573426916,0.8623183464959085,0.8643728219607628,0.8656424882323038,0.8677987255455686,0.8645995107768667,0.8487536804451724,0.8243322377097773,0.804257571012359,0.800989011687272,0.8230955837424883,0.8703946413561129,0.9233817910255115,0.9506114711073046,0.9327038614754163,0.8921227605971251,0.8579828473197288,0.8356427674003685,0.8180303590423789,0.8064526245909908,0.7972134141123272,0.7886767331920417,0.7737000108658372,0.7554831070053538,0.7362196118886241,0.7207522458555783,0.7103365973282788,0.6853087462951367,0.593488813222397,0.4438244438287477,0.3219446020383363,0.2520762351032481,0.20693912905396264,0.1427888650748649,0.05198082971594269,0.004413069385403402,-0.011014796759097974,-0.044917965547376364,-0.16695223007706397,-0.3626868264647632,-0.5839662001457288,-0.7865811545435298,-0.9062221206412557,-0.9442114860742906,-0.9270698033852616,-0.8750636321273277,-0.8274583136041059,-0.8259878176197654,-0.8591340793190902,-0.8959475942269456,-0.9347194594934097,-0.9438860342160218,-0.9150829858329492,-0.8836148681128864,-0.8734687742690068,-0.8884768481075067,-0.916467371845269,-0.9118798222553344,-0.8289298643116482,-0.6900716637175535,-0.5351194753852676,-0.39017047380950215,-0.3296953070089592,-0.508130485546609,-0.730989457861352,-0.7501100229106704,-0.750200361196312,-0.7584123861495661,-0.7699376650502733,-0.7791118717931306,-0.7703320552379951,-0.7210631275163103,-0.598279601970447,-0.3706325359839628,-0.013414985522197737,0.4027476289639969,0.6825353011471105,0.8010705054776069,0.8480143971418477,0.8769691500713889,0.9047160767650452,0.9250559663292836,0.9277396746648722,0.9087088352524699,0.8746110060963586,0.8358886194016546,0.7980997346261668,0.7688248229655499,0.757714770772427,0.7819265742911525,0.8344482440696007,0.8795978514748023,0.8932642242861765,0.9062253061112158,0.9328312726364533,0.9662247735175791,0.9913313180215392,0.9898809232093818,0.9548240051648796,0.89231518644119,0.8101361470614074,0.7054887580132907,0.5538483755187643,0.29580155979279804,-0.02374634158969076,-0.07785015446707844,0.01682899837633747,0.13860886772559883,0.19539823621946126,0.16838360214243564,0.07796391619659077,-0.06380225742466523,-0.24054876201477354,-0.4313393794546005,-0.6134567823944127,-0.7507070003977752,-0.8177091369388565,-0.8082025778947426,-0.6523991891836186,-0.3532547831621558,-0.0913083214647415,0.02271603846176126,-0.03276475311738988,-0.21642994140942906,-0.35560704895690043,-0.3766199629380004,-0.32868468515646904,-0.2768469670321629,-0.24142979626417846,-0.23414250576519238,-0.2883319080722823,-0.4278130259424787,-0.5099641205269472,-0.521397314229707,-0.5298338574865986,-0.5570980588025748,-0.5940793827391868,-0.6307225191335771,-0.686801099147236,-0.7713776883158173,-0.8607038964558089,-0.9150690288649729,-0.921741101449096,-0.891677488060802,-0.8469672341070431,-0.8024951366605299,-0.7450151177684151,-0.6040709418929712,-0.12974869557291285,0.6176205962567017,0.8574431878194662,0.8859748438019294,0.8489449558946109,0.7697800253783371,0.6360066543060676,0.4459530426392176,0.30782427523096806,0.3969788475095967,0.5904926725380791,0.6852360140450208,0.6756096538162658,0.5959064866195064,0.4798684828194524,0.3734264520517674,0.32708368326508785,0.3633035944564978,0.43755479009237125,0.5011065110016315,0.5391349563196628,0.5553618541975851,0.5623121858284574,0.5737743239987521,0.5628194763905752,0.44198907686971645,0.27801884660354403,0.200257421466335,0.21285218952861518,0.29136337356113584,0.420095920264714,0.5718223365158347,0.6970696587957579,0.7481609919126367,0.7344666626413913,0.6909234544200167,0.6278113921540197,0.5438052471088617,0.4509481625821499,0.36138449817043133,0.22669062672147977,-0.15364495196459196,-0.45551988673020294,-0.4861511322897796,-0.49074620219799725,-0.5301499172677319,-0.6278007719534782,-0.7532080003539323,-0.6085716771013827,-0.3659432214221263,-0.20330419852324774,-0.09675874651798676,-0.030538163030267598,-0.002209327824580006,-0.014368708536335912,-0.04448773862664135,-0.061856549678103896,-0.07107186240122848,-0.09436363754236189,-0.15690923302086968,-0.26984505228864064,-0.415658978833779,-0.5853982129937851,-0.754847126537059,-0.7760751887174703,-0.6683028083247614,-0.5846800646540616,-0.5628575731386964,-0.5959394687118194,-0.6568218131952999,-0.7126370966483202,-0.726612657588078,-0.6917269226994912,-0.6079821607179827,-0.48452407173469664,-0.3956741366222521,-0.42859594111172467,-0.5522486071150182,-0.6697108540976088,-0.7566803044872601,-0.8204661590428344,-0.8551114778107032,-0.8467333717513176,-0.7943231099912318,-0.7154991689765103,-0.6371547841126927,-0.5398980857009469,-0.40056053726293667,-0.2380972346690854,-0.07713985205951357,0.09790018535713656,0.27712844413905846,0.447747885206014,0.5959990314014478,0.7079657673342702,0.7843159643441645,0.822729429354103,0.829488139203539,0.8252151497744864,0.8256156467927803,0.8345056771302036,0.8500444892760652,0.8732180120942438,0.8980475049419557,0.9144596343816503,0.9213507887513621,0.9329800411233421,0.9532465498565502,0.9725176110158266,0.9785399743872804,0.9126338525481744,0.7023792757114969,0.5341327676318307,0.5280935169838691,0.648820859401228,0.8201832628335126,0.9018485588656555,0.8990430402778944,0.8688187584553613,0.8253370574415003,0.766207156039955,0.6965844654733744,0.6521183520154339,0.6537080035380072,0.6887266297077421,0.7253085450837319,0.7029613041693,0.48635800849754435,0.09252374712938863,-0.12256706206106571,-0.024135064420772016,0.13850060001863235,0.24515639533290498,0.2819897494045398,0.23359450609901322,0.06615577970280263,-0.23623233493119716,-0.5500410133807294,-0.7387312457702164,-0.8257389726434158,-0.8704065596254665,-0.9105946588729714,-0.9511175297493608,-0.962434450026553,-0.9434272124138887,-0.9200910278097756,-0.9053314774268397,-0.896361602682929,-0.8888126216400049,-0.8860281988101465,-0.8848734008613834,-0.8711683134370578,-0.8375285240410067,-0.7873625030620731,-0.7217755229571301,-0.6461459894751358,-0.5649454780194718,-0.4857862054599335,-0.41103421538962875,-0.33276445746944033,-0.20146645971822513,-0.045778334662561496,-0.0047244481348664305,-0.10936046261828879,-0.2634490857807807,-0.39011634859360655,-0.45728193781147647,-0.4365521597902952,-0.2819738981984558,-0.042047707120124844,0.14721177255328916,0.25245450005080705,0.3439703844213542,0.4905838788629543,0.7006899552548999,0.8366613208296924,0.8234077487493515,0.7786434929444519,0.7517034350863296,0.7457136829322103,0.758602929575624,0.795861209558256,0.8606311647538667,0.9201658292107082,0.8845246078336384,0.8118972655351437,0.832788663293816,0.8764943602422209,0.8062339723701547,0.6731031897151657,0.5484439838914427,0.4604704442018682,0.4425070904967136,0.5238132820007952,0.6048002324229107,0.583539875051908,0.48661094783779624,0.3416818502957194,0.16627690105840476,-0.010683771822005847,-0.12009283821568673,-0.13000359459825683,-0.07139505697063923,0.020876050967927683,0.12737685822895392,0.21575628891664342,0.2609943111014832,0.27175516738076705,0.2844325081322457,0.3338962881925399,0.3847717122528105,0.39150417265307325,0.295331254682292,-0.07600715683189035,-0.6517886681509616,-0.8615484959332295,-0.8730491151622316,-0.8154784640659708,-0.7469808298855949,-0.693851173097559,-0.6588391528002121,-0.6397693748897844,-0.6538741125599521,-0.7246893222136067,-0.772149428533417,-0.7370511199398767,-0.6948950140102997,-0.6711255617275058,-0.6614307383103969,-0.6592385094266692,-0.6602368929149178,-0.6632638318578247,-0.6748959482977307,-0.7038066671220358,-0.7475854359570591,-0.7853975208840399,-0.7948066646023095,-0.7621738954270146,-0.6714869058606203,-0.4940859722383569,-0.31882844430310875,-0.3467533154662415,-0.45099137281473456,-0.48142402558906144,-0.44774872979778907,-0.3929332079333368,-0.3364045347131403,-0.26404335919460886,-0.16030245985799554,-0.004510258716089136,0.24356039297299084,0.5607330945766419,0.7786897050613485,0.8573558953656124,0.8769299602828554,0.8496147590493568,0.7860940516952954,0.7337814227166989,0.7184962421210233,0.7341055618209874,0.76664338133058,0.8070378896077111,0.844277176219205,0.8578956068981202,0.8571689093331122,0.8842159351702588,0.9578839194172195,0.9384738749583673,0.7345123183516268,0.5682864474004522,0.47782897312242384,0.4252676328688716,0.35684731366498085,0.18797650569219312,-0.20220560710408483,-0.44987437289018734,-0.44214925756724033,-0.3982654986092114,-0.3760519450642845,-0.37051527367529175,-0.3702016232229405,-0.38692338235005674,-0.4249101313471301,-0.5053276784997918,-0.6141049064008639,-0.6812765289348166,-0.7324762981963066,-0.7618572829592984,-0.7287768071075862,-0.6216295176157656,-0.4700215840029247,-0.33699629381943086,-0.2631966725956475,-0.22128459148234578,-0.10220281912445343,0.2025564945702371,0.5142977358119167,0.6646708680336201,0.7221073561787552,0.7367460706790968,0.7182431191723458,0.6584544859502032,0.5241780657977975,0.1982829089118664,-0.3346430644971463,-0.6315712099540285,-0.7137207168786952,-0.7220338720590981,-0.7086519126347806,-0.7135469439698047,-0.7482432620448177,-0.7805683896115255,-0.7778068034707625,-0.7549340032011163,-0.733762634526458,-0.7209132242437675,-0.7190764956349701,-0.7261984222469966,-0.7319528362727303,-0.722566609278455,-0.6913852030444129,-0.6431763276043644,-0.5806673589165114,-0.5083652079013276,-0.4265714572064392,-0.31439748784221994,-0.14994099087177895,0.06451178463967738,0.24757394671330518,0.31375918609392595,0.30163359077892926,0.2865136242049271,0.2826768455418355,0.28728109154676407,0.3263912135199265,0.40882688950768387,0.5089817002121736,0.5956645914853694,0.6659260157269096,0.7261791073318863,0.777132684232745,0.818043033426629,0.8497821425546501,0.8631768493701897,0.8369361741026534,0.7330237040909328,0.557810247914688,0.43979873942933995,0.606588993214328,0.6270606593666134,0.5857138855364309,0.5984049566787102,0.6174510449442571,0.6383495498761289,0.6651704562933202,0.6945318393604492,0.708828320661816,0.6443882933501015,0.43370529163995697,0.3808344569844788,0.5731535180469016,0.7556418758804515,0.8427523703455391,0.8549058550567363,0.8137362903877128,0.6706895756867385,0.2504254628044254,-0.28100888577874183,-0.5359642445198209,-0.628365900459482,-0.6622202808813042,-0.6769582450549837,-0.6775992325517929,-0.6417053951250644,-0.5272991041322753,-0.3523083824166474,-0.2094699295455041,-0.15584181847755865,-0.21637718406840048,-0.4333207424356159,-0.7527379230485076,-0.9308150720004584,-0.9223978056243006,-0.8516450241563642,-0.7945367734043954,-0.7632834716030048,-0.7480527748048429,-0.7363477594732253,-0.7162122727482736,-0.7041495642655029,-0.7206972656695472,-0.7625829171316406,-0.8076438984450783,-0.8391510611234786,-0.8465770748174323,-0.8176114727771032,-0.7651889406905932,-0.7188193583070087,-0.6806424200238644,-0.645694458905014,-0.6014325101991843,-0.5330313148752361,-0.40715601797308354,-0.1784462304470883,0.11315327419262398,0.36732771218113713,0.5374564932658281,0.6438237733176022,0.7154496363971263,0.7558667053076326,0.7590871976790678,0.7378067345701653,0.7142295256528829,0.7065253650601141,0.7244760682455043,0.769186400749191,0.8130479986436664,0.7937890888718283,0.7398797843796846,0.7103881138717881,0.7195175763946317,0.7556975487771596,0.8012441753599061,0.8445670510372765,0.8628386895057529,0.8564235044069276,0.8503112797892739,0.8585534830612966,0.8699748570575584,0.8882587712153837,0.9195524132681164,0.9488141645820134,0.9499422307738491,0.9170944041194546,0.84188714057174,0.7060251401690885,0.533182610929615,0.4096809972261586,0.399928158559582,0.45668168497591083,0.5423133676791471,0.6302232155405986,0.700328544387917,0.7619577402788982,0.8136341675000525,0.8490297573133803,0.8382013896876406,0.7630191266516363,0.6580840140839598,0.577837798538141,0.4998815928975507,0.3836156684922007,0.20250079000171026,-0.008486590340836965,-0.20349413041771466,-0.31394174881561226,-0.3070434759574056,-0.2579526463523996,-0.2632329112317113,-0.3555162362776901,-0.48693170165414845,-0.6100783637585679,-0.7015890296451194,-0.7440073611693258,-0.7401884824731584,-0.7369593782226878,-0.749938189545917,-0.7718148949885297,-0.7746124219711843,-0.74641959829976,-0.6951875753318885,-0.6571854366727031,-0.6999444873359357,-0.8198813285650162,-0.8799811679015378,-0.8587645088575749,-0.8146915646948591,-0.7673364684794448,-0.7264297789224424,-0.6947913105742963,-0.6710865435295891,-0.6442217241615421,-0.6135201937521925,-0.5967368790934532,-0.5937019006784926,-0.5901296607241879,-0.5774603584179729,-0.5400797369656724,-0.39533316816832936,0.08926102076832065,0.5716768024658557,0.7302003801374085,0.7944127043373926,0.8233082095934193,0.841615622630847,0.8607817562153979,0.8485821591370193,0.8018674891585688,0.7714207208775529,0.7695591566514501,0.7883289259926486,0.8181680251151894,0.8484457530060154,0.855058356182445,0.8277149522602145,0.7858192670353692,0.7586580152472259,0.7635899562805891,0.780424328851349,0.7564604084550097,0.6388641103517216,0.5698525834610579,0.6118368186420525,0.6502484094387625,0.5948563249096595,0.35872993181050655,-0.04812311314210479,-0.3778057529088158,-0.508134689019743,-0.5162846251345757,-0.45328228309564916,-0.3020625988906537,0.005250959584387035,0.3671574720530803,0.5486647297348347,0.6134287669318352,0.6074596430779257,0.4999228900022726,0.17461458409113514,-0.20325240065584638,-0.3941004604281535,-0.4882429803569706,-0.556589952758927,-0.6122174214809923,-0.6632989279346733,-0.7021907256448257,-0.7181703268286084,-0.7152952435614165,-0.7034149265672573,-0.6954914470863086,-0.6981424924652025,-0.725961270138154,-0.7782121595366297,-0.7391070890043981,-0.5714960304499203,-0.3997121880870601,-0.2360768256605734,-0.06521084726594428,0.09147851834823495,0.1957691316211288,0.23187999790776295,0.18741962758111994,0.05274894867687846,-0.19550486882007734,-0.4971219449825313,-0.6497175831898837,-0.6760551560419032,-0.6564923784355187,-0.6312633945386258,-0.6134029136168337,-0.6147539598217096,-0.6376041810522375,-0.655500488714781,-0.6041348389599083,-0.49071858483005654,-0.371379802955339,-0.22139222527635674,-0.0481626851655516,0.050649131378551225,0.08991439125911328,0.14708220321220042,0.26513178268844934,0.4620990053298916,0.6940068873921931,0.8563201479276891,0.8979419239868841,0.8447306540836569,0.7732008034481969,0.7191371493708594,0.6871414776846634,0.6798551229123002,0.6826082355571913,0.6700759160138817,0.649315145015952,0.6688774937069943,0.7493454002051944,0.8649636304860503,0.948586511875755,0.943045460882825,0.8885669457996813,0.8573175710925816,0.8663884105381328,0.8957075475639572,0.9207517031426272,0.9256314424521577,0.9037278821305491,0.8411575346858414,0.7208319958241755,0.5665717843565086,0.43862642175382394,0.38078160087315405,0.35422492496723307,0.2634074653855374,0.03945248578061164,-0.3297883791876471,-0.6833480294610678,-0.835891570458865,-0.8570847250052661,-0.8404885219641218,-0.83155131016207,-0.8448292218157021,-0.876235709871916,-0.9093796834668517,-0.9296696283128886,-0.9428141373131801,-0.9489045069790991,-0.9352799198180336,-0.8868966237077686,-0.8004964937679707,-0.6770780882844195,-0.5082606551161235,-0.2666525629825319,0.03354517597456097,0.30852208603420156,0.3155621833091062,0.02422828810972424,-0.28374492838783866,-0.5170110382377724,-0.6792361376915661,-0.7664655805521308,-0.8111431071572331,-0.8285985043085704,-0.8328823970439032,-0.8287949885455976,-0.8149367628419081,-0.787007950767925,-0.737188116742343,-0.6577954886367663,-0.5461282253580519,-0.42617418670295526,-0.34433495618980225,-0.32534603528542716,-0.34846136668420447,-0.40441897090888773,-0.4575534283367617,-0.4705319203020516,-0.42044289874089436,-0.2920508417007176,-0.15129562661937002,-0.0711711974678105,-0.05332408398900834,-0.057837806241026114,0.0223561207055838,0.23347282600670638,0.4788199055369021,0.644156150828142,0.7313845347775304,0.7905173753427109,0.837785091572748,0.8720112561403561,0.892182061261395,0.9075703810299445,0.9256041733915632,0.9448981681744464,0.9595399799799298,0.9642835479896326,0.9606763649224879,0.9647541704778869,0.9802664443755491,0.9875121500313035,0.9793751817933641,0.9646293890833295,0.9522391385298566,0.9464218614996033,0.9459992322500071,0.9334169903565828,0.8902495750108804,0.8362336946594858,0.7178503846955244,0.47459543762221434,0.2204309134286964,0.01419380783213261,-0.17888332410285301,-0.37479342252668973,-0.5551568431422834,-0.6772545724963374,-0.7082375359473316,-0.6786927270710551,-0.6569319412173936,-0.651378180358998,-0.6867444659408634,-0.7625283532646425,-0.8441614673101453,-0.9008599366524082,-0.9301891835400808,-0.9301503727829651,-0.9015462216119458,-0.8599825269224032,-0.8209609098830086,-0.7847802945028698,-0.7328196330777134,-0.6603492703369965,-0.6349549719264974,-0.7441427274172132,-0.8115158950545597,-0.782685693230907,-0.7659440543429638,-0.7634739128572199,-0.7682430987692488,-0.7763958468232451,-0.7859008349225902,-0.7932708777102461,-0.7984830643998382,-0.8017485803302418,-0.7968620602085169,-0.7862481548031987,-0.7775241935162907,-0.7783203431018757,-0.7770893200064133,-0.7597175095639432,-0.7165842098368498,-0.6456493467388572,-0.563713864781658,-0.4635718148531065,-0.28203958190306494,0.11914846631913831,0.5534010552532664,0.746330777994082,0.8111460292928796,0.8140602501588037,0.7579172074358341,0.6740613840198991,0.6574530946927273,0.7118453289935321,0.7666419276490418,0.7893635923002317,0.7935934869455805,0.803467462365082,0.8313332430583654,0.8723308216725167,0.9096074583592643,0.9361003646532673,0.9592098186604451,0.9761052940769143,0.975070784526883,0.9530053044180787,0.9254140506778787,0.9074323311798997,0.9001635892307975,0.900636353536412,0.9007129973402808,0.900384647635266,0.894944005831158,0.8832239032846029,0.875567206915313,0.8768065899862274,0.8654806093206385,0.8241566887375857,0.7426460474730876,0.6404391413721401,0.5556321050626816,0.5017966137946391,0.4313342576652642,0.2691135988505772,0.026966655786047646,-0.2532657805964456,-0.5422578639779945,-0.7475521030611492,-0.8076591911212628,-0.7904642309926654,-0.7397466833499794,-0.7082327886461294,-0.7356950561494321,-0.7805860751310401,-0.7856065037952984,-0.7590774914365424,-0.6327712691251695,-0.4305564175903986,-0.33023874711426315,-0.33336098628158667,-0.3999229162400739,-0.5114998975488114,-0.663029969744684,-0.7909404038742786,-0.842839728480784,-0.8502584538865655,-0.8469884559499052,-0.8279307738534206,-0.7833824695995966,-0.7055148348735003,-0.6024216361354258,-0.4812098980318668,-0.38548442819850876,-0.352845013675367,-0.4097658425466788,-0.5427513889821978,-0.683875134408027,-0.7734034450167763,-0.82049233191442,-0.8407583661923111,-0.8388930456777536,-0.8093457385049687,-0.7463243302593818,-0.6474799590118405,-0.5120799203236268,-0.3383067403330581,-0.13761958655822848,0.07111871958515889,0.19953164760852618,0.20434661738332888,0.1258159785917704,0.019612006298414753,0.13855236900013707,0.6208397616015137,0.8201801531606678,0.8663235188512917,0.8700883993521892,0.8528282800780812,0.8169229038559624,0.7572366588879149,0.6936980249449518,0.6636490795580249,0.6932308764284626,0.7695672094585418,0.8628724235161631,0.9327526135006007,0.9509218400650515,0.9407767298450576,0.9351975848032896,0.9260492703605241,0.8915683622454247,0.7926118067088733,0.5636585325405989,0.2795422658573084,0.16314784528054427,0.24132754551804533,0.43603278104775256,0.6008291816765974,0.6711123925092735,0.6794588892969051,0.6644937560556604,0.6509015271431187,0.6455485940828857,0.6577394575035551,0.6921335857241482,0.740170327132931,0.7404230633174919,0.6700012208520552,0.573542689968073,0.4886085863537189,0.4030060078983086,0.2393461685297061,-0.1491801604097945,-0.5835671163443285,-0.7090488852627769,-0.7198524903899863,-0.6953354405164578,-0.6656231862161988,-0.6548947376057608,-0.6925300555658471,-0.7721913546215821,-0.8657974810149864,-0.9421416094231755,-0.952258072967092,-0.9227942199985443,-0.9118349202880776,-0.9248337253428817,-0.9449009099425334,-0.9545337666426987,-0.9530350918543337,-0.9508349144056785,-0.9498322264932219,-0.9396022793640584,-0.9137843527065797,-0.872727715733528,-0.8032708485039367,-0.6588472020997328,-0.3948579981861374,-0.11074945812150291,0.039457653573436544,0.08257191276889495,0.10324052893882135,0.14189093877773085,0.2358599866486051,0.37368036155017975,0.5127012554097414,0.6255848485166464,0.7155083381820474,0.771479308530125,0.7850840714293408,0.7568713341213962,0.7025273340187353,0.6502977708476962,0.6074290769093376,0.5820733929734874,0.5769488514371324,0.5766188996615677,0.5707761835996878,0.587763882309307,0.6427431916587554,0.722169994680282,0.8024811825883403,0.8781829830390067,0.9375460474151766,0.9733717537880607,0.9874461803351787,0.9684675565833665,0.8701993321008143,0.711038400810583,0.6282392095778723,0.687000456312858,0.8480580816196048,0.9463841901395491,0.8730947962127164,0.7500294167908771,0.6620436009342416,0.6185485430797766,0.6032387023187744,0.6034033023618,0.6248904927490327,0.660994952022103,0.6479914081427846,0.5357339044112386,0.3665448140406584,0.20774889858860748,0.024331491648572685,-0.2359199131072937,-0.506162507893394,-0.5576238609396703,-0.5283865644083344,-0.5498475094451466,-0.6593382100404793,-0.8087474931248775,-0.8556645799350767,-0.8589649388998403,-0.9072874651904438,-0.953147965970727,-0.8806116348079348,-0.699125378046873,-0.5280373059775193,-0.43685267992169774,-0.4559804231774539,-0.6096761802906219,-0.8080132254403203,-0.8802805164114155,-0.8710234362617483,-0.8459912129502113,-0.8165891572688753,-0.7749327759459153,-0.7217859162255941,-0.6968174885258782,-0.7175812305962374,-0.7577606847720251,-0.7989659402207269,-0.8236695629995413,-0.8154074531205968,-0.7482848015153668,-0.5656679695792017,-0.2591766620907111,-0.03828555665404762,0.06890280028759305,0.13314457938764748,0.22106192491011178,0.35986047785897307,0.5263061543380576,0.6307561174848744,0.6335341238152605,0.6164680311808626,0.6210957822996632,0.6477276637208693,0.6122822751087593,0.42705944603159973,0.24483785262069319,0.17162570804278424,0.1739151332768101,0.250489081340326,0.4102420386963536,0.5855232769001896,0.6391138684269033,0.5661414304187482,0.4781914669792944,0.445966595933591,0.4909835614401143,0.6250272066887713,0.8095028833683314,0.9121942083090749,0.9232219125177581,0.8955018188025444,0.8388262494336004,0.7484131167499402,0.6491555937394403,0.6239750389052603,0.7176082344245821,0.8717734494575942,0.9621429716703127,0.9642600572053057,0.9267543731228933,0.8675522221179638,0.7851428213248649,0.675588723549712,0.5541185229492885,0.452960255239423,0.3646242511364301,0.25170897465234804,0.054226709028622345,-0.28807621207003126,-0.636349302780952,-0.778249034708119,-0.7899135205422554,-0.7615598271282911,-0.7321098127309761,-0.7317344130006962,-0.770833757581084,-0.8017955288850658,-0.7759629523254442,-0.662324414534729,-0.4351705342365888,-0.17158419225825502,0.007320449059574059,0.087536674326742,0.08606356286857432,0.007121928773644055,-0.20002066623946246,-0.632565873364067,-0.8774320138123565,-0.8287678010569078,-0.7642947840914457,-0.722292574182638,-0.7136396157501658,-0.7414787266041201,-0.7879588030197274,-0.8234401256656168,-0.8311106348813372,-0.8152494873496196,-0.7924702873303556,-0.7738706382099473,-0.7614027647265152,-0.7469628549161823,-0.7241821606185875,-0.6866136340954425,-0.626742850439411,-0.5455333775833169,-0.4571169054505742,-0.3782768697271843,-0.31629770998333373,-0.2747399500965975,-0.2248297926374628,-0.1227700840340559,0.03400555949536008,0.18084276949845515,0.24394882168759374,0.2598118872960823,0.26481039427967473,0.2823886610168614,0.3518014991061367,0.46637211617197116,0.5336028797340914,0.558376613198134,0.580974511484114,0.6098275651816987,0.6440699097037362,0.6797424080415773,0.7179708956464941,0.7597673569855592,0.795827328160059,0.824032117724838,0.8485201148837226,0.8755387340635397,0.8985559099467314,0.9170936588941688,0.9312002440628477,0.9420737779067961,0.948703312524861,0.9409680529157163,0.9037656222668887,0.8403596175381,0.7876079719169157,0.7729208937841362,0.7785824835884916,0.7597136085808267,0.6864312443969838,0.5415469828453884,0.326671697254269,0.1491878371110476,0.10395369770771377,0.12283050960670015,0.14965291228882951,0.16926764774453643,0.18249945508679702,0.1766043925136781,0.12452844861597266,0.0014581530524350012,-0.24219817753696268,-0.5954886590915721,-0.7655637193731273,-0.7583114792710564,-0.7211530767168933,-0.6659582639460021,-0.5428562498274917,-0.343205616716222,-0.25253130402394897,-0.2642931484618624,-0.3607585952597465,-0.5547263983438832,-0.7829592074331135,-0.8966572507845708,-0.9052202676115155,-0.8904623559496232,-0.8763048644227938,-0.8644286013555508,-0.8556242434000544,-0.8530840296682162,-0.8512529920883949,-0.842796576575207,-0.8305816449542958,-0.816618318970717,-0.7851924609248796,-0.7095863363416214,-0.5737859111341755,-0.36465538870430464,-0.12627687905520427,0.0856090088694227,0.26345315527654417,0.4373909104613488,0.6260198456288693,0.8031605720947887,0.9115222908539817,0.9541680567401443,0.9659736693171154,0.9643555742883584,0.9493212130753025,0.9172019455196858,0.8799015690973776,0.8582261955964497,0.8596865990451524,0.8396028027656055,0.78389702558542,0.7320331278550753,0.6953492091137929,0.6630303816211343,0.630420943658905,0.6111412625712861,0.6027817329820313,0.5466355390917957,0.3738495116237028,0.21010236631281598,0.1591730802889546,0.1792057398129663,0.22328438221347616,0.25541797824039264,0.26191554785706184,0.23395107607666388,0.14582379392480402,0.02835998366722931,-0.091540393993957,-0.19665606475905503,-0.2408656246355439,0.036764011476734096,0.28434441254321213,0.4047088960847174,0.5084151570967741,0.6480521043891468,0.8198225688238175,0.863758228741443,0.7623263719159328,0.669142404921739,0.5870364256861688,0.5151458212115807,0.4712184725700129,0.40302637413408504,0.2203482764819142,0.04670739154152491,-0.10103737017409682,-0.23275543709746904,-0.3033446214743422,-0.277051353147109,-0.21424254375187196,-0.18232818315017357,-0.1975524218552272,-0.2623389620885119,-0.35955495573183915,-0.4754305608165637,-0.6158025225775725,-0.7808776550397585,-0.9139706440779561,-0.9409772692553207,-0.9001372974843821,-0.8634482357167649,-0.8563436328863168,-0.8696257192528922,-0.8785920561658869,-0.8635349768488054,-0.8270552299777375,-0.7789214865954213,-0.7296549054177548,-0.6768804259873004,-0.6119488222671716,-0.555254550580722,-0.5245126671548833,-0.5255178771157332,-0.5048679284691139,-0.4313580826193473,-0.3383834036712007,-0.2623334062578246,-0.19623751161397746,-0.11568748132748238,-0.008200504140889677,0.13182485137170522,0.28931946588096014,0.4519180110329797,0.6135563191929563,0.7656349539846808,0.8813431782431719,0.9535611848068464,0.9713867852115023,0.9297185497005921,0.8548908999086647,0.7863434989385983,0.7420318123873166,0.7245103685793077,0.732294687319879,0.7606835052629265,0.8017125683515381,0.8260457354115406,0.8017901398422225,0.7567032177179122,0.7468912324680895,0.7664690667945109,0.7829605527961517,0.794374502198676,0.8059704641220635,0.8207923472283265,0.8461672664565906,0.8819474368065132,0.8883945342267453,0.7947599745505509,0.6863150426074182,0.6515346006255255,0.6153347592047692,0.5417201928140092,0.4364444399251508,0.3337415943551435,0.27595862487285877,0.26854881038011563,0.2920706296338763,0.3251849699554004,0.33951808257059296,0.34162439586596505,0.3474480358150207,0.3747462840092075,0.39926729256780336,0.36200874446786896,0.1499134521189489,-0.31147413740736624,-0.6389713325002168,-0.7270076530672496,-0.68292343556133,-0.5807475071988749,-0.4954267823316105,-0.4533851684308951,-0.4295192756408106,-0.4073676041107417,-0.4168812564084247,-0.5390015236864856,-0.7560082557148544,-0.7958813188990354,-0.7756619012989788,-0.7654330242356151,-0.763697609889271,-0.7646045805022147,-0.7662419435144929,-0.7660715040385222,-0.7624948984357619,-0.7461099510442809,-0.7097881833014723,-0.6417191690112758,-0.5539117793588445,-0.46882627497099794,-0.4030493475827902,-0.3554968655205142,-0.319858631663943,-0.2847610709050886,-0.23555302579915055,-0.13976550551549657,0.05434821751070178,0.31348658838971005,0.49982870826976705,0.5724989186415718,0.5426059818957827,0.4187930015394589,0.3131282690182294,0.4510636973949938,0.7632272876094038,0.8878217970099194,0.9061173921042741,0.9017775313943369,0.8880466832070874,0.8660042185040141,0.8364450106683752,0.8077459670234177,0.7954562684375218,0.8162081013349778,0.8603233493805396,0.8203048180129461,0.6270204737419502,0.4684745584274984,0.42939289311802087,0.45967112119660763,0.45812734864121535,0.350095824148593,0.15655692940368476,-0.055488116166613415,-0.1785058548095732,-0.06321282256757996,0.3568530053666093,0.5265621231100247,0.500614351286739,0.3912353805242519,0.28463304922979327,0.2446404016009728,0.2972233557234313,0.3993836225022869,0.48497942184238896,0.5139221222947941,0.4905063133379358,0.42446507695355595,0.3101061684443693,0.15387556820959394,-0.03738345713969875,-0.23719980156174092,-0.40798240869806657,-0.5375667257257222,-0.6257044563649344,-0.6509916586507871,-0.5779864573986075,-0.4194389314727218,-0.25552617317834975,-0.14846264381793634,-0.10068474282872657,-0.10403169374700177,-0.17663142410799246,-0.38610428780527606,-0.7267962175020717,-0.8974051463988646,-0.9021770682063184,-0.8875580971708737,-0.873567171945262,-0.8517130309418007,-0.8005710237007093,-0.7040202839643663,-0.6037889132693796,-0.5482024424938833,-0.5430334698150525,-0.570653929247522,-0.6025810954137266,-0.6057542200127742,-0.6155509048557942,-0.6603799811354877,-0.7133174885130353,-0.7399477793079962,-0.7301743424301145,-0.6815426620779038,-0.5814492010428867,-0.4282815323295237,-0.2712610162228505,-0.14342529666676704,0.020024931376603595,0.2733436270329289,0.5708239506978404,0.7820463888427633,0.8885607872278745,0.9312541745281626,0.9406775250671183,0.9317273989324378,0.905528402569068,0.8554658414774798,0.787596988708173,0.7192746795743485,0.6649421633277823,0.6284308173960219,0.6082180841458413,0.5985921787524318,0.5802238488641166,0.5190221293667093,0.4332015190577753,0.38526234253070374,0.39195302980735514,0.4380001153864266,0.506346321824193,0.5993200730209032,0.69340360285059,0.7667987335461245,0.81942126791694,0.8556378706868195,0.8616247323209649,0.8413872937226349,0.8048862670006445,0.7471731571433274,0.670361062488358,0.579729363067573,0.44157082492144123,0.20728165260337372,-0.07094345175494038,-0.2894953578357124,-0.43139461742556195,-0.5444811254636993,-0.660912473997566,-0.7676073281428613,-0.8344098018781524,-0.8566723863386482,-0.8471025370607347,-0.812943727796237,-0.7746454503621627,-0.768925584396704,-0.7722720481397229,-0.7355085756104701,-0.6480655638221963,-0.5620126841208508,-0.5300612080274658,-0.5709054072074427,-0.6811792468334469,-0.8219744092228335,-0.8916389677325077,-0.8127361848053862,-0.7101012224829406,-0.6698681769506254,-0.688137922737946,-0.7374958663628621,-0.7886191790099105,-0.8253020855493507,-0.8425706833628912,-0.8339545629954727,-0.7984220781288079,-0.7443379441481882,-0.6701960640439472,-0.5886807175233945,-0.51473996209247,-0.45220129127582104,-0.40189610616354393,-0.3797378042480831,-0.38708855067680964,-0.42749077201666347,-0.4391944587749207,-0.2764651598737035,0.05922663890270697,0.42518405933470016,0.7521698349207232,0.7384513720938976,0.634429412865478,0.576045491567895,0.5594281680370196,0.5615639539911446,0.5932513250923426,0.6529915135412843,0.7073564646212007,0.7424595360594782,0.7564453485491387,0.767222235384083,0.7747650404854405,0.7820759802070482,0.7964315313607231,0.8293733713744099,0.8798168841111148,0.9308161261318607,0.9593046130733944,0.9649511067369646,0.9693016590484507,0.980497860081429,0.9852950512848284,0.9782247167145858,0.9669067770485297,0.9593839889531524,0.9564263429733848,0.9564640718474898,0.9519457338290909,0.9414666700436476,0.9344527322729929,0.935492527044949,0.9434130864357937,0.9451452710335005,0.9039426858356998,0.7795615151593233,0.5689050545657491,0.34431370497000685,0.16883535493194213,0.045941609728768484,-0.062360255968162456,-0.12117100495799049,-0.10822473608014745,-0.05783869330339317,0.009831664242697805,0.08536672279359385,0.15519288716839316,0.16849280355673385,0.061511057474465586,-0.09346134090537259,-0.19952146645096597,-0.2844127390932875,-0.3938464580821737,-0.5579004745974789,-0.7526801228824082,-0.9049913247458256,-0.9748096589932197,-0.9677400440288582,-0.9148157738391903,-0.8498748638303802,-0.804361953347505,-0.7942113012809338,-0.8099663983194402,-0.8284109812257311,-0.8353875558388877,-0.8281650886252772,-0.8183506521784484,-0.8177219908829342,-0.831500716127956,-0.843594010514566,-0.8431855814279278,-0.8177928587883797,-0.7659600317864808,-0.6890998991452806,-0.5904682471627379,-0.47323822198269133,-0.3519942646101346,-0.24603492824307857,-0.11636304473232742,0.044151121986048265,0.16228387062453184,0.15216848398671656,0.042851944013274135,-0.06658001495154475,-0.12860621406003842,-0.12567138885554754,-0.02593146535282097,0.2642609700509677,0.7068690741889524,0.8869033543169598,0.8974629980493348,0.8734428791560638,0.8344027741349935,0.7874290283170121,0.7465621579945805,0.7323067840968341,0.7475346204979034,0.7903188586728014,0.820144010140249,0.8047646595220277,0.7872824318851034,0.8249617991383256,0.8880398127750242,0.9239143904813553,0.9377452421222746,0.9507607027309556,0.9637270901420286,0.966712945552822,0.9402745217014457,0.8766324500090861,0.8096338300909431,0.7736055471611136,0.7575085491472321,0.7344247414558233,0.7028625567815772,0.6714321055111956,0.6423508609433609,0.6080070732402627,0.5668193980351551,0.5220353173665553,0.45755553858954195,0.36563187454955376,0.2562795649228069,0.13953792274309695,-0.0018825343525460544,-0.19966545235359762,-0.4714916475993071,-0.7344786577087683,-0.8737645551629905,-0.920080114495537,-0.9300463283208287,-0.928354148297806,-0.9264104443877931,-0.9281057428707065,-0.931388547290361,-0.9282261730482828,-0.9016750309512324,-0.8421839372804696,-0.7697483269551458,-0.7136761034843825,-0.6882401391759578,-0.6916843969456059,-0.7040535116074806,-0.6911696147237253,-0.6079230060347268,-0.4246480172257976,-0.2727072583918793,-0.275057199620626,-0.3571286940805945,-0.4518581966729466,-0.5174506987924377,-0.5402282199568764,-0.5541679293586002,-0.5962852014468151,-0.6869406736124725,-0.8064475799931042,-0.874232429260854,-0.843650239307485,-0.7708410273732895,-0.732105575999275,-0.763183138884873,-0.8123873752128428,-0.4279964268538649,0.20738506627448705,0.612789436545564,0.7566422369035303,0.8002554889777123,0.8217180791448178,0.7848133150922126,0.6835878728255564,0.5753050340145095,0.5135197429517984,0.5102415521780812,0.564942113478507,0.6619337047791434,0.7768438471174941,0.8824442011688293,0.9453841555745575,0.9575801031971587,0.9467798761780084,0.9370806132932601,0.9352302748789058,0.9317553888744142,0.9180702811074872,0.8836677701508654,0.8259416577586298,0.7703543456992417,0.7751160900694375,0.8619567030404303,0.9232005619274725,0.9353337191129594,0.93474175215434,0.9294098149492984,0.9169493048948119,0.8859924265642577,0.8120490150022881,0.6689698472580494,0.48929697243138465,0.36396208781269307,0.32420593247713714,0.3485515439566859,0.3819929002000159,0.36177641849260267,0.26351045967662173,0.08558484327848369,-0.15563204204890826,-0.4009493467473802,-0.5710288285243288,-0.6315178874719924,-0.6238644073601427,-0.5820907470415763,-0.5350825002201133,-0.5166244416280336,-0.5360622569129136,-0.590206068426356,-0.6829828319830583,-0.7884988379291265,-0.8261494283880956,-0.7745218412899981,-0.7157911267681486,-0.6953752217311198,-0.7070016437252057,-0.7352779456872857,-0.7661622294603496,-0.7961495532617724,-0.8212320810494802,-0.8420092241082097,-0.8549380649980656,-0.8548952911658706,-0.8322288568445891,-0.7811753255906213,-0.6972374947152677,-0.5849558755934486,-0.48305473291745693,-0.45734758218711447,-0.4891467449715339,-0.4970417748606827,-0.4399900009594945,-0.3083321978393659,-0.1050247204076686,0.16442716679699204,0.4230649030212324,0.5942377974103622,0.6828919887900574,0.7288702167195209,0.7502858624601361,0.7666964133468196,0.7932838073910804,0.8316874708173719,0.8728095413910865,0.8861469475243621,0.864750830663331,0.822008695160253,0.7764556383298068,0.7476943732701989,0.7571659955092429,0.8081667697175552,0.8871320588707252,0.949857393908231,0.9757577048995213,0.9779829706562665,0.9577849974399771,0.9109891623629306,0.8617611043946365,0.8290714235171545,0.7978163617469574,0.7602656798149138,0.7182912360237709,0.6758327833433779,0.6427579736039472,0.6064995035658419,0.534747070943439,0.41254663434290795,0.24478250572220364,0.06620195851548673,-0.14760511076605534,-0.4417325172489526,-0.7089196328144873,-0.7832606752802775,-0.704201377446915,-0.5414514271113144,-0.33568986196102524,-0.15062034358350893,-0.08087360578720433,-0.12257143808303833,-0.2369235457238727,-0.40562077155771076,-0.5919913360679544,-0.7204057021784368,-0.792465874550876,-0.8042479602284248,-0.7491629645555965,-0.6926506039655062,-0.6765744771849546,-0.7063356764302237,-0.7880214687313558,-0.8977631304129284,-0.9364523799855939,-0.898958456036337,-0.8650898272043759,-0.8522634037228379,-0.8532884983164205,-0.8537121956597107,-0.8225447731294564,-0.7417386544588928,-0.6492497022092598,-0.5908518108573231,-0.5441654483065722,-0.47599596120407406,-0.4051970330579269,-0.36124896603895407,-0.354318718163585,-0.38050180098138164,-0.40685655196592874,-0.4035112696120684,-0.33675303255203093,-0.21296608978132567,-0.04662435692305117,0.15915296184659608,0.3411322437646483,0.47755211558195754,0.5526191968815265,0.5620973281283925,0.5226707094975849,0.46018279045137434,0.40669655514547687,0.39310907948817386,0.44786714403758615,0.5471803979325165,0.6522555606148194,0.7244621009423307,0.7572614495477635,0.7646693140326732,0.7570610573173322,0.7406265781592164,0.7254820340703889,0.6673614089253365,0.49035529720965004,0.3715752391558673,0.4312703446001062,0.6531389763384403,0.8833742272881174,0.9187709901781048,0.8504921148957677,0.8051433507045884,0.8003777977590737,0.8288222074366008,0.8739403914893349,0.9068403898427468,0.9191817485899134,0.9167127208488701,0.9041469538970637,0.8830959964654957,0.8423689420334409,0.7253397574880976,0.3914694579360183,-0.1247457107839634,-0.4543505730001814,-0.607076045545878,-0.7177740196139102,-0.793389900075467,-0.8375843439697538,-0.8697098241146819,-0.893962246611724,-0.8752550987619767,-0.7717619957930665,-0.654254612428636,-0.6166840958102494,-0.6517607220278132,-0.6975786183631812,-0.7028169149959295,-0.6638337526743069,-0.6130456580241855,-0.6005219200583637,-0.6574504932582436,-0.7827449984953464,-0.9235303774003871,-0.9678389391768977,-0.9189165328917615,-0.8470500857407478,-0.7874129545882514,-0.7503166105650956,-0.7412872099880923,-0.753500877994659,-0.7749398308704804,-0.7931982418835014,-0.7962389397843436,-0.7532918017236409,-0.6257887694696281,-0.4764748948585381,-0.4295613084464034,-0.44940781263884755,-0.44993988134486096,-0.42360062616755256,-0.3816991739988695,-0.323891745923789,-0.21764987579658077,-0.015726314171053055,0.34095130228605075,0.7186329113316556,0.865042300075022,0.8933136925288474,0.8941444413294438,0.8984767060338384,0.9158757900459108,0.9405091506860844,0.9602499767892512,0.9703101820283999,0.9689192292590557,0.9285934558502872,0.8619761868351302,0.8038154345383638,0.7607492435182477,0.730975927685303,0.7142603320573782,0.7257554850625433,0.7787203994726953,0.8614483972293249,0.8902875105219028,0.8055990795113134,0.6720986884027265,0.5186225905480581,0.36437528549950476,0.24497081096393947,0.1874097105876176,0.21857944539780513,0.35645789043298154,0.5242145139284137,0.6265683865149054,0.6567982505309916,0.6375783034386618,0.5861986579936281,0.5317119971460263,0.49587595655426575,0.4727305571593053,0.4446635882188982,0.36769106416406583,0.22901210016633206,0.03187277417930478,-0.17729820282511446,-0.32289579352950093,-0.40707708931623693,-0.40645535344556016,-0.3084972726247121,-0.30964714218347883,-0.41193571131264217,-0.5299301708162365,-0.6249107477405401,-0.6901500636151263,-0.7223807446212193,-0.7314503402570236,-0.7429274845495539,-0.7746296593013611,-0.8193168982983212,-0.866614209245243,-0.9091870585862387,-0.9434513803565517,-0.9454485494462189,-0.9042054496292776,-0.8593583436525433,-0.8384182461380849,-0.8409244566309214,-0.8495081485302998,-0.8538897551583963,-0.8450105327867317,-0.8205183693394464,-0.785526026017735,-0.7313612401935553,-0.6286017971608466,-0.45000653992375067,-0.23461648491227236,-0.06882375232790594,0.038680233228432725,0.08934722144618894,0.07076582666544227,0.03189910252031349,0.0077642412410454855,0.00046607638943732966,0.010119282515325146,0.031338004940036385,0.06680065116320986,0.12055974793200382,0.19972326402279664,0.3207867912154977,0.4875140283734932,0.6548030491300614,0.7354455854726002,0.7292655403648888,0.6867906756149994,0.6510914028277773,0.6453038383571399,0.6757260262927981,0.732824034315288,0.7983674999834478,0.8584129416265305,0.9029092915497022,0.9103598212980032,0.8155556219806454,0.6289097624263624,0.5049342484268224,0.5159746279629929,0.6296970301225114,0.7635711673860345,0.8602501139798489,0.9093603063336899,0.9157576164007912,0.8779687770754683,0.8018484127316678,0.7050945320059493,0.6277988983416912,0.5721312712713001,0.5177731985585154,0.4780646168415595,0.4675922487433583,0.4970684728216712,0.5318079645022191,0.5187169801960378,0.4055254732052473,0.14089497585963104,-0.23773668692679098,-0.5086940918000491,-0.5677368692683363,-0.4813109384237816,-0.30777255402596687,-0.0976308144456992,0.07512664699259625,0.12820578246904873,0.01975409034525872,-0.17613826488353493,-0.3090925677323811,-0.34070846858131976,-0.34477006732490884,-0.36281664845148337,-0.4000129145460474,-0.45179618227479706,-0.5434172225747981,-0.700902652992155,-0.8245623901290142,-0.8304694094275076,-0.8110853963062901,-0.807884507031676,-0.8144949714526218,-0.8150326543080408,-0.7986707360485982,-0.7646454807297712,-0.7340820656563559,-0.7313884223351955,-0.7573049707028158,-0.7893334481049136,-0.8047809106666739,-0.7919979320428279,-0.7505095982505021,-0.6841604951365737,-0.594541815249493,-0.45424724497473634,-0.09918627682483984,0.4961049567739485,0.5229465189964242,0.47418161339843895,0.42743609996139087,0.38200199109976135,0.335922911929861,0.28957551243270674,0.2550415485879127,0.24907450511839124,0.29659578996143354,0.4343868371129462,0.7148911561355145,0.9191797264864151,0.7362339504506564,0.572285332233316,0.48610049203720745,0.44492514514333553,0.42859544232761004,0.4195021718577927,0.3814317121928731,0.28584328759432254,0.1718760410645739,0.09138525679309614,0.052318193779744976,0.040231662387945635,0.04025277408498267,0.0477868082932299,0.06224088238935262,0.0940948402485532,0.17137768124306807,0.38442520464800944,0.7502920180365271,0.8830672144139892,0.8594550252269538,0.8388427322313886,0.8317021849159378,0.8240383644086651,0.7997911909462365,0.7338956066609624,0.5914286796242773,0.36236729464615375,0.1100496101753908,-0.10198233206518231,-0.26261375052452546,-0.369427396418551,-0.4299646042993108,-0.4480833597544113,-0.41342999708110295,-0.3416364744664221,-0.2674734996659598,-0.21195312652531995,-0.18002121537466176,-0.1594059569822781,-0.14916779749718248,-0.15893433859989342,-0.2158407545609223,-0.41623629870078,-0.4402092194350638,-0.3571743667868049,-0.37614541372485644,-0.43251727438596427,-0.48234730154288746,-0.5108663215710918,-0.5278151672703749,-0.5508271405959788,-0.5936232757770598,-0.6542075695575298,-0.7130291354523713,-0.7622000716053893,-0.8056570694834214,-0.8537167439457175,-0.9097975067024439,-0.9440648713271312,-0.8962639071122389,-0.8024525753342988,-0.7286757351424252,-0.6646785837882274,-0.5584817208227727,-0.3594163488883527,-0.15570364946644968,-0.04522185706919403,0.0005224101333632461,0.021921510856757455,0.03753467453962859,0.06080493049666523,0.11252689448284928,0.19433664745495344,0.028583204351996218,-0.01449811674065319,-0.013407146621838457,0.026266719056657156,0.12631957311184663,0.3275968175366447,0.660871962314395,0.9346983614251829,0.9764319188155012,0.9253570880815134,0.871428022625134,0.837622230959835,0.8306606597925298,0.8194944868837978,0.7512952765449219,0.6329842110812713,0.5227391591813421,0.4439280782008304,0.39525690039718636,0.3768724276121336,0.39370531295509403,0.4670012796213634,0.6384454707830027,0.7929760445085436,0.5384824831707427,0.29211555895573776,0.15062631740401466,0.061499605581368536,-0.003754118442647035,-0.06201458926760051,-0.12188392159533942,-0.19090356619079224,-0.27660740398723466,-0.3913871480584559,-0.5233584534709679,-0.6131940685350091,-0.5993845643943146,-0.483418529327326,-0.36166275117312235,-0.295473495498632,-0.2824913255075847,-0.28810988959095707,-0.2856222785226122,-0.2683214793318774,-0.26691858395450047,-0.2903565265026988,-0.2603421381320116,-0.21411270224843573,-0.2500463355635747,-0.32346351881000973,-0.39337900685937766,-0.46689590128891395,-0.5596993071202352,-0.6021095357091836,-0.5678812754458588,-0.5232688212077503,-0.49507658266208815,-0.4800894814327248,-0.4593267119267947,-0.3852867478367673,-0.09870891210098037,0.3229555946030979,0.41496788738822427,0.38302610214225785,0.27772931844425114,0.10857211938244932,-0.06499223754106045,-0.18520544399908156,-0.27987865138087364,-0.4243686240164818,-0.6577149895528903,-0.7806797348032815,-0.7105673562093519,-0.5971437828391156,-0.4849248043649532,-0.3776616713792587,-0.26106122397425613,-0.13096461238423668,-0.008990958168772467,0.06712158885440184,0.08850194650686544,0.11241066514422186,0.22409660770674922,0.4255177101378618,0.5855356866972062,0.6399451932729606,0.6430484470604675,0.6433500001280926,0.649308335182057,0.6585700053115812,0.6717431901545466,0.6904577320727202,0.7103558808059358,0.7272601213581572,0.7325710174462314,0.7227056013687608,0.6866120623492933,0.6052395703141801,0.5462436762633323,0.5560401631256637,0.6243095987738366,0.7231108874105069,0.7991998481920852,0.8163823115526515,0.7730096749542709,0.7041294636745502,0.6558286120951679,0.6444011637479417,0.6554191791871884,0.6074834041956829,0.45319703854018933,0.24547726630578917,0.039094688257214204,-0.14893970176463145,-0.262965165998186,-0.2783744605184819,-0.2547697502945565,-0.22817316752714165,-0.19517159390360198,-0.13692917084827746,-0.050046638557764235,0.015733006916526914,-0.05587560347573265,-0.3633657287386523,-0.7438100279171982,-0.9009047320334284,-0.9424714228373812,-0.9554848111252701,-0.9633430348642286,-0.9743659983071871,-0.9829511233119763,-0.9856147543536421,-0.9764302329223191,-0.9226421489316615,-0.7850434508817302,-0.605174418481918,-0.4489601328712315,-0.345447044740476,-0.3030732175762742,-0.33377987870030673,-0.42677282220146057,-0.5420869592727048,-0.6573151610251962,-0.7546063788925688,-0.8155813610752142,-0.8460514751373068,-0.8587836308299648,-0.8639778662555914,-0.8726774690031421,-0.8873457029421218,-0.9041660413476125,-0.9162091003524816,-0.9114513072963192,-0.8198227914469455,0.10915503210160986,0.8537561286148853,0.9509376243996537,0.9776258370733293,0.9778826793372367,0.9473654801735575,0.8695545806126423,0.7271927099818751,0.5463754603608357,0.42975291206941324,0.45951686478649456,0.6240994235450148,0.7584165430363757,0.7885789977893114,0.7971334654568977,0.8122007918428176,0.8310082926124264,0.8492497232893681,0.8601235517759357,0.8236398697242762,0.6711859308521425,0.47420656814076917,0.38323272466042857,0.48302639625257476,0.7302695030729985,0.7250787632237476,0.7124853172796948,0.7675952136640345
