0.5740830708502014,0.34556822494004014,0.11875041284281222,-0.08050867683918128,-0.2516346526757789,-0.40081633504853376,-0.5344571419458327,-0.6503339055531739,-0.7427229485333137,-0.810123842576363,-0.8567419863673781,-0.8859130689069786,-0.902313412873551,-0.9142840732363111,-0.9302477820901852,-0.9504320148116544,-0.968081627674095,-0.9794693152722084,-0.98531353209841,-0.9883287403483365,-0.9896579614195044,-0.9892378215595151,-0.9874135355819292,-0.9856703826994007,-0.9862745613793976,-0.9890718154651628,-0.9916001302946773,-0.9867389411615219,-0.9668031925060702,-0.9322435076031578,-0.8968284591851154,-0.878879145154573,-0.8831926592725173,-0.9016816992200798,-0.9208066198190755,-0.9330468564971587,-0.9321106606301656,-0.9047776173920898,-0.8185337283440184,-0.6509838190640578,-0.4330166953967529,-0.21415087885677542,-0.012443186892447344,0.16156894807003425,0.2968567176562363,0.4009209973445789,0.4903996425272684,0.5860084853677503,0.6889194478207772,0.7874536948230192,0.8648451509612413,0.9137637292466066,0.9413407539628208,0.9549268367285387,0.9608105478378842,0.964477990353664,0.9700812751405015,0.9768413842356678,0.9822856198554837,0.9853230163701082,0.9858357276526015,0.9849234257518309,0.9829562757300049,0.9815816581568739,0.9820787906948473,0.9840681411099309,0.9850392739894419,0.9826096536068732,0.9771193304607516,0.9698342959333701,0.9614879825175712,0.9506288012321958,0.9342291898593431,0.908766157491012,0.877795942233489,0.856310687948761,0.8598910312852376,0.8738260742348504,0.8550593097353509,0.7858400078141637,0.5785984445556291,-0.023369950765035574,-0.4252467037120058,-0.5498732958739552,-0.611075862386195,-0.6680734367326459,-0.7235447924499104,-0.768384858724974,-0.7952194512121468,-0.8156211773124731,-0.8385902161959672,-0.8696562165483653,-0.9041375973927736,-0.9268362508761985,-0.9312641530681715,-0.9317238163624143,-0.9376708359947976,-0.9504505875029586,-0.9662583015421198,-0.981033068611722,-0.9899414025894925,-0.9918758314692177,-0.989796748608713,-0.9863952298215051,-0.9821961408370177,-0.976970599993451,-0.9718629432643329,-0.9688560349357748,-0.9671417434636967,-0.966379584743672,-0.9650492128564199,-0.9597531099079164,-0.9480791802753278,-0.9314655901977418,-0.9074704128656204,-0.8744996626729554,-0.8322725946844198,-0.7770652775462034,-0.6759306416334976,-0.4936280341865405,-0.2218296583987062,0.033223739167473856,0.21433939055433052,0.3406424203787565,0.4470345675877671,0.54311818736491,0.6346314986049196,0.7263913963311248,0.8166335874926957,0.8959574325367695,0.9457273408839013,0.969674613252455,0.9778628876397178,0.9789331274792491,0.9764685543137279,0.9745508796886329,0.975499569199593,0.9785098467613973,0.9824144949138687,0.9858923123852263,0.9881751781980717,0.9898007347748803,0.9918651191178273,0.9929539728108036,0.991373572249529,0.9868201391281264,0.9810855608265175,0.9764134138634059,0.9728782627292389,0.9696859342375252,0.9661198783092116,0.9619645307518457,0.9511322600540938,0.9272770774885599,0.8871238626958935,0.8140839620259267,0.6475564293106463,0.3781662164033943,0.11251464339096284,-0.10993341003692624,-0.3218793659346016,-0.5037243285185274,-0.6213947515584398,-0.6743922172660685,-0.6940596166887422,-0.7086549518878693,-0.7388133505578734,-0.7916937200370118,-0.8512411625926808,-0.8970401228778705,-0.9237151210133399,-0.9320092955296253,-0.9216868338777351,-0.8928416878609501,-0.859745251233263,-0.8446350506425616,-0.8566351235236171,-0.8917992223684924,-0.9360090439768204,-0.9726169950718251,-0.9900479472817232,-0.9913404193571521,-0.9849761259448776,-0.9752352691830747,-0.961976098960051,-0.94439725278941,-0.9218102225071018,-0.900442074903021,-0.8874674758107045,-0.8842050594113857,-0.8837599699351668,-0.8832185116212491,-0.8871557905297428,-0.8926233520542254,-0.8670070560483645,-0.7032205955312202,-0.3478721364063713,-0.03840460445387219,0.14031101134872662,0.2472844420301969,0.3281655797881941,0.41629883609835816,0.5283821436518308,0.6581197965940699,0.7795833558536178,0.864951909251554,0.9077693466920256,0.9237531365659299,0.9280996835364481,0.9289830717805844,0.9341858339074286,0.9450222027790441,0.9561068909704727,0.9599491680723875,0.9506361403397016,0.927985153822674,0.9049733818672618,0.8948929688357923,0.901726933706133,0.9165849700203069,0.9285746372586144,0.9326591919801454,0.9325387039724905,0.9302246747530951,0.920515237555141,0.9032203120825755,0.8847851715310562,0.8698387462870067,0.8668510809370887,0.8777597062043438,0.8916434405344086,0.8853945108849474,0.8680253625967091,0.8710490819610183,0.9008991726973711,0.9341476924601502,0.9467483374826179,0.9378048369122411,0.9163442067024832,0.8753214696326522,0.7954850967401441,0.6503708057203359,0.42600455479479377,0.13329861002057666,-0.18791638615693193,-0.47080746336275703,-0.6796451081034316,-0.8134290167292276,-0.8878891630544623,-0.9261068055299629,-0.9477683362869355,-0.9604756394879944,-0.9662989026497864,-0.9669225147562751,-0.9626662348504755,-0.9514594704227252,-0.93182263506746,-0.9077361668966963,-0.8840862301890832,-0.8692575188601666,-0.8734786539562326,-0.9007950703197081,-0.9398756676209142,-0.9725706636500847,-0.9884613190569184,-0.9893625799998217,-0.9734087465779266,-0.9394501291632418,-0.897268878705874,-0.8619091373198687,-0.8366125378613204,-0.8185208160854852,-0.8066693803759932,-0.8020219648428233,-0.8034723822672624,-0.8036284157979207,-0.797718235793734,-0.785928691930759,-0.7694333022826,-0.7330157379328811,-0.650806991347117,-0.515398670561246,-0.31764098200190455,-0.030471114899502046,0.2687154384234981,0.48339657000560315,0.600423872300923,0.6566108827406184,0.7019790899726396,0.7693965428033421,0.8481698693169826,0.9035255338995754,0.9160288788054425,0.9065119652621813,0.8960782625297325,0.8908519938003838,0.8920555598413985,0.8966432600881186,0.9019045336823909,0.9044591704741556,0.9050039802296337,0.9072334735084787,0.9148375386990509,0.9262302212455179,0.9363715804448624,0.9446861282883975,0.9532213519963663,0.962177932637521,0.9690769766837615,0.9738003606462023,0.9784713516744028,0.9839289948167693,0.9862924328703435,0.9801197113564036,0.9637606084382946,0.9405728434129927,0.911658602097448,0.8668435317638256,0.7804844997391661,0.6068747516364446,0.30964839290015794,-0.035801283388851066,-0.31281900670416285,-0.49710286314288854,-0.6211058024119328,-0.7075872732918026,-0.768465763513376,-0.8125582989583334,-0.8443659427116564,-0.8722383703284353,-0.9005854169698273,-0.9253795206231159,-0.9409063888521827,-0.947572516523473,-0.9503489444236528,-0.9537614464447479,-0.9586259303211747,-0.9650076267591504,-0.9728727696921128,-0.9810658144064629,-0.987139768353823,-0.989657487592172,-0.9879528821213313,-0.9833228716194717,-0.979021384596018,-0.9757417260924741,-0.9730666135925577,-0.9684802027692968,-0.9580889880114991,-0.9391346594273123,-0.9117724734116468,-0.8847606303317713,-0.8722345887459791,-0.885424049374811,-0.9153060081006188,-0.9054006766789682,-0.7717296114627038,-0.5129378745532028,-0.0746929607373775,0.4037842463001185,0.6636701226868695,0.7500655024832504,0.7685155879735139,0.7658633716176105,0.7579543108597293,0.7583853251938251,0.773577778834398,0.796075017204175,0.8213031662566761,0.8476263682415544,0.8711353822715379,0.8855211242749025,0.8897140428056048,0.8909301315108664,0.9003406318273387,0.9207652652850119,0.9458110810273499,0.9668277883890424,0.9809609520243698,0.987777372374307,0.988151476207289,0.9806014638825951,0.9671306791285967,0.954725680190205,0.949539054715434,0.9539639552506621,0.9647812025956416,0.9737196044873266,0.9774605289911827,0.9745762183981648,0.9586809897485726,0.9236531918364809,0.8738261835057199,0.8162657334245232,0.7556022995434122,0.6931899619400017,0.6281733558087763,0.5650975825199277,0.46906247194994694,0.14501332357316013,-0.31632241760467583,-0.47014551098440993,-0.5301769493376044,-0.586856994134677,-0.6556638447158393,-0.7458311710052545,-0.8565501232749038,-0.9451742641767422,-0.9736653974178393,-0.9620306282689577,-0.9515959984007496,-0.9535831687925154,-0.9605240518441285,-0.9630076045873058,-0.9586907480963025,-0.9485034516999526,-0.9347301621265584,-0.9205192213899746,-0.908895796422378,-0.9029378210321872,-0.9096167191168418,-0.9310323032621286,-0.9522448126506315,-0.950524916005125,-0.9240193158577304,-0.8945115276163472,-0.8805539949293202,-0.8905316058861928,-0.9184295077517917,-0.9477710907065158,-0.9667471308550644,-0.9721160035030928,-0.9680311593248571,-0.9572775923436114,-0.9409914436520341,-0.9206330735609074,-0.8926439816374769,-0.8510455065525907,-0.7769581456534307,-0.6254633472295654,-0.295855554755749,0.2062380277376424,0.5938498160219292,0.780089028739955,0.8670584200277908,0.9122399079211949,0.9375585420577301,0.9524062360312758,0.9626848096742905,0.9706342202698407,0.9769869062057743,0.9824502341427815,0.9879550318765412,0.9924185599058434,0.9936629626876353,0.991909256212587,0.9901109420512456,0.9895884172987973,0.99007703932848,0.9910415280287596,0.9901100847864776,0.9827910836484971,0.9646485490634971,0.9392972161265216,0.9205157641309507,0.9226072902755619,0.9428149050072876,0.9580641207560746,0.9469505229094025,0.9193249951000915,0.8973368540438814,0.8863786598741976,0.8799505231623312,0.856236664133064,0.7961997719865093,0.6833618829248354,0.5104125020582856,0.24422714962329203,-0.05863477035406952,-0.310916426965207,-0.5035308729503681,-0.6311100703519258,-0.6977902442208592,-0.720848141219007,-0.7324404127519939,-0.7448471751362441,-0.7624719970137166,-0.784348011061367,-0.805821270710656,-0.8253557198233848,-0.8463993817395684,-0.869736212287345,-0.8986258539947827,-0.9233089986187065,-0.9359589256540821,-0.9434188339598312,-0.9529925503608154,-0.9629431072651329,-0.9720601486692388,-0.980720068490581,-0.9864904815485036,-0.9845449805407571,-0.9749245495136185,-0.9670182575397781,-0.9707176715240914,-0.9823697664674936,-0.9871476433458721,-0.9741837202600103,-0.9510541587670543,-0.9264528887301943,-0.9007892203551364,-0.8655414575521162,-0.8101551021433139,-0.7312940629288016,-0.6409945398094595,-0.5576426229730116,-0.4847088101853459,-0.4122573175763197,-0.31982808615961694,-0.19340067776346023,-0.025882395519147925,0.17700265441238086,0.3791183446425016,0.5245408863330604,0.618703784976054,0.6928037751535976,0.7667026297289586,0.8386152821802935,0.896170465239754,0.9341321903810745,0.95000497262541,0.945320013724844,0.9279527745199817,0.9128241535837122,0.911452233800441,0.9206102960099176,0.9353213010778472,0.9511433948081178,0.9657043732977436,0.9767811696301009,0.984120300572211,0.9885197683212807,0.9900425529300458,0.9893237314338967,0.986782940445843,0.9835177656027859,0.9779728151536039,0.9688354293365073,0.9551081428352409,0.9351418982334267,0.9081725312989715,0.8793319443952832,0.8457474921297621,0.8045180388809996,0.7315662978677581,0.5702194739154537,0.2876963512799899,-0.021870892201546265,-0.24863696148937336,-0.3689174566566959,-0.4001081277342448,-0.3794038700590087,-0.3458493378411739,-0.345674461010363,-0.4010892420569767,-0.5072975061945898,-0.6285542524678132,-0.7342848764776234,-0.8152368421539747,-0.876671644301232,-0.9220176771621165,-0.9505444210339603,-0.965983406339527,-0.9747364709328845,-0.9806956350310442,-0.9853422362401285,-0.9878024753540793,-0.989462883767474,-0.9914009317366053,-0.9922331996093835,-0.9906539996111293,-0.9867354143353925,-0.9838870692487274,-0.9834030671224053,-0.9835891794260375,-0.9832767785230995,-0.9831099139225091,-0.982615448972681,-0.9795573705950812,-0.9707904680729478,-0.9573980568549104,-0.9446546110572732,-0.9354682079009413,-0.9226057437488824,-0.896387064445107,-0.8559764170791984,-0.8023398261686726,-0.7354542819381027,-0.6549163872006996,-0.5311781359760835,-0.3096697717915149,0.029995634917967057,0.354356713235692,0.5778942311513598,0.7241430884089757,0.8252976743234892,0.8928597584810654,0.9313394667380195,0.950608692778858,0.9617656705603292,0.970723439409816,0.977731130210977,0.9823152634727181,0.9827049927675706,0.9807048002369205,0.9786987771062803,0.9784855724008753,0.9809466750763318,0.9856758308350037,0.9908940854750636,0.993855301010123,0.9941293695224708,0.9924176935567947,0.9904302800393117,0.9893248986367539,0.9891188293376799,0.9878574588935416,0.9860342163845646,0.9846697104604002,0.9827555263537003,0.9768613312802367,0.9641745091123071,0.9409256384896494,0.8988887519991516,0.8188887428546642,0.6859357915424384,0.5231130644955657,0.35130610729573525,0.16105211413065723,-0.07612686666316772,-0.3549658736910365,-0.5909197208203629,-0.7310576224896942,-0.8173279522207685,-0.8773449642219959,-0.918590302902833,-0.9483004637829031,-0.9693098602308551,-0.9847402012403323,-0.9908791948554067,-0.9861208167231318,-0.9724896455865808,-0.9548562905794423,-0.9397707497601847,-0.9340049945452047,-0.9363814645664912,-0.9395460448421897,-0.9394375011251934,-0.9382931870545448,-0.9442876279379283,-0.9596565785160107,-0.9803231283139052,-0.9926949930386023,-0.9850855570809653,-0.9609121604039431,-0.9341326246949754,-0.9150652870484672,-0.9058764156736573,-0.9050551981836161,-0.9106014619223363,-0.9160752543914048,-0.9179580867889123,-0.9131048741419323,-0.8984815284374416,-0.8736777687735047,-0.8413836167808091,-0.7994912837274091,-0.7384807177526175,-0.6390918680299121,-0.45299830408372116,-0.09761589349922069,0.3762089626496435,0.6889868883856826,0.837052978943041,0.9150353369812633,0.958630543961524,0.9761245878228877,0.9709495355585008,0.9565584564192556,0.9500870886040006,0.9561149056979105,0.9685511624980238,0.9800882143648388,0.9872222519127928,0.9899881923948077,0.9906920133643052,0.9917047726930108,0.9935147668533657,0.9952277591941162,0.995703683373016,0.9941740730843011,0.9912199658005861,0.9883439610777733,0.9856055727147934,0.9824839904983137,0.9777769567966703,0.9706245113748778,0.9586950351831939,0.9406753621750467,0.9153575081222953,0.883099125471415,0.8414939853482613,0.7910767444022602,0.7296566382982022,0.6481475705422719,0.5342088725586022,0.3687739483636359,0.1042313066988427,-0.2401223287436815,-0.5509114632987073,-0.7529188600393275,-0.8544581147901458,-0.886696446829428,-0.8917062152906349,-0.9003840333965004,-0.9187545828927381,-0.9378182186247409,-0.9518337489351169,-0.9608720165822858,-0.9678607066435356,-0.9761533029672383,-0.9844058288316418,-0.9900852190469421,-0.9924038025296346,-0.9918129869195984,-0.9884349212667749,-0.983423629418763,-0.9794768821541985,-0.9785269471360784,-0.9803823618047292,-0.9834650802839695,-0.9837446713657204,-0.9791859776475137,-0.9740199932034882,-0.9745773132522894,-0.9808685571939618,-0.9866707808137033,-0.9838437641614471,-0.9748216877412976,-0.9632256927911756,-0.9344581832791508,-0.8630682550386478,-0.7651543172660211,-0.686872180942518,-0.6418523436795771,-0.6125319091900387,-0.45393558466209205,0.0018478787060510506,0.32357590630443583,0.5268803058773703,0.6846875501336896,0.7928552330527753,0.8442807298802991,0.8509302554750581,0.830322427150766,0.797796641670678,0.7690240867070132,0.7613964564737462,0.7863535309383637,0.8344900966294287,0.881898981993641,0.909503476535834,0.9227478795445351,0.9310912765931093,0.9377116514920817,0.9431588792372354,0.950293351771608,0.9612400837922022,0.9730492627198855,0.9806336474462819,0.9822646612725758,0.9788342183431883,0.9732003311506559,0.9702624299838871,0.9740005856519087,0.9786889962560308,0.9745615890752151,0.9615420179195185,0.940712858306795,0.9086285703932412,0.8691239396076196,0.8315482090166874,0.8075683754622378,0.7990741118199568,0.7955593645575724,0.7578340585193019,0.6998279023135197,0.6727252813836231,0.6810815089450968,0.691758809754183,0.6725524441924534,0.5978744652543143,0.4343173750281862,0.15010793146345672,-0.21671294582748607,-0.5198408512615607,-0.7090998016357876,-0.8137138097822171,-0.8757832770565723,-0.9153933564782742,-0.9387514333046668,-0.9512997933726989,-0.9591303796141245,-0.9653450190589692,-0.9683057154971025,-0.9691245041099876,-0.9709590463692905,-0.9759530318199022,-0.9828685241966008,-0.9889250866571451,-0.9925582463758333,-0.9937789575229752,-0.9935313543787258,-0.9924577450760516,-0.989318040783775,-0.9836870971711167,-0.975628468585566,-0.9637108996277695,-0.9493984431622603,-0.9339585737205518,-0.913034994088951,-0.8759761336162626,-0.8114047422713287,-0.7359037429920231,-0.6854398701763545,-0.664229432367384,-0.6618557812174964,-0.6606826557391471,-0.6146460105588606,-0.46873713464852995,-0.2204940975378243,0.0888348558051351,0.37966029524725864,0.5894355206858884,0.7285405438040157,0.8226460643932606,0.88082001733986,0.9097191933193655,0.9188995250001627,0.9183581328378115,0.9152360444784747,0.9134977864806765,0.9173288450223426,0.9218014152356004,0.9237781276476047,0.9255442400858339,0.9297005950731322,0.9357764945325947,0.9437618872976883,0.9532477124952442,0.9624654597859704,0.9686872231270482,0.9715862259349805,0.9723471852367841,0.9703981296258921,0.9676068596354405,0.966244712279224,0.9654255111817046,0.9609402516571001,0.9513700747837777,0.9339902631733804,0.9100329992633305,0.8840122155565201,0.8613684995341864,0.8328354823292693,0.772404798136274,0.6665425367412632,0.538739563350081,0.4242053195701172,0.3324613381780409,0.23483862609081496,0.11068555765668736,-0.049676982141406145,-0.21860900609679984,-0.37341540165912007,-0.5013654712303858,-0.6125267901363051,-0.7034806736458166,-0.7676786750175564,-0.8071054903410034,-0.8257439101251886,-0.8392267463671481,-0.8638947212639364,-0.9040201999223524,-0.943826765566802,-0.9584172327211646,-0.9510215882746863,-0.9416807039417081,-0.9404057054357653,-0.9478653618119357,-0.9602699556085954,-0.9709492430380083,-0.9771654963685793,-0.9780346160434054,-0.9633111154741273,-0.9130455261095254,-0.8285832280542186,-0.7493977799716234,-0.7093166168086903,-0.7181684454896647,-0.7603655927532561,-0.8082478514647923,-0.8305927984064979,-0.8165264843302775,-0.7703000938719273,-0.6988868021343152,-0.6090719835110027,-0.5042052657516972,-0.38956010624265497,-0.2798887017089363,-0.15850952682823186,0.05697031185776946,0.37483988258579176,0.6448206920171203,0.7953692732016092,0.8687461647391342,0.907584633651744,0.928752290116419,0.9396226122966015,0.9432560015838468,0.9419040759434734,0.9364458170222509,0.9276768216409914,0.9228601067172512,0.9293361075386373,0.9398473435365021,0.9479093236836934,0.9534273728209987,0.960064808391952,0.969435049492769,0.9802698114566805,0.9883262569005931,0.9848541732226739,0.9631270460467652,0.9348853044114902,0.9258918444294388,0.9478036652518196,0.9718623904662061,0.9684218058109163,0.9496547673589122,0.9324898437741536,0.9216409174456687,0.9168643310383487,0.9096334436478251,0.8920496661977506,0.8586532702359266,0.8008251799296258,0.7246011385187565,0.6474173242800743,0.581530239108428,0.5058992110465079,0.37706174091508715,0.1641871248816369,-0.11863268361416517,-0.38673459510954766,-0.5728392984263667,-0.6884730957047179,-0.7542489052070617,-0.7740993721212505,-0.7668085780176874,-0.7697180845687918,-0.8055869876943338,-0.8641624535449721,-0.9194824087569108,-0.9535159990885971,-0.9704790104573423,-0.9773969141223208,-0.97817868402385,-0.9758756514733505,-0.9727531065411835,-0.9726824688223159,-0.9756162128616449,-0.9782558623104584,-0.9793262020021934,-0.9792352244024808,-0.9788999906710856,-0.9779353965172597,-0.9756345575433307,-0.9727367920403294,-0.9700848751241521,-0.9682175661198515,-0.9675073221072331,-0.9660127265536269,-0.961098005409713,-0.9484807277007617,-0.9025372721472849,-0.7708168178024656,-0.49747533369171426,-0.16757698386324524,0.08597364127127737,0.28204774831631785,0.45960798782763523,0.6240729439685577,0.7613343220106863,0.8577904880272923,0.9148863500744052,0.94141657504125,0.9467165948666629,0.9426682723273784,0.9373807094420306,0.9383279395686143,0.9485603421430027,0.9625004868822528,0.971840400735233,0.9737527172409061,0.9737186982445896,0.9755866709055174,0.9786697718307574,0.980825741593685,0.9822068403941115,0.9821455497152091,0.9757610427430221,0.9604967585178763,0.944079181218228,0.9335806319722869,0.9316547204255674,0.9376779204039591,0.9453975580550245,0.9498524848583907,0.9538692318705291,0.9559845666969122,0.9416729372228632,0.9007380682435763,0.8423608195611298,0.7820816057832617,0.7170399212951792,0.6235998215912885,0.47698248325666204,0.23848541457230663,-0.052083455285254036,-0.3123018660723987,-0.49412338322253463,-0.6068507038436863,-0.686897502532933,-0.7526991799387815,-0.8148647303906287,-0.8771002427625109,-0.9319889083778362,-0.9660054261465474,-0.9802750903884339,-0.9861216066453798,-0.9902329843027868,-0.9920620780251156,-0.9915936461774311,-0.9896303073877255,-0.9881215249590329,-0.9867606983164475,-0.9852255486991616,-0.9835772488646545,-0.9823849000628365,-0.982506344473373,-0.9853937624340311,-0.9902431234490903,-0.9947764053914636,-0.9974638812421522,-0.9978893465942639,-0.9961231267081833,-0.9918939760451018,-0.9834719382980625,-0.9665275086922178,-0.9330792829258721,-0.8788399520748071,-0.8212704600681083,-0.7873831645422381,-0.7676140547452949,-0.726964744611833,-0.5863247880698553,-0.27352601873463495,0.0586226961849914,0.30913807504244384,0.5239521664799366,0.7165498232114845,0.8596343478801008,0.9291431309108961,0.9457472994230585,0.9438633476197809,0.9443913967881966,0.9491298073010488,0.9541027261602668,0.9559743321808548,0.9566388880098217,0.959480147664522,0.9646191390985415,0.9720260166112412,0.9784462915513206,0.9807749847391248,0.9799555259507631,0.9793025833789019,0.9806229474800203,0.9827072802480449,0.9831243290014814,0.9811545561937461,0.9778330308283644,0.9752156794091692,0.9758424771762144,0.9805221882742529,0.9848766165918377,0.9848764209107437,0.9830241366865061,0.9799166931876048,0.9714523875816579,0.9570453873890828,0.9391756439631163,0.9157963504322245,0.8753793010981715,0.8125088365958301,0.7388257518003334,0.6645328271202485,0.5914267382785725,0.49753550523310147,0.2580718475787827,-0.20024783032798943,-0.5475687071803857,-0.6823255825099707,-0.7310982244710639,-0.7544184399237492,-0.7683964325818357,-0.7753925038783631,-0.7809169001127654,-0.7935722761940056,-0.817217173923421,-0.8435385878688455,-0.8678480373209455,-0.8827713249699989,-0.8943081793913319,-0.907604803756672,-0.9258334824438818,-0.9441775957766055,-0.9594834985204675,-0.9722219531864177,-0.9810960582544946,-0.9865757134236,-0.9904336231716239,-0.9936526621219703,-0.9952460119926521,-0.994834097050547,-0.9933060448866621,-0.9918898363643721,-0.991379028706434,-0.991101645203789,-0.9907428387040595,-0.989288037997796,-0.9865638952056202,-0.9821474139656633,-0.9745767597406175,-0.9603401683385474,-0.9313359344617418,-0.8775871357192736,-0.789137879904353,-0.6419083484811434,-0.4018530274376086,-0.09587405614265848,0.18346969555389808,0.39175211785126485,0.5403487294025986,0.64362870504289,0.7155440896634565,0.767289123545532,0.8045965679766419,0.8337115883676868,0.8577059149126454,0.8728734576555605,0.8769632201847345,0.8750226426943308,0.8782609144273219,0.8931098541040369,0.9155306344683916,0.9366738645262759,0.9516985737916644,0.9611220354370731,0.9681289607874755,0.9758111061825817,0.9827171977032353,0.9807122833340167,0.9634104612607182,0.940211052598213,0.9287214629600324,0.9359867503237413,0.9492528296255657,0.9539529197306547,0.9500579082301023,0.9412248318047144,0.9281429988925951,0.9083189213175471,0.8814705050441977,0.85542775379067,0.8423995812879556,0.8421745941077721,0.7720861739468878,0.5436473372955092,0.2951991098416308,0.08155857609226637,-0.13398404687559187,-0.36377525806152033,-0.576982258220745,-0.7351943388219512,-0.8347516263019823,-0.8873768022699644,-0.9152488908217516,-0.9341973647325967,-0.9499665445937132,-0.9608833972512096,-0.964546794432797,-0.9598383139372748,-0.9520094153756968,-0.9467790469987466,-0.9464561352085062,-0.9493266197130046,-0.9525469816099031,-0.9553387166428984,-0.959731007227462,-0.9668512752080224,-0.975009326270863,-0.9818072780829312,-0.9858815845299355,-0.9876725307719791,-0.9884838191661244,-0.9893445525893154,-0.9915833431854658,-0.9934981411548254,-0.9896181891763466,-0.9803357133681646,-0.9739182937669341,-0.9701290598044896,-0.9441585503563458,-0.8619182505588079,-0.7359331388069189,-0.6140286648289883,-0.5145044613358579,-0.395908618310346,-0.1252199615958683,0.3371969580185578,0.6350356129178124,0.7746317699874329,0.8457291776682909,0.875894531926687,0.8816257990491181,0.8747767382981808,0.8697390298180042,0.8813319492011306,0.9072686056405326,0.9361111770998809,0.9595601424337377,0.9760834221211434,0.9867079648291884,0.9922038221634527,0.9939722796797325,0.9930471029699922,0.9892335505688434,0.9821592292560868,0.9731090647201761,0.9642730371459844,0.9575080017959814,0.9528853351335381,0.9490073584999348,0.9446677323968143,0.9382297242627071,0.929799061636841,0.9169925514048232,0.9017158377098612,0.888067310523771,0.8844650798518567,0.8927647564349935,0.9088755805079,0.9116509874112558,0.8555480823282684,0.6490866654256262,0.26206439688830885,-0.10108560956416983,-0.34373297829842053,-0.5155906556784505,-0.6430888772487489,-0.7360027712911785,-0.7981770771132667,-0.8319518196407912,-0.8448977191854795,-0.8515682496603291,-0.867970263839526,-0.897509778053701,-0.931414849443023,-0.9623292902493826,-0.9851387894401158,-0.9945457683001135,-0.9900752255786346,-0.9808199389390565,-0.9767145078660684,-0.9799835145174404,-0.9861563340051165,-0.9907746074154575,-0.9922579604321713,-0.991475371038163,-0.9909578345067228,-0.99112338551863,-0.9902163084148364,-0.9874712997146622,-0.9818270344085132,-0.9730549479642712,-0.9627404314604306,-0.9512480187327806,-0.9304624381657025,-0.8680739430816156,-0.6549733176061985,-0.07906200302565473,0.522424058093618,0.7998475756411632,0.8754113827712054,0.7613436994160353,0.6199374613250163,0.5378552790526869,0.5218425240893213,0.5805711900930709,0.6877337213560216,0.7828533225710896,0.8447100638130963,0.8779097558921247,0.8850858092083094,0.8770367963664916,0.870632942430874,0.8765996771399155,0.8885767683779761,0.9030026547912257,0.9158640172748844,0.9212182232801178,0.9138699323490631,0.892229307770721,0.8636047379763521,0.8445935569661549,0.8457285580033549,0.868589024802246,0.9036977592590898,0.9355013338619164,0.955038638717045,0.9633957509307827,0.9678058495974317,0.9708001784398436,0.9739581265475374,0.9787272659999158,0.9807350714485533,0.9788247289303832,0.9770449202695651,0.9763376976158744,0.9767454561832912,0.9745680968964177,0.9666515718689271,0.9541954650281579,0.9401217081776255,0.9242426066233429,0.9049570371501177,0.883886347345188,0.8670266069181072,0.8509809022388031,0.8220254545761728,0.7640515294250253,0.6648775225327584,0.4980151233401901,0.23712364459593713,-0.08212063865355484,-0.3808662335159698,-0.6100237197197833,-0.758348272085061,-0.842466771651474,-0.8955796141632205,-0.9348830649710377,-0.9597793698450475,-0.9681646764437463,-0.9661308816161084,-0.9635396440554108,-0.966705022418843,-0.9747667362314016,-0.9790690253076686,-0.9723553273968204,-0.9577152672576922,-0.9497273451748148,-0.9600451451244996,-0.9796017626869717,-0.9888749321483848,-0.9835137264647049,-0.9741738133703564,-0.968467152086038,-0.9681077461447132,-0.972905036820443,-0.979379488076928,-0.9800833684118117,-0.9711176280335092,-0.9518234353602352,-0.9178162024153076,-0.8588793435284617,-0.767916593866806,-0.6472239322193715,-0.4736575168484201,-0.22085719406141355,0.08389427491666526,0.3423390528718464,0.5185714855582475,0.6355521413672183,0.7212283787473887,0.7865934285613428,0.8328267820998448,0.86638015839295,0.8886600249231142,0.9009276544069377,0.9088328278584951,0.9188862944707255,0.9309854041028862,0.9428927913715989,0.95725951013212,0.9713258290072347,0.9816979021739081,0.9874279467529753,0.9904662706564322,0.992093910573768,0.9901115411819618,0.9834812687925817,0.9756784859439769,0.9700656483465692,0.9678535853486795,0.9666014545572826,0.95514517345666,0.9277776282987173,0.9024246091776897,0.9017026384522115,0.9239763210325923,0.9505336428612271,0.9604083493150362,0.9412204760608542,0.8902026249119163,0.8099288384726894,0.7007135081830286,0.5614970977390258,0.3851847894581907,0.16157733043970451,-0.1058262162477628,-0.37385691630498724,-0.5800764326291609,-0.7098128623618086,-0.7754907260042281,-0.8040917191853711,-0.8121331177362765,-0.8046596292556767,-0.7910759796724147,-0.7901914810035096,-0.8135463582972354,-0.8590745554828653,-0.910997149543545,-0.9509791558797708,-0.9726669812735097,-0.9816108533712443,-0.9863039408777703,-0.9890162415926461,-0.9885836556921617,-0.9834934874436982,-0.9748299442432649,-0.9666440654562782,-0.9624183222824283,-0.9613722504697703,-0.9595968490254337,-0.9551056078998993,-0.9493626670586337,-0.94649911842496,-0.9496626874072229,-0.9570930067590737,-0.9615669923462972,-0.9558097577859699,-0.9399653241459495,-0.9121151341845222,-0.8550064068339598,-0.7435061611181691,-0.5556408298705626,-0.3344324980943587,-0.14337280219865392,0.011214347554356704,0.153886466430814,0.3077519364364874,0.47114551275193367,0.6212614364863042,0.7365151307234145,0.8097047027184204,0.855328332424321,0.8857008727411888,0.9070741460162013,0.9218464525769918,0.9332346769704806,0.9423363896983638,0.9463310451453698,0.9450028956049427,0.944809498526569,0.9495068984916266,0.9572643111760708,0.9617230703825573,0.9601532202544749,0.9570425810537305,0.9555724738157951,0.9546817233414535,0.9542356827841388,0.9542527807268031,0.9548399474064236,0.9520690976873474,0.9413368039718134,0.9212908649640558,0.8966213988565935,0.8734254938806945,0.8569192800855937,0.8439316450351186,0.8270078963384243,0.798391642963145,0.7605467127070497,0.7086238795260804,0.6370347589707595,0.5425054398249138,0.4130536851204286,0.23130379489789857,-0.00453836653603221,-0.22187902954757271,-0.3902343646712245,-0.5212905870764645,-0.6454721301497207,-0.7747190079805346,-0.8800366777390092,-0.9180003771366257,-0.901096552412899,-0.8696715841495724,-0.8539590167743677,-0.8639767749328519,-0.8932137509692681,-0.9282821092959774,-0.9521620388453972,-0.9576553631201948,-0.9513538532692729,-0.9435963981086428,-0.9409365423929962,-0.9455987158262615,-0.9566385445040513,-0.9695902190598708,-0.9785721362838823,-0.9823783831399556,-0.9797647796893835,-0.9678241350413458,-0.9421071439764678,-0.9050506640630258,-0.8700867982942568,-0.8478630355984312,-0.8385781953077123,-0.8392832285317672,-0.8451403138324298,-0.8441867737092129,-0.8207575621906358,-0.7464710548354608,-0.5975525734055755,-0.39222052109108274,-0.1821473721658333,0.022545735052010806,0.2482348544408544,0.47037151904105956,0.6050227298710952,0.6633299903656322,0.6990529864922579,0.7437121688565114,0.7996130837210594,0.8569737462160453,0.9010053817990141,0.9311218531613078,0.9517967394514405,0.9590134128347367,0.9529059603727332,0.9414313050537332,0.9366188916650614,0.9401962125304458,0.9480504719352008,0.9582278581799181,0.9679743894068733,0.9748923852608341,0.978576749214656,0.9812824028852243,0.9844822636700776,0.985816030003745,0.9817999749630769,0.9706867926884128,0.9590785453824114,0.9564559170351317,0.9616517225109711,0.9666059136663018,0.9667295879463694,0.9613111907116088,0.9529780395655877,0.9432156693119873,0.9335134485554178,0.9190403503408114,0.8894675852882439,0.8272103303433562,0.7067221223188069,0.487144717768649,0.12888082022473052,-0.25580207532904753,-0.5112352768707155,-0.6468217548554924,-0.7235462710020932,-0.7732138442421179,-0.8074553630727423,-0.8337516500630013,-0.8587398806524725,-0.8869011207329458,-0.9184214780650523,-0.9470834489872058,-0.964161743521076,-0.9718054960962866,-0.9772743935289341,-0.9819220360098945,-0.9855133688713447,-0.9877098598514236,-0.9897432452018842,-0.9923776942600616,-0.9946771211710482,-0.9941574957159043,-0.9888377125355539,-0.9786975562564024,-0.9668968472729089,-0.9595878840521392,-0.9618257844230124,-0.9724184448223457,-0.9822822252317613,-0.9823830640204592,-0.9711789196975875,-0.955038348601722,-0.9372888697978585,-0.918071408276721,-0.8968021159168813,-0.8722822746050386,-0.8369028195642425,-0.771129624059765,-0.6374839500599295,-0.43206362641119106,-0.23011116292209852,-0.09869491355784864,-0.028009810652171323,0.018781889962518082,0.06886106482023169,0.12894799299039383,0.19874588438435442,0.27835588199830547,0.3749460815120853,0.49529610234869603,0.6423250834026639,0.7847474568332092,0.8847952620025747,0.9410536784641623,0.9686950919034935,0.9799178694869582,0.9812102580271836,0.9770844824951425,0.9715264447946447,0.967238905635004,0.9659866097768365,0.9681632649513905,0.9728315836876065,0.975741929201935,0.9735563759004107,0.9661223824757085,0.9564916569334762,0.9495198859874204,0.9479298476051817,0.9504227679594297,0.9532984459782077,0.9533641989160754,0.9505704455198554,0.9472130821325423,0.9431102295469178,0.9306463394626785,0.896820245958482,0.8142715918077901,0.621739555628619,0.266980918066514,-0.13437808944191626,-0.42733877862956116,-0.5935822570668319,-0.6867030293683497,-0.7434778856147048,-0.7821474822854432,-0.8129855043654461,-0.8411229742667743,-0.8674541024509158,-0.8938530952519134,-0.918572334892302,-0.9378568416185626,-0.9496288176408522,-0.9581390965563328,-0.9672563264689625,-0.9770291513675654,-0.9859426463348536,-0.9922146392086771,-0.9953192746341979,-0.995173762016874,-0.9931195863031332,-0.9903010201926712,-0.9860295336623687,-0.9794475698770346,-0.9721732503780225,-0.9683414089371521,-0.9712778319766033,-0.9755151023096837,-0.9732211706759905,-0.9638212396450689,-0.9547691107806152,-0.9493590309498335,-0.9444205690311873,-0.936028022475389,-0.9184969899159902,-0.8859422337908862,-0.8301558867158556,-0.7286440008066001,-0.5571101531159164,-0.33913223902708517,-0.12840470700468587,0.08443469793215858,0.3031287490435498,0.48760142751071556,0.6283640946936071,0.7347110699298137,0.8046741371352897,0.8473746590427919,0.8731826321305717,0.8912124670347616,0.9039473492459428,0.913594845520911,0.920145042822483,0.9260404623733177,0.9349230790328318,0.9458368495831944,0.9577647592723675,0.9700632058777034,0.9803876621349362,0.9877324201233556,0.9922234990140579,0.9937040342851872,0.9923727041417488,0.9892226801009657,0.9862582501044359,0.9852802712268564,0.9862766046440494,0.9872780725869763,0.9875698486135952,0.9855195570361357,0.9780896326713211,0.9677089444043774,0.958632712852172,0.9513238421190474,0.9415638520081497,0.9199252318743815,0.8849120433593,0.83945275729247,0.7804941435835463,0.6721596427517924,0.4673713037230577,0.14430463891015063,-0.1789550013166963,-0.41848775716130565,-0.5715699404001754,-0.6523834870971077,-0.6894983927942903,-0.7218530924736638,-0.7639485662353094,-0.8086927619354429,-0.8436763142544229,-0.8699463551423244,-0.8904050772005265,-0.9049062792102004,-0.9185842053771086,-0.9335841159242385,-0.9489191742539955,-0.9630037814171467,-0.9759079818974155,-0.9864060654657594,-0.9935317945574941,-0.9968430789867739,-0.9971053756048188,-0.9956194278574724,-0.9943146468637072,-0.9933496528893024,-0.9925814509936888,-0.9912475796257318,-0.9882970619629174,-0.9835654321255413,-0.9765173220601544,-0.9672246080797346,-0.9589263427632911,-0.9494328891367637,-0.930395951991758,-0.8900225957430328,-0.820148234656426,-0.7118627279188277,-0.548257246599979,-0.2877860454458909,0.058205189697004736,0.34877360215152114,0.5377779791511443,0.664180336583597,0.7561124122045881,0.8188015309026911,0.8593507577453403,0.8872099989636538,0.9092021739416019,0.9266129738196968,0.9412852888854053,0.9548502142538345,0.9669375668558252,0.976039031968055,0.9801452454225751,0.9785786480225903,0.9732440077914843,0.9679102064209573,0.9645168342485029,0.9650379385340955,0.9703669211999816,0.9759553484162922,0.9774495991940251,0.9763756229987932,0.9748654554103604,0.9738172749212559,0.9703810995223574,0.9629058583725296,0.9525587515061951,0.9424931342615148,0.9364197637382952,0.9345921314600302,0.9278006068695872,0.908247777068268,0.8691280363184111,0.7915853861749897,0.6076707112186278,0.32713137472776227,0.08364915112083397,-0.13010477443298343,-0.3603040384497846,-0.5879968814692326,-0.7476029628446195,-0.8205821024808811,-0.8423273527354335,-0.8441629161114844,-0.8405219282108845,-0.8353099075772219,-0.8407598666022696,-0.8577583255329265,-0.877818823898013,-0.8951536753571346,-0.9110926945765604,-0.9246286171794862,-0.9333630937649383,-0.9377320035023483,-0.9452259724607466,-0.9584880279323809,-0.9719816724379678,-0.9817788581577039,-0.9865773799697088,-0.9873463992254338,-0.984692891546334,-0.9806717146837564,-0.9785615009744372,-0.9784026288660829,-0.9789421064509459,-0.9802726783225407,-0.9819118410318943,-0.9834762265408903,-0.9846466171301576,-0.9844209266513188,-0.98183953392229,-0.9744985822392167,-0.9568676223328213,-0.9053108066783643,-0.7120922047159057,-0.18474237712165806,0.30125014716619725,0.49826813780684087,0.5834106483222703,0.651861749691626,0.7310814672971099,0.8089075205142598,0.8704153796780563,0.9118318766652879,0.940499456231579,0.9624434685131894,0.9780127736105294,0.9882416056628903,0.9936034404147805,0.9913390615862605,0.9801385398474912,0.9648429307010881,0.9523182890505921,0.9399468511565536,0.9193169050868423,0.8842239330245497,0.8346451363585842,0.7815192130875618,0.7425093213184162,0.7364013826044659,0.7742588907215535,0.8508602678714025,0.9252453176866569,0.9459877755167498,0.9221996802274322,0.8945439143447723,0.8823782143885764,0.8855221173267239,0.8867460366783588,0.8552194754819576,0.7654181479120156,0.6055574133760244,0.38743258740603354,0.1524029749647322,-0.06400462153395996,-0.23265927197891512,-0.3300102950870311,-0.3773221287923678,-0.42126339344199415,-0.5042586608113084,-0.6492375143232022,-0.836474095279965,-0.9603134743314633,-0.9632440998465027,-0.9192498025384863,-0.8874031634077737,-0.8826917164120899,-0.9026555601229241,-0.9301921036200986,-0.9059708023309518,-0.7798211994176992,-0.6643687695558819,-0.6668998215825857,-0.7696418488642756,-0.8350982576351851,-0.8091945374754825,-0.7573358472925391,-0.7064265596475998,-0.6614699101240511,-0.6292980886467326,-0.615855123981753,-0.630392536072152,-0.6813513706308392,-0.7791292063170792,-0.8109067147329866,-0.697558599924698,-0.6089092779820483,-0.5885847429653704,-0.6394444792409474,-0.7291966754083269,-0.8081243645900755,-0.8582056428864275,-0.8814650525553326,-0.8840750405025327,-0.864374324096516,-0.8244931715663074,-0.7675285941382156,-0.6829490602668586,-0.5469080262743262,-0.32227824146865264,0.050122852671373876,0.48724382576518743,0.7108038792599922,0.7822812260849112,0.8212639045054116,0.8630950752914665,0.8981542367648936,0.8896810555363439,0.8259153072684167,0.7546259371628063,0.7235683620978444,0.7389833416650525,0.7804384693748283,0.8171964119691663,0.8412257649906236,0.861922042998609,0.885198743837073,0.9080048645884466,0.92774172220404,0.9392450155268357,0.944550860765121,0.9458389775361737,0.9440233872739148,0.9414029645484734,0.9369666321683903,0.9281153261683402,0.9155077473153582,0.9006012785584824,0.8879699941044401,0.8815003329935643,0.8777735551374367,0.8798548721003872,0.8886515145514434,0.902653731684547,0.8983890422485639,0.8340170558632708,0.7127656600701631,0.5936618995614827,0.48656964429320754,0.343406504548152,0.11863622267928568,-0.16624828900416028,-0.4249657344105445,-0.6267708686169443,-0.7722536227589397,-0.8587933024550385,-0.8982136309030674,-0.9075348260616118,-0.9030213892534475,-0.9023041225529294,-0.9097312583762528,-0.9246667540517484,-0.9417524122957179,-0.953955855327916,-0.9605459480282772,-0.9642859941429613,-0.9672775261844316,-0.9715029728319108,-0.9782684773621828,-0.9859921345490675,-0.9926859104388227,-0.9963195509822153,-0.9960730669867156,-0.9927981555511902,-0.9875044017270195,-0.981314126754768,-0.9761530965397659,-0.97467720170131,-0.9770630183395405,-0.9794840224917044,-0.9752254213891971,-0.9589455162764084,-0.9273462030998835,-0.8795271391846606,-0.8036190424681022,-0.6710119646656025,-0.4429750757004704,-0.11674265826650555,0.24033775735464732,0.5152906395990299,0.6864058285519675,0.7982227320672347,0.869079475198891,0.911595221686181,0.9357571561971643,0.9477589636979783,0.9530560955459346,0.9551379479267191,0.9565687771026958,0.9575117000772742,0.9580785105892252,0.9593775325286852,0.9615038905087033,0.9658484156029771,0.9722651690797104,0.9790659521571295,0.9842422732180103,0.9874392440412466,0.9878147005021796,0.9839779855719695,0.9773172964539949,0.9729229387736191,0.973204952315665,0.9757692863233072,0.9783407079403784,0.9806543210067112,0.9820144083408519,0.9803909858642385,0.9735760465495373,0.9599062378648927,0.9400996906824537,0.9094563319853313,0.8675212091545821,0.8254428830934818,0.7864041935919324,0.7284800719145201,0.6150372512419217,0.38669893146949996,0.015055432786323968,-0.39220353359417787,-0.6739043173099639,-0.8212237597586481,-0.8920027567965122,-0.9258009744980343,-0.9418899267311167,-0.9481826220597515,-0.9509450630110231,-0.9546926500637338,-0.9602400583087488,-0.9660632000345314,-0.9701858944726918,-0.9733749885331662,-0.976284443348623,-0.9787007042020239,-0.9814731367773294,-0.986751752710197,-0.9929083721782975,-0.9966168605538004,-0.9964047631925181,-0.9940223114648754,-0.9913163443021202,-0.9878095002988694,-0.9834616147975181,-0.9789411381040679,-0.9756681410949608,-0.9746278737627464,-0.9751368177422596,-0.9772000096130036,-0.980133726148591,-0.9818640884713714,-0.9795525895936729,-0.9725010940852618,-0.9542314825077923,-0.9102447116295568,-0.8206965838389897,-0.6658786096005145,-0.41429076729622105,0.0022061993892767257,0.44292781756989813,0.6869387264224619,0.7915945268050373,0.8371687489377325,0.8649602712446721,0.888762625694046,0.9049094365786359,0.9146966913621964,0.9227415557453351,0.9302350394010866,0.93994021204315,0.9508603042627141,0.9618537023780513,0.969834621839734,0.973749397356505,0.9755670129256089,0.977583909403543,0.9817491050257693,0.9863390062488067,0.9877763067523537,0.9845103898966958,0.9789218842277095,0.9746762297163193,0.9739976044727844,0.9751833619386149,0.9763109729215661,0.9770149468944797,0.9741331681368613,0.9559015485965952,0.9224370548309476,0.8868005561053741,0.8454255911403563,0.7895561725278493,0.7221454053970221,0.6492682525803638,0.5772225549419827,0.5039977520496457,0.37098300202059115,0.17162846041048713,-0.030443431744057274,-0.23545486813893085,-0.45515427714421813,-0.667736535086697,-0.817388039185147,-0.8936134468403871,-0.9233377506534423,-0.9270294075728077,-0.9205857769263572,-0.9215158547488604,-0.9362283818319026,-0.9582351240494854,-0.9772236447176926,-0.9870553236039673,-0.9865713602788181,-0.9789405543963349,-0.9713479697480947,-0.9692137632357558,-0.9731580163426986,-0.9801013459552491,-0.9859944917156795,-0.9886810394955186,-0.9884060442897433,-0.9859982416259679,-0.9837090659430069,-0.9828074558094912,-0.9817663382386541,-0.9794370122941287,-0.9752684889739401,-0.9689796888811913,-0.9619765701242223,-0.9544985126199759,-0.9518059596714086,-0.9569081364082076,-0.9657023420639188,-0.9661980052148379,-0.9394685435468799,-0.8687533047399622,-0.7334301764422505,-0.4600895359461917,-0.0017680683768132835,0.35030850395130286,0.5322772013660625,0.6430115191157586,0.7375460927532699,0.8194591296682848,0.880571962029081,0.9184901376573884,0.9408777950754528,0.9568336481035622,0.9687516019890773,0.975373927952377,0.9784207924257268,0.9816009281784529,0.987286333138028,0.9929784924086871,0.9949359078430349,0.9939607947361593,0.9919587105595049,0.9895329408530782,0.986812297764058,0.9853052193494718,0.9859970726029154,0.9879747756765673,0.9893445215325221,0.9876898893097541,0.9790917695518871,0.9623127450118059,0.9456991588668253,0.94289594341598,0.9559014515664459,0.939743530166567,0.859469944609812,0.7645566005306733,0.6886776476900413,0.6115825372012976,0.478343994659144,0.24751641073457156,0.02786037007048502,-0.08365080572119835,-0.14663576242333004,-0.25831388444492753,-0.4855420392431408,-0.702021969305017,-0.7939119843540046,-0.8269909639233672,-0.8418420482816906,-0.8496149959037951,-0.8556823566660444,-0.8642816935963419,-0.8804528956572578,-0.9045212321759891,-0.9266621236347519,-0.9412820451258435,-0.948598446584018,-0.9507507270051407,-0.9518756824471998,-0.9542089861830715,-0.9593437772534635,-0.9671049592912397,-0.9746142316128471,-0.9779698167375864,-0.977313095942935,-0.9738352306034175,-0.97058637899974,-0.9701209340995715,-0.9726935980155726,-0.976259763267956,-0.9792833927049494,-0.9818910971484146,-0.9828678492689922,-0.980065450552954,-0.9695528013699585,-0.9476296664186091,-0.9052474949040029,-0.8302711659937282,-0.7307173367210781,-0.6232882162643241,-0.5104671606463779,-0.37654310274241326,-0.20583124441441497,-0.00018695216587022673,0.22514453934835227,0.4231453406918958,0.5630338294224259,0.6669084932240836,0.7563466604907927,0.8315113171737263,0.8859596007992139,0.9230122919753533,0.945887375990812,0.9598996646782857,0.9675405634760886,0.9693370645140951,0.9678364345254129,0.9681007833694689,0.9726011408214836,0.9787366525878755,0.9839724546616394,0.9876992803138135,0.9893576627161665,0.9895027503702295,0.9893458219511229,0.9891932539043535,0.9870061725042023,0.9800582940375456,0.9692596229329183,0.9607875199773454,0.9625000621163334,0.973311065455107,0.9716247308216124,0.9336985687777154,0.8741556540926476,0.8270925283442481,0.8051618344976943,0.8066079376163087,0.8170392320739678,0.8216681181535224,0.808341569352772,0.7525759365690766,0.6110500847359567,0.3677793210021445,0.12458715359481398,-0.05954714776773602,-0.23062379461974508,-0.46382729888065743,-0.7291643078789979,-0.8680963108633343,-0.8768518246371504,-0.8573658313426972,-0.8517045704255806,-0.8664902140250975,-0.8911876333102042,-0.9156197922773343,-0.9344737117808088,-0.9475654106577479,-0.9574758436608307,-0.9666741367603864,-0.9755150060284254,-0.983529591870301,-0.9892972938954858,-0.9925110557258069,-0.9939052138029445,-0.9934722343877007,-0.9907612672679925,-0.9861097238685274,-0.9806528418616088,-0.9742361441832714,-0.9679494780912514,-0.9639621563362134,-0.9614227052346702,-0.9588778840823604,-0.9541028350429388,-0.9476108053775381,-0.9369248171147879,-0.9172670978213657,-0.882538468079096,-0.8179248544123943,-0.7156636504113503,-0.5831240546658485,-0.426056260016132,-0.22128697384128138,0.07566176490538402,0.4125232064682097,0.6715095138838819,0.8278259962872703,0.9126885298718153,0.9516892215337059,0.9688465026706313,0.9792089919370078,0.9835291248376745,0.9737031353020655,0.9439625361820301,0.901397397336521,0.8620644466311983,0.8413633206085877,0.8466902253918684,0.8761929711536367,0.9182240260215246,0.9572295074889084,0.9802310601827234,0.9867970212236934,0.9846383728385837,0.9811980945239469,0.9782402098543487,0.9750838849317484,0.9708875794982378,0.9689413180502595,0.9705664494289955,0.9682955453429747,0.9541531481885728,0.9317103589161218,0.9146736132694304,0.9104474294582505,0.9114743117686819,0.8919203919554407,0.8141275115109423,0.6709647415479171,0.49396308954112367,0.3152543550855585,0.14062013091646564,-0.04440955309729282,-0.2623739827108376,-0.5154831822517201,-0.7251762061629128,-0.8058366535565372,-0.7924889310069219,-0.7779162733456466,-0.8087030131629163,-0.8669413808818891,-0.9166687239924088,-0.9473589954441737,-0.9620561237691553,-0.9651174433971895,-0.9575118980679079,-0.9435749656526878,-0.9335616048967332,-0.9351960346548126,-0.9471463667981095,-0.9612754026193895,-0.9718242205627133,-0.9788569914624172,-0.983295218548836,-0.9854933152079859,-0.9861974555595413,-0.987761223295659,-0.9899166216117178,-0.9895123224797511,-0.9817186504311585,-0.9659617346663715,-0.9499383348307399,-0.9465682633598665,-0.9349124165158981,-0.8194891339167178,-0.5901909737509219,-0.3569139709822139,-0.117961587137285,0.17631443825373602,0.47987059916226404,0.6619411861584438,0.673198507199075,0.6126082044570661,0.5852106563514794,0.6111028402956189,0.653331233276688,0.6853991408310761,0.7036060364142992,0.7163367266378613,0.7241550321472807,0.7292216307993691,0.7344793063248345,0.7359327801708868,0.7357107631053658,0.7458781996155516,0.7745710913670737,0.8180185143587831,0.8610176582497443,0.8922088699052498,0.9108163473896399,0.9215374221601662,0.9306838452532319,0.9423678749475342,0.9492703330184485,0.9371894519662151,0.9098705032392981,0.891206695503047,0.8950675793836547,0.9124451079926045,0.9187997373433155,0.8749957128174253,0.7817934220451873,0.7055006393318103,0.6804224306354946,0.6906121050967567,0.7109464525782061,0.7136465030495092,0.6566310951203489,0.504333897577579,0.3635902385968239,0.2727829902360193,0.15257672293848784,-0.030794627720005612,-0.25412669654628656,-0.48095906691969886,-0.6706519616364137,-0.7974946108312803,-0.8691453439191492,-0.9072942297778764,-0.9282031420878445,-0.9420811595966557,-0.953752987577774,-0.9636014285251735,-0.9692046137978443,-0.9682416715698384,-0.9650918914846536,-0.9633074498247723,-0.9621490136727294,-0.9660061219453321,-0.9761050815262448,-0.9851222589343372,-0.9900992702302408,-0.991838206410731,-0.991764892094787,-0.9899358804710222,-0.988118938220023,-0.9879950509461082,-0.9902437088672034,-0.9925090668246537,-0.9913385353189273,-0.9834643803939632,-0.9604140656007534,-0.9159955443984129,-0.863853640218825,-0.8304663724543758,-0.8303316372102872,-0.8443514650913096,-0.8476368976510906,-0.8159652805494461,-0.7258730310824156,-0.540014327604753,-0.24456496374322334,0.11764399213264799,0.4278894274659306,0.6373340987367804,0.7713149598878659,0.8592360646049642,0.9170636275450473,0.9519431924415175,0.9700192389378915,0.977477773011786,0.9779959122473818,0.9750013466844033,0.9726407696868282,0.9730677517434704,0.9760107914477031,0.9772460247625062,0.974356480928938,0.9705643057777524,0.9700308368763442,0.9737068537292443,0.9791223604469842,0.9837206738521866,0.9858268911438968,0.9847673567451201,0.9826385518211095,0.9822479396365419,0.9810452014244465,0.9752855721965753,0.965159630758325,0.9541104750550997,0.9470118409677283,0.9463583176316789,0.9496907434819905,0.9512613002176478,0.9458802733620215,0.9261000292533401,0.8737626071286366,0.7580741272607603,0.5474890512107924,0.23663617153972125,-0.14353750822386202,-0.5388790555566244,-0.7901103418001997,-0.8799790475966707,-0.9078751929082809,-0.9231729560536318,-0.9357035293610999,-0.9415597377256265,-0.9434018004090112,-0.9485077309102101,-0.9571161863935705,-0.9628927972032192,-0.9637750511337988,-0.9608904305084233,-0.9566585567808272,-0.9536655769325321,-0.9516885322932372,-0.9489276921822841,-0.9459582140769752,-0.9452642172042164,-0.9494542944836343,-0.9582205708374152,-0.9674313389508438,-0.9737598082942455,-0.9768934819670442,-0.9753948441086989,-0.9650560355883959,-0.9448745994941963,-0.9186113583492977,-0.8883253094849862,-0.8631214456094018,-0.8439323853226358,-0.8367005664814277,-0.8423471509672205,-0.8574525653258515,-0.8679321338690165,-0.8687246542805118,-0.8510691234662655,-0.8088918932593517,-0.7344870275804973,-0.6138619294491541,-0.4360435842009801,-0.2131142147576891,-0.005492673479893307,0.16735295832398886,0.2995971216431603,0.4092214838486565,0.5303675960777835,0.6537472716956276,0.7539803041471191,0.8282624206155931,0.8785535806965221,0.9124041273136198,0.9353740486939919,0.948009652383759,0.9534623222625183,0.9549679776597735,0.9560494685929256,0.959447265523862,0.9653679884543214,0.9724095983979983,0.9778844216372866,0.9794445410456192,0.9773782899554748,0.9732921283438443,0.9692287443820012,0.9661865606444263,0.963331722959754,0.9560388094061265,0.9449598408644915,0.9365033859109325,0.9389635022612173,0.9505793197737312,0.9620580243328093,0.9645720142112044,0.9536079514834594,0.92478293360852,0.872316681588113,0.7744985741974207,0.5371887265091061,-0.07350006359608154,-0.6116183204234299,-0.7839662704035175,-0.8483377511642195,-0.8799682595288665,-0.896547546941662,-0.9057671195881476,-0.9137889483272698,-0.9218525010081543,-0.9282569618381261,-0.9292712878571235,-0.9222406915579231,-0.9099320467387445,-0.8972478899340168,-0.8898056322328187,-0.8959157241164648,-0.9167607773136338,-0.9444484779564954,-0.9676182653785153,-0.977896346494648,-0.975896740206455,-0.9691801331311876,-0.963854862100599,-0.9635297926003439,-0.9669327606391318,-0.9691727239825573,-0.967610436531389,-0.9632625548819319,-0.9581155162678117,-0.9485379285175275,-0.9335992295738251,-0.9245008428265297,-0.9249538699115473,-0.9347003957976612,-0.9485373200292572,-0.958474531168752,-0.9599997323208812,-0.9541317877741482,-0.939860783428927,-0.9027484853120806,-0.7961683817845349,-0.538469102891454,-0.1983887634482355,0.06713966707113707,0.25812179792498513,0.40857156248779075,0.5323366193434701,0.6213800484629439,0.6794158835662615,0.7050449073072518,0.717078551117336,0.7386714561014417,0.7651733091150409,0.7927237347984943,0.8276836817854589,0.8649439424473806,0.9028915027354557,0.9358044957512538,0.9570143099475518,0.9645360788198701,0.9610597724943213,0.955283242068356,0.954574475202669,0.9578712977953251,0.9607208956920099,0.9608791164479754,0.9608621399077222,0.9629534517984732,0.96635037167008,0.9685141169653978,0.9685923368544759,0.9673142863006656,0.966157875754646,0.9647935957396322,0.963275537067652,0.9594050183939148,0.9438198528217183,0.8925128791600275,0.7770327800846412,0.6174683600013763,0.4478793181983246,0.2689369351260627,0.053640419151943536,-0.20531521324426064,-0.4520528850968349,-0.6089168428250685,-0.735747242738038,-0.8650381683285527,-0.9210091457987695,-0.8935914047608979,-0.870919128745715,-0.8875279188724767,-0.9331195283857321,-0.9769489713370181,-0.9934853133895066,-0.9877971568268364,-0.978859609745871,-0.976591721568416,-0.9790960160013421,-0.983323602630252,-0.9874341968832493,-0.9897813697190534,-0.9900019147598781,-0.989353820832728,-0.9877154371228082,-0.9831704768489148,-0.9735187252504655,-0.9573227387813458,-0.9366450828730571,-0.916793095026219,-0.9076763114432481,-0.9104023039880186,-0.890212959032132,-0.8136403809408901,-0.7182241197120557,-0.6357796906792186,-0.5643968234927612,-0.47670992155140257,-0.35659804881097756,-0.22482264105379426,-0.0970217931751037,0.05275851178178164,0.24243110675934143,0.4550203796913862,0.6419522525244942,0.776205255846329,0.8576938864134961,0.9064912119774682,0.9395070621780804,0.962027697329131,0.9738102848420996,0.9782142055989299,0.9800260147862792,0.9805449289210318,0.9803022117672311,0.9796024828612958,0.9791017737735291,0.9812528721309912,0.9858351782630513,0.9890821175241413,0.9893338572198463,0.9862512471414069,0.9763987297621488,0.9578433203137375,0.9371253305812365,0.9220767066604365,0.9160471478104711,0.915946631153806,0.9174503033343909,0.9138931297762928,0.9039096853243218,0.8894368766754824,0.8773282448195877,0.8671784154670976,0.8592598747557344,0.8507152493940279,0.8279757245467849,0.7811340661092117,0.7020362533672553,0.5783929910451934,0.3920532549160122,0.14398169132732777,-0.1284837365989152,-0.40852250076124064,-0.6510569733161176,-0.8025127980904868,-0.8771543054533956,-0.9154691172746525,-0.9362560151956332,-0.9460376181327109,-0.9464516764066357,-0.9410098752743292,-0.9312541057903371,-0.9162804395244254,-0.9021503507977968,-0.8977390066133077,-0.8998736769625029,-0.906347045060548,-0.9133581115817708,-0.919989141086637,-0.9266498754548131,-0.9349166640783924,-0.9464564134417237,-0.9619440061753802,-0.9751344746559559,-0.9717592857390064,-0.9466808760207571,-0.9070126778350734,-0.8601850549489367,-0.8030188165692835,-0.7330733113442712,-0.6606266950627481,-0.6009727239978646,-0.5605452787533839,-0.5398704592797473,-0.5360314271008848,-0.5405156176501504,-0.5389906744020629,-0.5023819313645923,-0.3904649083078062,-0.1953275743054391,0.08071108599839139,0.3626132189332046,0.5621338783336097,0.684613692413337,0.7625658910302693,0.8187184841598377,0.8616146424039538,0.8961730282140378,0.9243689484084994,0.9442920157407867,0.9581050549460038,0.9680290945034753,0.9737034384003771,0.9750975915844485,0.9729921918716521,0.9698997082551166,0.9676483372540688,0.9683087435219622,0.9706713970699671,0.9727113020902634,0.9742865489323363,0.9768593087159383,0.980449171855734,0.9808300013395669,0.9753306075849013,0.9654570332857603,0.9554806922100691,0.9467538150504321,0.9392160549293056,0.9341240801193533,0.930496329539986,0.9239972598972591,0.9121927296115097,0.8862194251944919,0.8251594107275332,0.6824595730601268,0.41593888223798414,0.06257161582811128,-0.2677528034740803,-0.5039115078509218,-0.6472052674332625,-0.7303264468907039,-0.7789961617266464,-0.8150228673651226,-0.8401407110482579,-0.8512675419235373,-0.8502358002609749,-0.836969091762831,-0.8192476240486296,-0.8072295104507909,-0.8005448759647676,-0.7868750200946849,-0.7572076378904817,-0.717540426246137,-0.6835802727326007,-0.679025071992257,-0.709708360069485,-0.7609919501762733,-0.8101180283201369,-0.8483596401585458,-0.8739848965254069,-0.8892349124423882,-0.905253977439801,-0.9276871042534658,-0.9468573430665689,-0.9561245401924803,-0.9606973110172019,-0.9637930365143491,-0.9668919981198788,-0.971583831844753,-0.9780841414867597,-0.9855906762470458,-0.9919354703508301,-0.9936517958267881,-0.9855532287017735,-0.9641979495853876,-0.9258443940620982,-0.8708893255964275,-0.8106015290713537,-0.7557045592653776,-0.7063744103548953,-0.6487259786889837,-0.5601731804117522,-0.3992136130581703,-0.11745885833433335,0.2821897165715207,0.6383096720579385,0.8257826318603463,0.900952475586726,0.928159278439975,0.9332788620747464,0.9231710575840452,0.9005742893553359,0.8736453039359869,0.8580966859062628,0.8570645342133464,0.8599099230328086,0.8582002572386119,0.8495755269624908,0.8353433772693211,0.8204354185968714,0.8132744171300123,0.820647018146093,0.8436851352294005,0.8803108291211255,0.9182430370216581,0.9432975583102103,0.9497866963263923,0.9432928571595259,0.9327424941669265,0.9244208488765194,0.9235297722236397,0.9289821438972065,0.9272544978942739,0.8845814664355861,0.76421547626109,0.608276917496957,0.48364935507651396,0.3996963118847375,0.32860399297783477,0.22422584301368267,0.0023043890772630376,-0.3847535094986627,-0.7187871597498098,-0.8506128044273067,-0.9041377220450197,-0.9513188392320079,-0.9877006222162907,-0.9758741871972306,-0.9235853482175358,-0.8781824395078277,-0.8621946930802163,-0.872267838849424,-0.891629512329788,-0.9048284834521394,-0.908458276727829,-0.90978263832622,-0.9196850426380583,-0.9432024208241682,-0.9704415844507187,-0.9836097359539246,-0.9741105187904017,-0.9523462823956275,-0.9327821360335727,-0.9255282877466763,-0.9323955828668516,-0.9497715612794928,-0.9672707925030763,-0.9753426839645525,-0.9728774938808321,-0.9641245896512058,-0.9543166944407291,-0.9382165067861634,-0.9142409339922316,-0.8820417935572611,-0.8326551491952238,-0.74732848831778,-0.6239172471834219,-0.46828097598222657,-0.24207377039151412,0.150739570792512,0.5217592304001398,0.7164203210907188,0.8189221863980746,0.8858278568606902,0.9249977146177157,0.926073814394957,0.8989489028713649,0.8744661853971297,0.8755164164794625,0.9004550892378183,0.932836306869942,0.9572181917631155,0.9726553202497789,0.9820836331981024,0.987291313076702,0.9895887103845663,0.9904908986335633,0.9914788521463798,0.9927168212792183,0.9932846188135722,0.991940844471212,0.9888639321889687,0.9838135831138762,0.9778176996426183,0.9733519029863436,0.9723832170874362,0.9707035051288216,0.9493092490265143,0.8869472250527319,0.8017788863384381,0.7311783059271832,0.6924745198361506,0.6832143838338152,0.6950411953959341,0.7112791300192819,0.7074828746883756,0.6561456044743385,0.4941618368333156,0.1517332777477392,-0.14610071147154313,-0.32273488070694817,-0.42785684374562183,-0.5048247861785782,-0.5852400970154666,-0.6751308738339072,-0.7678897789542128,-0.843806050057574,-0.8932034211157388,-0.9228653662091206,-0.9425865250239438,-0.9557227523427648,-0.9616314103459448,-0.9602438475204583,-0.9561030523887148,-0.9555684394569288,-0.959407117305675,-0.9656005656598857,-0.9722494187544874,-0.9785180836501552,-0.9839183416458732,-0.9895373047918125,-0.9943041125305321,-0.9920513318745567,-0.9795740692302364,-0.9618341676386721,-0.9456771690353012,-0.936037091354253,-0.9322387897700105,-0.9299950308957399,-0.9250606862874223,-0.9187487926095642,-0.9218460482277157,-0.9377684855273928,-0.9445423179575511,-0.919221789885399,-0.8577544402456662,-0.7573520837938431,-0.571201828606341,-0.3143055145159887,-0.08207780929262139,0.13375258655116187,0.4053963525437369,0.6751786619154411,0.8224316057280051,0.8624604488717383,0.868155215933741,0.8655458275555113,0.8613000512577492,0.8627001897351918,0.871691700971247,0.8762911826181844,0.8742031618071564,0.8809464787754175,0.9033623611459458,0.9341580600197174,0.9616229012614411,0.9758382236547773,0.9756697182637531,0.966964891878217,0.9565191869553897,0.9473950009093491,0.9394526242917649,0.9228060910063449,0.883612193694057,0.8175047953949994,0.7319426623026654,0.6427551569459642,0.5668206574109543,0.5183144464184007,0.5139903345238596,0.5739453599131312,0.7090374644774019,0.8676427715986802,0.9567249251538226,0.9511463322823269,0.8883367303598394,0.7933499812026081,0.6723209276669558,0.5452470722610113,0.43775876049039397,0.3525060506668039,0.26151599618887034,0.12971764426312538,-0.04674343008293581,-0.2317313695397492,-0.3799654346936201,-0.48196789883020646,-0.556446466307615,-0.6157559321534342,-0.6726123156785069,-0.7302034394971759,-0.7801858756195893,-0.8253405014075847,-0.8577126650696626,-0.8781560636480689,-0.8964527192485859,-0.9128422248271141,-0.9238818936732468,-0.9280577515469277,-0.9252883710281073,-0.9151024797966384,-0.9009046082960871,-0.8905007078895386,-0.8850430475784792,-0.8799101605222535,-0.8709614769619741,-0.8610907675520819,-0.8545184163008571,-0.8618890841889901,-0.8848286881133206,-0.9161179016217394,-0.9487591848829412,-0.9735535733926184,-0.9843314990244226,-0.9780206355246432,-0.9547792643149072,-0.9145229434477751,-0.8542660527567342,-0.7700572124911899,-0.6594629385605133,-0.5224977624450627,-0.36129609450087147,-0.17669874096419916,0.000934618593310915,0.17088891616544474,0.3259078927781521,0.45289300644978386,0.5527224317195387,0.6308631357618242,0.6912071964982917,0.7433128646941758,0.7834662008821008,0.8109325986987778,0.83142112472702,0.8524942854944992,0.8754037272190224,0.8976393994138715,0.9174986109020855,0.9333125599716129,0.9452231698603923,0.9549250879564716,0.9639922042197784,0.9721408708409716,0.9785786650764614,0.9830292535484344,0.984652503499726,0.9824741698359352,0.9749684610869548,0.9647722739696869,0.9632569007705549,0.9720677813394404,0.9816675494703194,0.9809193484348115,0.9611310656110076,0.9167247632361339,0.8402133052014382,0.7307955246054441,0.5853778367905809,0.3502282218008802,-0.02291382620344549,-0.3858461772507109,-0.6157128082685973,-0.7580479008624365,-0.8476445087885794,-0.9034862667496628,-0.9351700329811582,-0.9501528030967835,-0.9568444072250413,-0.9617470176686229,-0.9640295562916781,-0.9618939746266952,-0.9592534716106409,-0.9602154592493082,-0.9610260319252143,-0.9580636199253312,-0.9547294638800438,-0.9520654614177434,-0.9466372416130109,-0.9336674216749078,-0.9101621157581566,-0.8798486932691469,-0.8614154766653749,-0.8700265391114266,-0.8815598178847904,-0.8549221434193606,-0.8169530720234267,-0.8136753489423303,-0.8374478007341076,-0.8427049978285195,-0.7549419666622528,-0.42125059294310035,0.08165468567522002,0.39158961970466577,0.49125089490889373,0.5343789375073287,0.5719994554921188,0.6063391361336684,0.5952423006439435,0.5652111359370088,0.5704150564346139,0.6054412439539565,0.6617668419764907,0.715979753699282,0.7552885282555817,0.7822351715335932,0.7990088071256627,0.8132490667547069,0.8343975483047685,0.8632183161769785,0.8864120845392689,0.8989418932894757,0.9049983422383793,0.9092891902869272,0.9117335862572761,0.9125287467782697,0.9153742213474918,0.9190774788779941,0.9225997640111477,0.9262240988852124,0.9304343616117521,0.9389000756318922,0.9546543854531799,0.9727102349167328,0.9859023805543353,0.9919399393416996,0.9937098463460583,0.9929921856412414,0.9866354232620455,0.9710189053677871,0.9487902559288873,0.9274244081385776,0.9071201373212986,0.8771909950642818,0.8119944083562255,0.6833181453689976,0.4969359650553596,0.3064145687099811,0.1476413460677216,-0.014703856443859083,-0.20087916742696013,-0.3861732539015589,-0.5381642875363074,-0.6514490705743304,-0.7342997948745371,-0.7947862441140294,-0.8476246371409203,-0.9006822298903417,-0.9499222434543115,-0.9781494982687644,-0.9792037788668667,-0.9549913878559588,-0.92080600949853,-0.9024987038043542,-0.912100138264125,-0.9375623753176371,-0.9593292565276876,-0.9703178398760458,-0.9722909393426737,-0.9712745584706294,-0.972306296840099,-0.9762109488867352,-0.9808654622779561,-0.9836571844253871,-0.9832119327932777,-0.97997605235194,-0.9745902754726068,-0.9659289213799866,-0.9521390547020512,-0.9311459089313519,-0.9064904385258641,-0.8829597230795562,-0.8587143385828984,-0.8251042557089904,-0.7716908996865363,-0.6935894680055326,-0.5992256280809493,-0.5178334528349884,-0.3894165981579,-0.1214788211820741,0.3241898403898464,0.6636679939635617,0.7618816820539969,0.768829463589427,0.7599384258641738,0.7630310772289839,0.7803999757106753,0.8103581316831917,0.8444508357719602,0.8695470529937506,0.8868135140247956,0.9048675432809546,0.9264272228571059,0.9444939726338227,0.9567750321729127,0.9645926438067031,0.9705069470164467,0.975589518504171,0.980960011619505,0.986492077381884,0.9910801977563635,0.9931380205806539,0.9932567328132625,0.9928217483490085,0.9920862751043431,0.9895865044581611,0.9858203489645361,0.9828334587402366,0.9796866735199065,0.9692174243894132,0.9459975414473002,0.9083132287630221,0.8580668382851536,0.7998591015311811,0.7348687270015071,0.6597870667519918,0.5559034220652931,0.4164252274617305,0.2667695174680118,0.13622453174594165,0.0043736050450919545,-0.1613319430943814,-0.37701711894619366,-0.5854844055142738,-0.7348364134287912,-0.8245365046033845,-0.8637665287866361,-0.8766154609497181,-0.8898935153999391,-0.9096313242253559,-0.9258694899123108,-0.9320095584700903,-0.9369603003789354,-0.9498141680629767,-0.9659571841774208,-0.9724249666732594,-0.9687600603137166,-0.9655425555730736,-0.9688607275329841,-0.9768510524137255,-0.9856507054933168,-0.9931286130039372,-0.9979086810608284,-0.9983872254423213,-0.9954777982237546,-0.9911481093916529,-0.9852393866667378,-0.9753453246131384,-0.9610770388184132,-0.9446514260115229,-0.9288790180374438,-0.918092298682148,-0.9168539918150364,-0.9287293621401999,-0.9479627292398278,-0.9357278666272809,-0.800706202570531,-0.5297951914401944,-0.281270263349562,-0.11458555080358704,-0.004235441740543138,0.07152327193975422,0.13682499899925674,0.20757793930749543,0.28841350877581823,0.3797899702331968,0.4810100998527448,0.5905343912654308,0.7014688081519179,0.7963006753015179,0.8625400190734585,0.9030301490890592,0.9281301452991131,0.9435323531082824,0.9503238223075023,0.9487804911135291,0.9433636469270192,0.9398435198200372,0.9392054492429835,0.9410102981551166,0.9466761035396849,0.9563494047530725,0.968777084750713,0.9819438709269033,0.991445323006763,0.9952528800511967,0.9938894318671827,0.9823651246795368,0.9560784885804154,0.9183717928451081,0.878891412409748,0.8521724544328504,0.8494803628791514,0.8650029623146464,0.8799270092703354,0.8787092641846286,0.8589332651354215,0.8274239719044083,0.8043123349851915,0.8038366002878593,0.8064727738759376,0.7500178226193503,0.5757290224419205,0.33817483454165836,0.08779502625170334,-0.17629727641960924,-0.4361782180888061,-0.6479048640848843,-0.7792896748799779,-0.8554724113261651,-0.9002760321906891,-0.9299306650965503,-0.9515457552221046,-0.9668621895580354,-0.9773785628082758,-0.9842376514860555,-0.9861298751814532,-0.9850255378189299,-0.9844200560723625,-0.9864041165206928,-0.9908561798902998,-0.9950213010130365,-0.9930471607020691,-0.9820917348355401,-0.9668755723090332,-0.9550767054811748,-0.9529505099500196,-0.9579316428642723,-0.9624878390647736,-0.963980805274706,-0.9631842057723227,-0.9615961016314232,-0.9574064609267255,-0.9465563320737388,-0.922892883775366,-0.8685539621859687,-0.7394449067221389,-0.5100474621090887,-0.2500646206016042,-0.049684506467700264,0.09873700385761222,0.24871700072714337,0.4257948991223286,0.610126499157505,0.7595742646622878,0.854534386899792,0.9092349143726542,0.939104827736619,0.954994723420041,0.963690807993812,0.9701818863266358,0.9769528135914977,0.9830813232863431,0.9860193721672835,0.9852648242461673,0.9801018758231191,0.9709335258798703,0.9618339797559182,0.957043458239188,0.9569955032047491,0.9594288500746696,0.9629023487310835,0.9676837183409922,0.9736021761422049,0.9790704205479046,0.981216712103225,0.9779969105279837,0.9698414415792707,0.9607917461285574,0.9539311520473439,0.9502550905712839,0.9455669985611027,0.9386521270896175,0.930366181157679,0.9154669916947538,0.8776695409916963,0.7994843014462395,0.6638815854205449,0.4851641358925424,0.30003291647737906,0.11383441211592692,-0.0827078668136028,-0.3085843539889067,-0.5642915470805636,-0.8010991581818176,-0.929755389090087,-0.9668093220850881,-0.9740235315861078,-0.9790100561963703,-0.9836190638127023,-0.9854909691530929,-0.9828522777728492,-0.9784540474051899,-0.9761837484055489,-0.9762879536149242,-0.9727071880535624,-0.9607994416767149,-0.9456444448001198,-0.9354125182681865,-0.9334468505224295,-0.9424628922966845,-0.9626836110961631,-0.981382438608124,-0.9798928628157523,-0.9529334289913128,-0.9166482985224305,-0.8906535312614954,-0.8809444276843381,-0.8746402712503201,-0.8613667250654947,-0.849338742572121,-0.8504149099235514,-0.8679236775586051,-0.892713313135421,-0.9158107783979591,-0.9270451462939482,-0.9180538145161534,-0.8725575239330549,-0.7276750664380446,-0.34367356941134003,0.07960084428935432,0.31871670091065124,0.48213721219833783,0.6115806703427588,0.7248595543707019,0.8191752013380552,0.8871744824975749,0.9218505894134172,0.9333955894670123,0.9362207281518147,0.9409516934144374,0.9503318380765201,0.9602482104169595,0.9649240179199458,0.9621932723746484,0.9541387646106905,0.9470003708147747,0.9466546640496264,0.952616156670683,0.9609162858276858,0.9699027388610095,0.9776832060748188,0.9820552996943218,0.9828627799973798,0.9802571984749541,0.9748338699968379,0.967738607741069,0.9583947301448469,0.9401275719017037,0.9035581921239503,0.833969522747681,0.7425371031645509,0.6702405184965177,0.6436204931224928,0.648987665262641,0.6755457766188727,0.6962499697940414,0.6479248845422276,0.4430290819926791,0.1001799064162365,-0.22888876750255446,-0.479609405213886,-0.6338249585802413,-0.7020609489967722,-0.7279652970234907,-0.7442803649491707,-0.7627872862731927,-0.7880630126737425,-0.8228156312810431,-0.8574308517030583,-0.8799179124405498,-0.8946082074562584,-0.9096053411399002,-0.9256565735206056,-0.9372203325812075,-0.9392849996344941,-0.9371301821935186,-0.939172589460788,-0.9488224583735032,-0.9626239786431149,-0.9752182985880664,-0.9844191543531715,-0.989315656281868,-0.9914879594228144,-0.9925322413931419,-0.9922993564164726,-0.9914260828700109,-0.9911237385227846,-0.991999335787231,-0.9934764789073901,-0.9941884353676063,-0.9926291090732279,-0.982682990690898,-0.9539039925114745,-0.8998813820905034,-0.8213803672922287,-0.723696564358695,-0.6162923531853386,-0.5272065095864958,-0.45482093564572285,-0.36052320254518533,-0.2066969510438557,0.01797263728901559,0.28549156908466206,0.5391137390050924,0.715115044929974,0.8057520294006519,0.8550590420845233,0.8929399296159648,0.9244392101096077,0.9476051837960903,0.9588916942544231,0.9559588164859297,0.9358754220553493,0.8975076487563165,0.8554356738511409,0.8354532249608212,0.8457855738169812,0.8756575909291209,0.9093868871631098,0.9342329175288883,0.949897364523339,0.9627659977281161,0.9728726937058753,0.979983349872865,0.9862177212140285,0.9912834341113959,0.9906077611090174,0.981503121506698,0.9689320636901861,0.9580575846123067,0.9504709599919472,0.9452056371760629,0.9403361066385004,0.9340424601150983,0.9250329112849548,0.9142396536325399,0.9037791685586741,0.8941403324799277,0.8837886242013349,0.8617280383476607,0.8045540565763545,0.6815937643500185,0.4919203118546586,0.26300669157207573,0.03246091865140539,-0.17593631544579727,-0.3702042358596485,-0.5503437898133839,-0.6980223208136868,-0.7994895942349731,-0.859392921413859,-0.8942141448309077,-0.9196475316142879,-0.9429976412797887,-0.9631714860919284,-0.9782809153438994,-0.9875720302867507,-0.9928133776534254,-0.9951168628894423,-0.9957707161758161,-0.9951315604015031,-0.9921199064468159,-0.9862286245564782,-0.9805478619377254,-0.980036383807228,-0.9837520499663122,-0.9853729110127202,-0.9786793098086761,-0.9612378538234487,-0.9317087001440622,-0.8927792926240105,-0.8499080943983224,-0.8087224987519089,-0.775800177851115,-0.7501340957674978,-0.7312925753535157,-0.7197849570121512,-0.7097153813827309,-0.6829826332463873,-0.6140931314413894,-0.46874493568559794,-0.21161886338914204,0.12867949251828262,0.437054159392115,0.6408141554852164,0.7584458257500957,0.8312393122454645,0.8872739096550936,0.9320704195307089,0.9599665466632201,0.9658706335151596,0.954358814835459,0.9383182296364531,0.9325896925599507,0.9410524768955086,0.956100844731554,0.9672492045973327,0.9707624048958036,0.9681085928249257,0.961852324132255,0.9564609617336852,0.957450165821691,0.9668951571231384,0.9796911447960386,0.9864310472875184,0.982895478348112,0.9732217351991563,0.9636334875796604,0.9573301243033036,0.9543486116537782,0.9536292485342223,0.9528889141520352,0.9484494403512667,0.9339636765816927,0.9053900944107768,0.8620753440737403,0.7977781695821337,0.6943128478783256,0.5012773573539695,0.1548948007091025,-0.18564302888201223,-0.37054207365485803,-0.46359458200545617,-0.5316539841288335,-0.6026487623884919,-0.6848882449811465,-0.763076611440186,-0.8222857319017307,-0.8597053083667774,-0.8830948127829223,-0.8943619407261283,-0.8947782248118623,-0.8860434290191125,-0.8711609158795449,-0.8580814330471149,-0.8538789007095197,-0.8596008171678823,-0.8724439462016188,-0.8914874609440396,-0.9138155276809528,-0.9355168742323492,-0.9522546214088722,-0.9540174704729492,-0.9236081096327518,-0.8578059295742189,-0.7798751338963686,-0.7228115736263799,-0.7025351825485366,-0.7192760091833417,-0.7597537056587589,-0.8080350512481125,-0.8512511696255197,-0.8796834675372309,-0.860106589787108,-0.7407567065794214,-0.5638955112573099,-0.4170122590486601,-0.3069086563747842,-0.20240324872808155,-0.05171885843620015,0.18195919251388926,0.41202770880461076,0.5737056712609623,0.6823667939117213,0.7648726012424919,0.8347744093421229,0.8817543687238424,0.9049947058539242,0.9204803878599812,0.9311626842031002,0.9367597042009271,0.941621320260605,0.9483089128001787,0.9502882003184792,0.9438591825933634,0.9304806851445871,0.9167708472275503,0.9117834134680135,0.9179828972039459,0.9312466503499295,0.9451679551820628,0.9543314053951493,0.9588111109065897,0.9634015138709623,0.9693959684987419,0.97378697670395,0.9697082533872533,0.9532866419556727,0.9317210913311921,0.9151148114435096,0.9057435259985009,0.8975324127597518,0.8844156385342012,0.8609321362456892,0.8235150738573117,0.7764963812840775,0.7226421927069617,0.6640558293754532,0.597516741317019,0.5167960598229681,0.41715314993170455,0.2951872040902785,0.15343535209028178,-0.015817700470714277,-0.19767695696575815,-0.36058976361956185,-0.4928079459886168,-0.5937728808359115,-0.6653860280875745,-0.7208355580459844,-0.7782563103023501,-0.8460502099579836,-0.9022222656876059,-0.9275239823602188,-0.928561774061813,-0.9251176463703079,-0.9291713956815638,-0.9408854331374749,-0.9546895721952253,-0.9671156145096726,-0.9767286474260326,-0.9838338876151294,-0.9884960520050761,-0.9905917791181439,-0.9901966454363669,-0.9877751561214839,-0.984543304591772,-0.9809846700946357,-0.9776881281117709,-0.9742768138165003,-0.971335783945659,-0.9676233399105195,-0.9591496921241519,-0.9419183161944654,-0.9115206688181604,-0.8633852415973359,-0.7910810022082639,-0.6896229373679849,-0.5719036974397769,-0.43896325337982817,-0.27494912689947226,-0.04784041646762571,0.22654713215601147,0.4634358690826217,0.612689196719637,0.6994121777039818,0.758305861414586,0.804326088027197,0.8411940778823848,0.869208059962184,0.8872966225088355,0.8955706562670105,0.8936219504174238,0.8880776047226022,0.8898561524267513,0.902589234995815,0.9245746633285895,0.9488580445403427,0.9661041555166909,0.974767993722657,0.9796919929927878,0.982212615719588,0.9812891418816905,0.9753271852325528,0.9688269197548643,0.9699240878004883,0.97793246214301,0.9818734286998543,0.9769433844706733,0.9693544441783748,0.9622054636896624,0.9525124447367563,0.937989976630469,0.9114924939858247,0.8593867917423615,0.7584539113316618,0.5490822050669497,0.07546466402483194,-0.48098253250650586,-0.6987539085903437,-0.7477953356131835,-0.7453952961688354,-0.741753446149517,-0.7563568160690677,-0.7883960536874112,-0.8347845504540052,-0.8809229255340595,-0.9134210129964339,-0.9295196411447318,-0.9349934284550158,-0.9360254129973998,-0.9319625898871509,-0.924650139451667,-0.9151042860748457,-0.9019039184967058,-0.887161401103217,-0.8817806864144582,-0.8897784349599023,-0.9066398064898075,-0.9249676548788456,-0.9397530787962814,-0.9504085620713792,-0.9579578709780849,-0.9663304917150229,-0.975812715297564,-0.9838347575956086,-0.9894433947407577,-0.992451729680818,-0.9931043202742772,-0.9914630783612596,-0.985399828850272,-0.9691734642103944,-0.9351238845787153,-0.8824744657103587,-0.8177076987749029,-0.7414303277596266,-0.6398290161087026,-0.4840783177820142,-0.23686059929456782,0.08729781244119518,0.40185834516745306,0.6505129108696773,0.8150369633214966,0.9025497967005871,0.9421114412283133,0.9595890814590062,0.9668895464590125,0.9677010262111744,0.9638883212178938,0.9572186718296952,0.9510114747315629,0.9494260266050821,0.955932373970951,0.966001971049584,0.9668155076143006,0.9557497636575625,0.9448026013299204,0.9424934052347248,0.9484128364588403,0.9585260504221935,0.9674938866612748,0.969096247078035,0.9616283093872707,0.9537036097126211,0.9527930415211809,0.9552629751206608,0.9563857534324359,0.9584162351498668,0.9611135251825701,0.9635197533591838,0.9678908381213537,0.9733651826717798,0.9742654984013449,0.9635087171795602,0.9416248089827058,0.9045060677571832,0.7918407996023756,0.5390039958967388
