0.022717877715052074,0.02392788809645184,0.024437365324499163,0.024131675844010953,0.023049038699197787,0.021355022593408206,0.019457218740059512,0.01817078598853769,0.01797973006323256,0.018718474401646038,0.019559112613839066,0.019801111546459204,0.019113318074510277,0.01763582939768333,0.015750757366588618,0.014158642993728128,0.013165160041290994,0.012668414635497657,0.01268115431690118,0.012897681745863813,0.01288494992360983,0.012630203450436632,0.012579260443121625,0.013025054982450412,0.013712848454399339,0.014502535800127824,0.015101175079700716,0.014820964962019552,0.013343476285192602,0.0111399829513557,0.009178488550138936,0.007943006665081664,0.006974997574046897,0.005790460268134541,0.004172867318381963,0.002275060321373453,0.0004918867223650301,-0.0008582309184371906,-0.0017498176393499069,-0.0028197221759941387,-0.003953310973186809,-0.005061425908977113,-0.0061313304456213445,-0.0068446001367174995,-0.007010179842875401,-0.006895547859522231,-0.007022916380619106,-0.007736186071715262,-0.009137251592505204,-0.010602000587928633,-0.011964855709572503,-0.013442344386399453,-0.01484341069310435,-0.01587509697145297,-0.01665205249492747,-0.01747995888486652,-0.018231435045533977,-0.01858807539248673,-0.018575335711083208,-0.01844796247449661,-0.018053118801632368,-0.017467219203462996,-0.0169704816568192,-0.016919530790354652,-0.017339845966876398,-0.018104069668096915,-0.01895743970254393,-0.01987450028485901,-0.020434928379370877,-0.020103767395225167,-0.018537124526022183,-0.01573499191261239,-0.01213043227207059,-0.008602302860800382,-0.006042171537755587,-0.004844897694099525,-0.004590158294160911,-0.004322682356478592,-0.0036094126653824373,-0.0022083479305074483,-0.00014496107015804516,0.0022877976450321135,0.004860662362160799,0.007701003802886757,0.010847033152271014,0.014145903312324607,0.017546675205307293,0.020960178920543963,0.02423357757694005,0.026882865450105743,0.028818880488515462,0.030054370232722276,0.030767635208328703,0.03148090804308468,0.03233428593668123,0.03335324039277587,0.033939139990945236,0.03345513426655542,0.03169743547204731,0.02894625372510206,0.025532742150715854,0.021762605947675966,0.018017941248293586,0.01501202088732468,0.013177891863544977,0.01249009839159605,0.012120726222389314,0.011305559513853786,0.009777127829711829,0.007892055798617117,0.005637617099720345,0.00303927773527434,0.0006702040665475732,-0.0013167612095947318,-0.003392885236419804,-0.00568553669220751,-0.008131028958664549,-0.010958633075731847,-0.01433393346505703,-0.018167752356815444,-0.021988839426319875,-0.025262238082715965,-0.02759309679398993,-0.028204475754966343,-0.026344875227529135,-0.0225237881580247,-0.018422490970839107,-0.0160661528967581,-0.015696780727551363,-0.016588369806208942,-0.01779838018760871,-0.018919236376632443,-0.01975987458882547,-0.020001873521445612,-0.019645241033642395,-0.018575335711083208,-0.01675394636870703,-0.014779720145236281,-0.013493287393714462,-0.013149394587314768,-0.01355697794158253,-0.014232031732127936,-0.015021726937005958,-0.016359102695842787,-0.01767101481017165,-0.018078590305289872,-0.01702142466413421,-0.01419382054706691,-0.009735890872078098,-0.00455194789501484,0.00030083244748130376,0.004249288902589062,0.006847627481120113,0.008350590019349428,0.009535128897091691,0.011292827691599804,0.01352179252909421,0.01585265909951771,0.017877836189453006,0.01913878957816778,0.019661006487618624,0.019151529259571302,0.01769951208640186,0.015636131670555078,0.013610954580619785,0.012248099458975913,0.011802304919647124,0.012833999057145282,0.015636131670555078,0.019686485850425664,0.02396609928151287,0.02699749900528882,0.027799926032420822,0.026526232962302526,0.024106204340353453,0.021138495164445572,0.01769951208640186,0.013789270824521391,0.01031208442056619,0.008070372042518726,0.00707689301965636,0.006567415005694087,0.005803197591793201,0.004695081870087943,0.003510545350090541,0.0021604283380202835,0.00059378240374898,-0.0009983367631927263,-0.0024121388217263756,-0.00327825246715168,-0.002806984852335479,-0.0004379110264257214,0.0036379146571023707,0.00817227377544782,0.01166219986080654,0.013101477352572463,0.012362733014158989,0.010222922369040616,0.007293422020448902,0.0038034951491752265,-0.0003487523543344497,-0.004590158294160911,-0.007863558522386908,-0.009481152258054437,-0.009315567836406812,-0.007965452396166464,-0.0065007018289131285,-0.005519956986049608,-0.004513736709953814,-0.002832458713737845,-0.0004761218971207657,0.0016254756767406908,0.0027845391212506804,0.003026541197530634,0.0027718017975920206,0.002504325859909701,0.0017783196310698405,5.8830237595808084e-05,-0.003201830097029628,-0.008118297136410567,-0.013900870747982224,-0.01928860068668964,-0.023530010791865355,-0.026523191471430743,-0.02865026243514559,-0.029783858305572848,-0.029325324084840537,-0.027529414105271398,-0.025338660452838016,-0.023479059925400808,-0.02193788855985533,-0.01998913384004209,-0.01728890295956139,-0.01413013785834838,-0.010678422958050684,-0.007366814688423479,-0.004666580664282963,-0.002896143760201237,-0.0017498176393499069,-0.000769071853388442,0.0005810454730477971,0.0023642192292392113,0.004376658209600892,0.0061088847145365464,0.007560897958131221,0.00907659467635938,0.010923455522393067,0.013305265100131577,0.015954552973297266,0.018132574803476666,0.01901142420073072,0.01815804630713417,0.015954552973297266,0.013419898655314655,0.011573037809280966,0.010592294538247357,0.01010828881385754,0.009815339014772854,0.009318601468129057,0.009153017046481433,0.009942712251359453,0.011687671364464046,0.014031269757141529,0.01666782580805324,0.01873120622390002,0.019788379724205222,0.01990300542023876,0.0191260577559138,0.01696077560713792,0.013419898655314655,0.00920396791294598,0.005013506316489948,0.0011924192469855155,-0.0019790823919712004,-0.004386367402941984,-0.0061058565842189785,-0.007124812612143525,-0.007621554088362092,-0.007647027949764458,-0.007685238348910529,-0.0083348245653732,-0.009952418301040732,-0.012461593256216302,-0.015123620810785514,-0.016410053562307333,-0.015607626535175329,-0.013455076208653436,-0.011098738134572428,-0.009264624829091805,-0.008016395403481471,-0.007405025873484504,-0.0077743972567762875,-0.009022618037322126,-0.01058926090652511,-0.011952116028168982,-0.012805493921765533,-0.012741811233047004,-0.012054017761098075,-0.01090769006841684,-0.009659468501956045,-0.008411246935495253,-0.007061127565680133,-0.005596377784341752,-0.004513736709953814,-0.004437315125746716,-0.005621851645744118,-0.007927241211105437,-0.010805796194637283,-0.013455076208653436,-0.014945304566883906,-0.01484341069310435,-0.013225816957436819,-0.010576529084271128,-0.007710712210312895,-0.005023214723916087,-0.002514035053250793,-0.00046338488782808737,0.001001364893510294,0.001956636660886402,0.002822749520396753,0.0039818129649067426,0.005535721654110881,0.007522686773070195,0.00991723288855241,0.012719365501962206,0.015636131670555078,0.0183491022324393,0.02047617319615415,0.02196639369523508,0.022705138033648556,0.022323034042187835,0.020654489440055757,0.018145306625730648,0.015432336063846426,0.013012315301046892,0.011483883616904934,0.011229145002881274,0.012209888273914888,0.014018537934887547,0.015801708233053165,0.01674424031902575,0.016642346445246193,0.015699814359273607,0.014426121289155311,0.01333073660378908,0.01280852755348778,0.012719365501962206,0.012604731946779127,0.012388204517816494,0.011942409978487707,0.011636720497999497,0.0112673561879423,0.010579554856843833,0.009102066180016884,0.006605626190755114,0.0038162324728338863,0.0015363167688749327,0.0005428346023527528,0.0005428346023527528,0.0005300975930600743,-0.0002978045529382225,-0.0022210852541661077,-0.004895845416904257,-0.00730313042787504,-0.00819471950653262,-0.00783808230323968,-0.007685238348910529,-0.009022618037322126,-0.011710117095548844,-0.014881621878165377,-0.017721957817486658,-0.019912719329069576,-0.021122721851319803,-0.020740617859859086,-0.0183970194671816,-0.01420656022847043,-0.00903535771872565,-0.00439910394068569,-0.001737080315691247,-0.0009601263640466544,-0.0018389765472156647,-0.003927837111784443,-0.006195014706169783,-0.007557869827813654,-0.007519658642752628,-0.006628071135924957,-0.006195014706169783,-0.0071502864735458905,-0.00963399699829854,-0.012741811233047004,-0.015301937054687121,-0.01656289830255144,-0.01625720882206323,-0.01420656022847043,-0.010449155847684528,-0.00568553669220751,-0.00037422629432831114,0.005433825422586464,0.01139472156537936,0.01680793086689382,0.020616278254994732,0.02274335707785912,0.023558515927245106,0.02381325454126877,0.02419536639187902,0.025188849344316158,0.026831914583641196,0.028220241208942568,0.02848771950436975,0.027175815249190428,0.02434821113212313,0.020616278254994732,0.017151823673293515,0.01473180291049398,0.012948632612328361,0.01023566205044414,0.005841407990939272,0.0001989367660973538,-0.005494483124647242,-0.010054312174820288,-0.01278002241810803,-0.013416872882741949,-0.012308756375121736,-0.010449155847684528,-0.008806090608359494,-0.008041874766288514,-0.008131028958664549,-0.008882512978481544,-0.010181677552257348,-0.011977595390976025,-0.014219299909873953,-0.016601109487612464,-0.018626286577547755,-0.02009103557297118,-0.020867991096445684,-0.020740617859859086,-0.01989997964766605,-0.01825690654919148,-0.01593878751932104,-0.013722554504080617,-0.012245065827253668,-0.010767585009576258,-0.00783808230323968,-0.0018644504086180308,0.007560897958131221,0.019661006487618624,0.03177385784216936,0.04058783117751697,0.04349185766470632,0.040001931579347595,0.03200312495253552,0.0221065066132252,0.012375464836412971,0.004172867318381963,-0.001660658731484149,-0.00540532343086653,-0.00806734626994602,-0.010360001655308494,-0.011926644524511478,-0.013123915224507725,-0.014282982598592484,-0.016308159688527776,-0.01974713490742195,-0.02443433169277692,-0.029287112899779512,-0.032904404362575294,-0.034547477461049865,-0.03412715442537858,-0.03194913259519918,-0.028484685872647506,-0.02466359880314307,-0.02136472864308948,-0.018830074325106867,-0.017034164345537728,-0.015505732661395773,-0.013837188059263693,-0.012308756375121736,-0.01097137275713537,-0.009149991273908727,-0.006462491429767055,-0.002883406436542577,0.001447158646924129,0.006325412929414134,0.0112673561879423,0.016043715024822842,0.019992167471764334,0.02223387199066226,0.022577772656211494,0.02191545068792007,0.021405973459872753,0.021533338837309814,0.02209376693182168,0.022310294360784313,0.021355022593408206,0.019482690243717012,0.01771225176780538,0.016718768815368247,0.017151823673293515,0.01888405096414412,0.021316811408347177,0.024029781970231402,0.026513493280899005,0.028525930689430778,0.029799631618698613,0.03002889086991523,0.029086358783942643,0.02739234267815306,0.025023264922668535,0.02223387199066226,0.019240683451947335,0.01599276415835829,0.012770316368426755,0.010070077628796515,0.008401533026664437,0.007828373895813541,0.007509949449411536,0.006287202530268062,0.003574230396553933,-0.0008327570570348246,-0.006207752029828442,-0.011277062237623576,-0.015518464483649755,-0.018689969266266288,-0.02057503343821146,-0.020536822253150434,-0.018307857415656027,-0.014741508960175254,-0.011226111371159028,-0.009213673962627256,-0.009519363443115464,-0.011340744926342107,-0.01335318233487388,-0.014168349043409405,-0.013671603637616069,-0.012703600047985979,-0.012143171953474112,-0.012741811233047004,-0.014894353700419359,-0.018689969266266288,-0.02298232237875701,-0.02527497776411949,-0.023530010791865355,-0.01709784703425626,-0.006908284397265937,0.004860662362160799,0.015228548316287316,0.021877239502859046,0.023736832171146714,0.020960178920543963,0.01545780756750393,0.009305861786725536,0.004465817117466649,0.0021349544766179175,0.0023514819055805514,0.004338447024539865,0.006643836589901185,0.008070372042518726,0.007701003802886757,0.0052300345313675365,0.0011796827092418094,-0.003189093559285922,-0.006717230043790716,-0.008258402195251148,-0.007965452396166464,-0.006666282320985984,-0.005125110955440505,-0.0036094126653824373,-0.002182874069105082,-0.000730861061284893,0.0007720997479315232,0.0018929516144230102,0.0021604283380202835,0.0012051565706441753,-0.0006544393198948044,-0.002322980699775572,-0.0026414043602626235,-0.0013931827938018296,0.0010905238013760518,0.004274762763991428,0.007497212125752876,0.009687965778186255,0.010464921301660756,0.01023566205044414,0.00964975459312523,0.008885538751054252,0.008286907330630897,0.007675529941484392,0.006822153619717747,0.005650354423379005,0.00432571048679616,0.003204858227347196,0.0022877976450321135,0.0013197885539973453,-8.127625946913948e-05,-0.0015460259622160253,-0.0022338217919098137,-0.0010620218096561182,0.0016891607232040827,0.005293719577830928,0.009012911987640851,0.01229904246629092,0.014375170422690762,0.014273276548911206,0.011700411045867568,0.006847627481120113,0.0003135693781824868,-0.007213971520009283,-0.014601403901334672,-0.02071513849705204,-0.02481644354338718,-0.026930774825698507,-0.02742752023149184,-0.027007197195820558,-0.02657414233789529,-0.026828880951918946,-0.027822363904356082,-0.02870121330161014,-0.028293629947342375,-0.026268452857407084,-0.022804006134855406,-0.01870270108852027,-0.015301937054687121,-0.01374802600773812,-0.014066455169629849,-0.015340148239748148,-0.016575630124805417,-0.01723795209309684,-0.016932270471758173,-0.01601520988944309,-0.01535288792115167,-0.015518464483649755,-0.015989730526636048,-0.016168054629687196,-0.015836893645541483,-0.015200043180907565,-0.014499510027555116,-0.01407918699188383,-0.013735294185484137,-0.012461593256216302,-0.009315567836406812,-0.0041443653266620304,0.0022877976450321135,0.00933133329038304,0.016578663756527664,0.023940627777855366,0.03094595145223031,0.03713611627721927,0.041823320921723785,0.04396312370769261,0.04302059162172003,0.038740978190632824,0.03193943440466745,0.024551998879682242,0.018960473334266176,0.016935296244330877,0.018272679862317245,0.021329551089750702,0.02423357757694005,0.02583843163120406,0.026195071978156813,0.02588938249766861,0.025443587958339817,0.025074215789133082,0.024997793419011028,0.025634643883644948,0.02693380845742075,0.027825397536078326,0.027748975165956275,0.026831914583641196,0.025367165588217767,0.024208106073282547,0.025099687292790586,0.029086358783942643,0.035582205230270274,0.042320066327517114,0.0467143133137874,0.04738937496348235,0.04407776512202523,0.037530959950083514,0.028857091673576488,0.019240683451947335,0.009484178030627144,0.0006702040665475732,-0.006309647475437906,-0.011264322556220056,-0.014830671011700828,-0.01798943611291384,-0.020969884970225238,-0.023657376169302417,-0.025529716378143146,-0.02695625418850555,-0.028675741797952636,-0.03132502967111833,-0.034330950032087235,-0.03671275960982574,-0.03740055308177467,-0.03597401527141227,-0.033120939650687464,-0.029898491860755924,-0.026930774825698507,-0.02420506458241076,-0.02161946725711314,-0.019326819730900203,-0.017925753424195306,-0.01769648631382915,-0.018040379120228846,-0.01812954117175442,-0.01717426940437831,-0.01484341069310435,-0.010882210705609796,-0.005787432923731926,-0.0008327570570348246,0.0027590652598483145,0.004809714639356067,0.005433825422586464,0.005064454039294681,0.004211077717528036,0.0032940171352129535,0.0022877976450321135,0.0008230478636937322,-0.001074759133314778,-0.002794248314591773,-0.0035457284048339994,-0.0029598280207496744,-0.0009473890403879945,0.0022241125985687214,0.005981515407524716,0.009611551267213744,0.012795787872084257,0.014910119154395586,0.01519033713122629,0.013037786804704394,0.009114805861420407,0.004338447024539865,-0.0004251740957245384,-0.00413162800300337,-0.006360595198242639,-0.006997442519216741,-0.006245962428974515,-0.004348156217880958,-0.0016479221937404432,0.0012943154785099334,0.0038799167333823247,0.005981515407524716,0.007675529941484392,0.00900017230623733,0.009802599333369334,0.009675233955932273,0.008185005597701803,0.005777723730390835,0.0032940171352129535,0.0012943154785099334,-0.00037422629432831114,-0.002182874069105082,-0.00441184126434435,-0.00683186281305884,-0.009048089540979631,-0.01070389446170819,-0.01201580657603705,-0.013455076208653436,-0.01573499191261239,-0.01897017938394745,-0.022447373647052186,-0.02495654860222776,-0.02561887057051918,-0.02458717643302102,-0.02251105633577072,-0.019836296958947525,-0.01656289830255144,-0.012588966492802901,-0.007761659933117628,-0.0025395089146531594,0.0020585321064958656,0.005102665224355706,0.0063890971899625715,0.00607067352947552,0.004554976025332407,0.002542536259055773,0.0008485217250960982,0.00018619983539617084,0.0008612582628398041,0.00289917110460385,0.0061088847145365464,0.010184711183979591,0.014578958170249874,0.018489207291279883,0.021367762274811724,0.022042816065357133,0.01976290036139818,0.015152125946165261,0.009687965778186255,0.004682345332344237,0.0009758910321079279,-0.0012912873481923657,-0.0023484545611779377,-0.0029725653444083347,-0.0038514155275773446,-0.0053416391703180926,-0.007366814688423479,-0.009290096332749308,-0.010347261973904972,-0.010054312174820288,-0.008245662513847627,-0.00499774086251372,-0.0006544393198948044,0.0034723341650295153,0.006516467282889355,0.008121322908983273,0.008095851405325767,0.006949523712644531,0.005510247792708515,0.004134656133320938,0.00289917110460385,0.0021731648757639895,0.0022623237836297476,0.0031284366431400977,0.0044276059324056235,0.005561195515513246,0.005854145314597933,0.005675828284781371,0.005548458191854587,0.0054847739313061495,0.005522984330452221,0.005650354423379005,0.005688564822525077,0.0058796191760002985,0.005930566898805031,0.005331929976976999,0.0039818129649067426,0.0022877976450321135,0.00033904323958485274,-0.0018262392235570046,-0.0038641520653210507,-0.005609115108000411,-0.007035654490192721,-0.00839850725409173,-0.009595785813237515,-0.01058926090652511,-0.011722848917802826,-0.013022021350728169,-0.014295722279996004,-0.01516183199584654,-0.015149092314443018,-0.013327710831216375,-0.009570306450430471,-0.004360893541539618,0.001396210924119397,0.006847627481120113,0.01145840425409789,0.014604437533056918,0.015483286930310973,0.014056749119948572,0.01120366564007423,0.008146794412640776,0.005930566898805031,0.0047715042402099945,0.004491290978869016,0.004605923748137139,0.004376658209600892,0.003370438719420051,0.0020967432915568918,0.000963154494364222,-4.8545361550947625e-06,-0.001100232994717144,-0.002552245452396865,-0.004093417603857299,-0.005583641246598045,-0.007022916380619106,-0.008551351994335835,-0.010334522292501452,-0.012117700449816606,-0.013302239327558871,-0.013111183402253741,-0.011251590733966072,-0.007825345765495973,-0.003762256619711587,3.335632903854489e-05,0.0028736972432014843,0.004656871470941871,0.0058796191760002985,0.006580152329352748,0.006796680544230335,0.006656573913559845,0.0071278407424610925,0.00945870652696964,0.014056749119948572,0.02087101686901839,0.029544885145525415,0.03866454796136123,0.046306729959519635,0.05053540038329183,0.04979665604487836,0.04396312370769261,0.03477977820313827,0.024895899545231474,0.016706029133964722,0.012018832348609758,0.011254616506538778,0.013292525418728055,0.016718768815368247,0.020208694900726968,0.0228834621366997,0.024131675844010953,0.02392788809645184,0.022679666529991052,0.020501644699811652,0.017508464020246268,0.013802010505924913,0.009662494274528753,0.005382877699781731,0.0015617914161922528,-0.0017752915007522728,-0.004972267001111356,-0.008678717371772893,-0.013531498578775487,-0.019696184040957403,-0.026612353522956315,-0.03354125482720921,-0.04030457956896402,-0.04683862934120313,-0.052875949425948,-0.05780515300307263,-0.060543595068614356,-0.05960106298264177,-0.05454449402808007,-0.04625272974303376,-0.03630517625555798,-0.026535931152834265,-0.0183970194671816,-0.012487072619023345,-0.00923914546628476,-0.0083348245653732,-0.008665985549518912,-0.00903535771872565,-0.00885704147482404,-0.008245662513847627,-0.007697975672569189,-0.0076597644875081635,-0.007799871118178653,-0.00757060636555736,-0.006602597274522591,-0.0046283694792219375,-0.002182874069105082,0.00010977809400608217,0.0018802150766793042,0.003217594765090902,0.004644134933198165,0.00619804283648735,0.007548161420387515,0.008312378834288401,0.00836332970075295,0.007777426173008809,0.006732994711851989,0.005688564822525077,0.0047460303788076285,0.0036251781193586646,0.0023005341827758196,0.0009376798470469021,-0.00041243708643186,-0.0013804454701431695,-0.0018771869463617367,-0.00125307616313134,0.0009758910321079279,0.004937083946367896,0.010477660983064277,0.01636213632756503,0.021151234845849094,0.02381325454126877,0.024577470383339746,0.024399154139438137,0.023838726044926272,0.022577772656211494,0.020590806751337228,0.018654783853777966,0.017355619280002163,0.016578663756527664,0.01582717973671067,0.014846436465677055,0.01377653114311787,0.013101477352572463,0.013636426084277288,0.015546969619029504,0.01869299503883899,0.0228834621366997,0.027417814181810565,0.031213429747657492,0.0337226125619826,0.03494536262478589,0.03509820736503,0.03358250750314202,0.0304619457278405,0.026195071978156813,0.021495127652248786,0.016591403437931185,0.011700411045867568,0.006694784312705917,0.0018420038916182784,-0.0022338217919098137,-0.005354375708061798,-0.007850819626898339,-0.010754845328172735,-0.014423087657433066,-0.018498913340961157,-0.022116204803756936,-0.02443433169277692,-0.025313181090030976,-0.025453294008021096,-0.02574623594795624,-0.0262557210351531,-0.026943514507102025,-0.027975208644600187,-0.02961827388392522,-0.031847238721419625,-0.03363041687873478,-0.034190837114097115,-0.03315915083574849,-0.0314396632263014,-0.030025857238192986,-0.02945269732142714,-0.029809329809230352,-0.030331546718681192,-0.030433440592460746,-0.03005132874185049,-0.029439957640023613,-0.02901963460435233,-0.028599319427830585,-0.02786057508941711,-0.02630666404246811,-0.023924854464729597,-0.0212500950879064,-0.018944707880289947,-0.017187009085781833,-0.015836893645541483,-0.014575932397677167,-0.013022021350728169,-0.010958633075731847,-0.008653245868115389,-0.00657712419903518,-0.004360893541539618,-0.0013549716087408036,0.0028482233817991183,0.008006689353800195,0.013356215966596124,0.01841278492115783,0.022870722455296182,0.026768231894922664,0.030067102054976258,0.03304755091228766,0.035722310289110853,0.038358866340022564,0.040384043429957855,0.04084256979154063,0.03959434822507983,0.036779483789416055,0.032448911632714766,0.027341399670838054,0.022628715663526502,0.019584584117496574,0.018833100097679575,0.020539855884872678,0.024399154139438137,0.029544885145525415,0.035072728002222955,0.03992551706837509,0.04279132451135387,0.04266395913391681,0.038881075390323865,0.03202859645619302,0.023876937229987294,0.015954552973297266,0.009025643809894833,0.003548755749236613,-0.0009473890403879945,-0.005239743724708628,-0.009391990206528865,-0.012767282736704508,-0.014805199508043322,-0.015416570609870199,-0.014792459826639803,-0.013646132133958563,-0.012767282736704508,-0.012321488197375718,-0.011493589666586212,-0.009774102057139123,-0.007315866965618746,-0.0046538433406243035,-0.002883406436542577,-0.002845195251481551,-0.004106154141601004,-0.006322384799096565,-0.009366518702871359,-0.013149394587314768,-0.017148797900720807,-0.020906202281506713,-0.023733798539424467,-0.024918337417166734,-0.024676338484546596,-0.023733798539424467,-0.022689372579672327,-0.022116204803756936,-0.022218106536686034,-0.022765794949794377,-0.02346632810314683,-0.024230543945217807,-0.02462538761808205,-0.024612647936678524,-0.024115910390034728,-0.023109687756194073,-0.021492094020526542,-0.019097552620534048,-0.016142575266880153,-0.012932867158352134,-0.009914207115979705,-0.007379552012082138,-0.005099637094038138,-0.002756037129530747,-0.00028506754364554407,0.002275060321373453,0.004695081870087943,0.006809417081974041,0.009012911987640851,0.011674931683060523,0.01473180291049398,0.018183517810791673,0.021775345629079488,0.025214320847973665,0.027710763980895253,0.029175512976318676,0.029544885145525415,0.029009936413820592,0.027710763980895253,0.02549453096565483,0.02265419502633355,0.019610063480303613,0.01661687494158869,0.01377653114311787,0.010834293470867493,0.007764688849350149,0.0048861370094781175,0.002478851998507335,0.0010777864777173918,0.0008485217250960982,0.0015872652775946185,0.0029755934747259017,0.004491290978869016,0.006057936991731814,0.007509949449411536,0.00920396791294598,0.011738622230928593,0.01493559851720263,0.01789056801170699,0.019469950562313494,0.01874394590530354,0.015508758433968478,0.010210182687637097,0.004083708410516206,-0.0013294977473384377,-0.004972267001111356,-0.006806388951656473,-0.007685238348910529,-0.00885704147482404,-0.010691162639454205,-0.01304749285438567,-0.015200043180907565,-0.016473736251025863,-0.016715735183646,-0.01652468711749041,-0.01683036873882908,-0.017951224927852814,-0.01936502305681169,-0.020524090430896452,-0.021122721851319803,-0.021160940895530368,-0.020906202281506713,-0.020320294824187797,-0.01930134036809316,-0.017658275128768126,-0.015340148239748148,-0.01284370510682656,-0.010742105646769215,-0.009264624829091805,-0.008054614447692036,-0.006309647475437906,-0.0036858350355044893,-0.000756334922687259,0.0021731648757639895,0.0044276059324056235,0.005395615023440392,0.004937083946367896,0.0038671801956386186,0.00317938436594483,0.0038034951491752265,0.006261728668865696,0.010566815175440312,0.015890870284578737,0.02062901793639825,0.023571255608648627,0.024564738561085764,0.02411894402175697,0.022870722455296182,0.021737134444018466,0.021495127652248786,0.02243765973822137,0.024551998879682242,0.02749423655193262,0.030703952519610174,0.033098501778752204,0.03402830204247081,0.03351881695527395,0.03113700737753544,0.026577175969617537,0.020310588774506522,0.01333073660378908,0.006860364804778773,0.001498106369728861,-0.002794248314591773,-0.006169540844767416,-0.009188202458969752,-0.012028538398291034,-0.014435827338836586,-0.016244469140659707,-0.01760732426230358,-0.018575335711083208,-0.019186706812910084,-0.019823557277544,-0.020294823320530293,-0.020409456875713373,-0.02006555621016414,-0.01885554582876437,-0.016983213479073184,-0.01458866421993115,-0.011595483540365766,-0.007799871118178653,-0.003189093559285922,0.0016127391389969847,0.006274465206609402,0.011216405321477753,0.017024458295856453,0.02409347251809947,0.03211775850771859,0.04033310042264285,0.047236530223238246,0.051032145789085166,0.0504462461909158,0.045338718510740006,0.036282738383622726,0.02479399781230238,0.012986843797389387,0.0026189586291778246,-0.005112373631781845,-0.010487367032745554,-0.01451224970895864,-0.018116801490350897,-0.021899677374794306,-0.026408557916247664,-0.03202555496532124,-0.03862329528542842,-0.04570504132992542,-0.05239194370155817,-0.05763956858142501,-0.060403490009773776,-0.0604162296911773,-0.0582382078609979,-0.055143125448503416,-0.05184425528844983,-0.048634547179921814,-0.04536114852352572,-0.0419985956747536,-0.0381138180573811,-0.03337567040556159,-0.02778415271929506,-0.021530305205587564,-0.015200043180907565,-0.009137251592505204,-0.003048986928615433,0.0031284366431400977,0.009063854994955859,0.014094960305009598,0.017826885322988456,0.019750168539144193,0.019941216605299787,0.018756685586707064,0.01696077560713792,0.015483286930310973,0.014922858835799106,0.015292231005005843,0.016311185461100483,0.0174447734723782,0.018068884255608597,0.017992469744636082,0.017355619280002163,0.01669329731171074,0.016642346445246193,0.018196257492195195,0.021418705282126735,0.02512516665559763,0.028385825630590195,0.03104785318515941,0.03308576209734868,0.034015562361067286,0.03351881695527395,0.03179932934582687,0.029099090606196625,0.025558221513522897,0.02145691646718776,0.017037190118110435,0.012668414635497657,0.00855437776690854,0.004784240777953701,0.0012943154785099334,-0.0020045562533735667,-0.004946793139708989,-0.006780915090254107,-0.006882810535863571,-0.005227006401049969,-0.002157400207702716,0.0019948478459474277,0.0063890971899625715,0.009802599333369334,0.011050820899830126,0.009509649534284648,0.005408351561184097,-0.0004506480357183998,-0.00669175618238835,-0.011595483540365766,-0.014282982598592484,-0.015085409625724487,-0.014996247574198913,-0.01497077607054141,-0.01555667566871078,-0.01741626833699845,-0.020995356473882745,-0.025376871637899045,-0.029185219025999957,-0.03114670556806718,-0.030700918887887927,-0.02779689240069858,-0.023886643279668576,-0.02009103557297118,-0.016766686050110547,-0.014040975806822805,-0.012092228946159104,-0.010461895529088052,-0.00917546277756623,-0.008347564246776722,-0.007812608441837314,-0.007112075288484865,-0.006016697676353221,-0.004819423832697159,-0.003800467804772613,-0.002908880297944943,-0.0020937151612393243,-0.0014313931929479014,-0.0006671762505959873,0.0005428346023527528,0.0023260088300931393,0.0047460303788076285,0.007369843604656,0.009879021703491385,0.011942409978487707,0.013827482009582417,0.016005503839761816,0.0190241560229847,0.023469361734869073,0.02894625372510206,0.03381176675435864,0.03657568818270741,0.0365502166790499,0.03425756129368743,0.031175218562596467,0.028309403260468144,0.025685586890959955,0.023341988498282475,0.021304071726943655,0.019826590909266247,0.01869299503883899,0.01752119584250025,0.016132869217198875,0.014642648718117943,0.013190631544948499,0.011789565238243602,0.01031208442056619,0.008961961121176303,0.008006689353800195,0.0075863718195335866,0.007509949449411536,0.007943006665081664,0.008821856062335721,0.009509649534284648,0.009254910920260989,0.008146794412640776,0.006490993421486989,0.004580449886734773,0.002517062397653407,0.0005173606623588914,-0.0014441305166065614,-0.0033674105891024837,-0.005086899770379479,-0.006437016782449736,-0.007532395966411288,-0.00885704147482404,-0.010563789402867608,-0.012576226811399378,-0.01452498153121262,-0.015722260090358407,-0.015696780727551363,-0.01425750323578544,-0.011238851052562551,-0.007022916380619106,-0.002870669112883917,-0.00028506754364554407,-0.0004379110264257214,-0.0033801479127611436,-0.007914501529701915,-0.012754543055300988,-0.016715735183646,-0.019186706812910084,-0.020320294824187797,-0.021199152080591397,-0.0225237881580247,-0.024281494811682354,-0.026217509850092073,-0.028128045525694752,-0.0297329074391083,-0.030484383599775757,-0.030165962297033565,-0.029057845789413356,-0.027516674423867876,-0.025631610251922704,-0.023593693480583888,-0.02160672757570962,-0.019505135974801815,-0.016881319605293627,-0.0133659220162774,-0.009200934281223734,-0.0048831088791605505,-0.0008454935947785306,0.0027718017975920206,0.005433825422586464,0.006720258174108283,0.006911312527583504,0.006682047774962211,0.006682047774962211,0.007497212125752876,0.009560600400749195,0.01288494992360983,0.017151823673293515,0.021405973459872753,0.024641160931207814,0.026309697674190353,0.02629696585193637,0.02485768836017045,0.022705138033648556,0.020654489440055757,0.01940626787359496,0.019533641110181563,0.02098565042420147,0.022870722455296182,0.024017050147977417,0.02378778303761126,0.021928190369323593,0.019151529259571302,0.01647676988274811,0.014833704643423073,0.014528015162934867,0.014973809702263655,0.015890870284578737,0.016527712890063117,0.01618382008366342,0.014438853111409293,0.011802304919647124,0.00920396791294598,0.007191525788924484,0.005624880561976639,0.004300236625393793,0.0031029627817377317,0.0024024304143002374,0.0023514819055805514,0.0025680101204581386,0.0025934847677754587,0.0018802150766793042,0.0005300975930600743,-0.0007053871212910317,-0.0009346525026442884,0.00027535850748744244,0.0021604283380202835,0.003548755749236613,0.0036379146571023707,0.0023387453678368453,-0.00039970015573067706,-0.004564684432758545,-0.009468412576650915,-0.014117398176944858,-0.01767101481017165,-0.019950922654981062,-0.0212246235842489,-0.02165767844217417,-0.021708621449489176,-0.02151757338333359,-0.02113546153272333,-0.020676927311991018,-0.020294823320530293,-0.01987450028485901,-0.01955607898211682,-0.019505135974801815,-0.019441445426933743,-0.018982919065350972,-0.018040379120228846,-0.016715735183646,-0.01536561974340565,-0.014295722279996004,-0.013416872882741949,-0.01239791056749777,-0.011098738134572428,-0.009073568903786675,-0.006347858660498932,-0.003112671975078824,0.00012251502470726514,0.0032430694124082216,0.0058796191760002985,0.008057640220264742,0.009700705459589778,0.011089032084891154,0.012388204517816494,0.013509060706840229,0.014184114497385632,0.014591697851653396,0.01469359172543295,0.014833704643423073,0.015330442190066872,0.01582717973671067,0.015406864560188922,0.014107692127263581,0.012795787872084257,0.012158937407450339,0.01255378108031458,0.013661897587934792,0.014986541524517637,0.015980024476954773,0.0168206626891478,0.017737723271462884,0.018463735787622376,0.01894774151201219,0.01963553498396112,0.02060353857359121,0.021698923258957437,0.02209376693182168,0.020947439239140442,0.017763202634269927,0.012668414635497657,0.006147095113682618,-0.0009091786412419225,-0.007405025873484504,-0.012168643457131615,-0.01497077607054141,-0.01607889257816162,-0.0160661528967581,-0.015645837720236352,-0.015238254365968592,-0.015136360492189034,-0.015607626535175329,-0.01646100442877188,-0.017136058219317286,-0.017199740908035815,-0.016945002294012156,-0.016371842377246308,-0.015964259022978544,-0.01626994850346675,-0.017581852758646075,-0.019517867797055798,-0.021963360063512835,-0.02452349374430249,-0.026803409448261446,-0.028357320495210444,-0.028879529545511748,-0.028064362836976223,-0.026090136613505472,-0.023593693480583888,-0.0212500950879064,-0.019454185108337265,-0.018231435045533977,-0.017441747699805495,-0.016664792176330993,-0.015569415350114304,-0.014040975806822805,-0.012270545190060711,-0.01006705185622381,-0.006882810535863571,-0.002615930498860257,0.0021222171529592577,0.006567415005694087,0.010197450865383114,0.013343476285192602,0.016413079334880037,0.019240683451947335,0.021342282912004684,0.02234850554584534,0.021813556814140517,0.01971195735408317,0.016464030201344584,0.012732105183365726,0.009624283089467724,0.008223216782762829,0.00875817337361719,0.01055408335318633,0.012579260443121625,0.013916636201958451,0.014324219556226214,0.0138402138318364,0.012795787872084257,0.01139472156537936,0.00991723288855241,0.008286907330630897,0.006873101342522479,0.006541941144291721,0.008083111723922246,0.011471143935501412,0.015546969619029504,0.019164268940974824,0.021304071726943655,0.02079459449889634,0.017546675205307293,0.012464626887938545,0.007051419158253994,0.0028354868440554123,0.0004027280502737584,-0.0008582309184371906,-0.0012785500245337058,-8.127625946913948e-05,0.0033449648580176857,0.008503434759593531,0.013942115564765495,0.018565629661401933,0.021698923258957437,0.023749571852550236,0.025418116454682317,0.02704844201260383,0.028232980890346093,0.028016453461383456,0.026246014985471824,0.0232528264467569,0.019508161747374516,0.01566160317421258,0.012515569895253554,0.010464921301660756,0.00933133329038304,0.00791753516142416,0.005548458191854587,0.0029119084282625105,0.0005300975930600743,-0.0014696043780089276,-0.0033674105891024837,-0.0053671130317204585,-0.007124812612143525,-0.008653245868115389,-0.010054312174820288,-0.011671905910487819,-0.01451224970895864,-0.01871544076992379,-0.0234281169180858,-0.02765677948270846,-0.030866495450386017,-0.03281525017019926,-0.033643148700988765,-0.033337467079650095,-0.03189818958788418,-0.02945269732142714,-0.02606466510984797,-0.022154415988817965,-0.018728180451327313,-0.01663932067267349,-0.015633098038832834,-0.015085409625724487,-0.01458866421993115,-0.014461298842494091,-0.015543943846456798,-0.01760732426230358,-0.01993819083272708,-0.021568516390648593,-0.02181052318241827,-0.02001461320284913,-0.0163463708735888,-0.011378956111403132,-0.005838380646536659,-0.0002723306129443611,0.005217297993623829,0.010745139278491458,0.016897085059269852,0.02366040980102466,0.030079841736379776,0.03481798938819929,0.036626639049171954,0.035149150372345006,0.030844057578450754,0.02513789847785161,0.019877533916581255,0.01636213632756503,0.014451592792812815,0.013190631544948499,0.011407461246782881,0.008961961121176303,0.006567415005694087,0.005612143238317979,0.006834890943376407,0.01003186644373549,0.01390390437970447,0.01674424031902575,0.017228246043415565,0.015101175079700716,0.010859772833674538,0.005841407990939272,0.001396210924119397,-0.001698869916545175,-0.003290989004895386,-0.003431095635565876,-0.002666878221664989,-0.0015969736850207571,-0.0001704349315604111,0.0015235802311312266,0.003383176043078711,0.004733293055148968,0.004847925824417092,0.0038162324728338863,0.0021731648757639895,0.0007211519465352961,-0.0003487523543344497,-0.0013931827938018296,-0.0029470914830059683,-0.005392586107207871,-0.009099040407444178,-0.013964553436700755,-0.01914849562784906,-0.023606433161987413,-0.02684162063332247,-0.028459214368990002,-0.027720470030576528,-0.024294226633936336,-0.0188937570138254,-0.01317486609097227,-0.008615034683054364,-0.005940275306231169,-0.004564684432758545,-0.003724045434650561,-0.003443832173309582,-0.0035075172197729736,-0.0040297325573939065,-0.004666580664282963,-0.0046538433406243035,-0.0029216176216036024,0.0006192563437428414,0.004682345332344237,0.007293422020448902,0.006974997574046897,0.003956339103504377,-0.0008327570570348246,-0.0063860690596450045,-0.01188843333945045,-0.016511947436086888,-0.01989997964766605,-0.02225630986259752,-0.023899382961072094,-0.024905597735763212,-0.02471454966960762,-0.022931371512292464,-0.019377762738215214,-0.014282982598592484,-0.008373035750434226,-0.002717825944469721,0.0017528457696674743,0.005051717501550973,0.007395316680143412,0.008770905195871174,0.009471438349223621,0.010821561648613512,0.013802010505924913,0.018374573736096803,0.023341988498282475,0.0271376040641294,0.028958985547356042,0.028691515111078404,0.027226758256505435,0.02577474894248553,0.025227060529377187,0.02562190420224143,0.026347908859251378,0.026538964784556508,0.025736537757424502,0.023762311533953757,0.02082007386170338,0.01745751315378172,0.014426121289155311,0.012133465903792834,0.011025349396172623,0.01133103887666083,0.012986843797389387,0.015113914761104236,0.016565924075124142,0.016527712890063117,0.014833704643423073,0.011916938474830201,0.008337850337945906,0.00479697810161236,0.002275060321373453,0.0010777864777173918,0.0007975740022913663,0.0006702040665475732,-0.00019590887155427247,-0.002106452484897984,-0.004781212647636133,-0.007710712210312895,-0.010729373824515233,-0.013837188059263693,-0.016894059286697148,-0.019721663403764446,-0.022103472981502954,-0.02368284767295992,-0.02420506458241076,-0.02386117177601107,-0.02275305526839086,-0.020855251415042166,-0.018282385911998524,-0.015467521476334747,-0.013200337594629775,-0.012104960768413085,-0.011939384205915,-0.012168643457131615,-0.012423382071155276,-0.01225780550865719,-0.011480849985182688,-0.010410944662623503,-0.009315567836406812,-0.008283873698908652,-0.007124812612143525,-0.0054180607545251894,-0.002768773667274453,0.0005810454730477971,0.004211077717528036,0.007420790541545778,0.01023566205044414,0.012986843797389387,0.016171080402259903,0.019661006487618624,0.023010827514136762,0.025876642816265085,0.028220241208942568,0.029863314307417146,0.030805846393389732,0.030996902318694862,0.03055110777936607,0.029481202456806885,0.02753244773699364,0.024220837895536532,0.019431739377252465,0.013419898655314655,0.006847627481120113,0.0010395760785713198,-0.0034693068206269016,-0.006729966581534422,-0.00878061910470199,-0.00981231324220015,-0.01006705185622381,-0.009366518702871359,-0.007710712210312895,-0.005379849569464164,-0.0027815109909331134,-0.0003614892850356328,0.0010395760785713198,0.0012433669697902475,0.0006829410758402517,0.0002116736967985368,0.0005555715330539358,0.001854741215276938,0.0034468603036271494,0.004402132856918211,0.00418560385612567,0.0027335913984459486,0.0004409389209688027,-0.002195610606848788,-0.0047430022484900615,-0.006819126275315133,-0.007914501529701915,-0.0076088175506183854,-0.005940275306231169,-0.00312540851282253,0.00018619983539617084,0.002988330012469608,0.004109182271918572,0.0025552735827144325,-0.0017625541770936127,-0.007685238348910529,-0.013990032799507798,-0.01949239629339829,-0.02295684301594997,-0.024001276834851648,-0.02328801185924522,-0.021823255004672255,-0.020485879245835423,-0.01975987458882547,-0.019810817596140482,-0.020740617859859086,-0.022039782433634886,-0.02289316032723144,-0.02290590000863496,-0.022179895351625005,-0.020893462600103187,-0.019645241033642395,-0.018486173659557636,-0.017187009085781833,-0.015531204165053276,-0.01355697794158253,-0.011799271287924878,-0.010551057580613624,-0.009761362375735601,-0.008946195667200075,-0.007710712210312895,-0.005940275306231169,-0.003736782758309221,-0.001151180717521876,0.0016127391389969847,0.0044276059324056235,0.006847627481120113,0.008350590019349428,0.009178488550138936,0.009789867511115352,0.01107630026263717,0.013560003714155236,0.016858873874208827,0.02029785695225254,0.023609466793709656,0.026526232962302526,0.028449508319308727,0.028653303926017375,0.02730318062662749,0.025303482899499238,0.02352030474218408,0.021928190369323593,0.020119540708350935,0.018196257492195195,0.016578663756527664,0.015890870284578737,0.016604135260185168,0.018527418476340908,0.020960178920543963,0.023010827514136762,0.023456622053465548,0.021686183577553916,0.018081623937012115,0.013674637269338314,0.009420495341908613,0.005752249868988469,0.0028482233817991183,0.0010905238013760518,0.0005810454730477971,0.0005300975930600743,7.15671997335892e-05,-0.0008582309184371906,-0.001724343777947541,-0.0019663458542274943,-0.0016351848700817831,-0.0013422350709970977,-0.0014568678402652215,-0.0019153981314227627,-0.0025012977295921337,-0.003036250390871727,-0.00340562177416351,-0.003724045434650561,-0.003953310973186809,-0.0040042586959915406,-0.0040042586959915406,-0.004526474033612473,-0.005787432923731926,-0.007812608441837314,-0.010398212840369521,-0.012920127476948613,-0.014690565952860246,-0.01535288792115167,-0.015008987255602436,-0.01433393346505703,-0.013786237192799146,-0.013646132133958563,-0.01393908193304325,-0.014474038523897611,-0.014614143582738194,-0.014384876472372039,-0.013977293118104275,-0.013671603637616069,-0.013340450512619896,-0.013060232535789194,-0.012983810165667143,-0.01317486609097227,-0.013582449445240036,-0.01374802600773812,-0.013187605772375793,-0.011862961835792949,-0.010372733477562478,-0.009455672895247394,-0.009799573560796627,-0.01098411243853889,-0.01206674958335206,-0.01206674958335206,-0.010500106714149077,-0.007596080226959726,-0.004360893541539618,-0.0010620218096561182,0.002669906351982557,0.006987734111790603,0.011432932750440385,0.015929081469639762,0.019928484783045805,0.0228834621366997,0.024017050147977417,0.022998087832733237,0.02062901793639825,0.01785235682664596,0.015929081469639762,0.015419604241592446,0.016132869217198875,0.017024458295856453,0.017228246043415565,0.01696077560713792,0.01642581901628356,0.015890870284578737,0.015279491323602323,0.014668120221775448,0.013980326749826522,0.01326705391507055,0.01280852755348778,0.013228842730009524,0.01519033713122629,0.018247200499510202,0.021138495164445572,0.022832511270235153,0.022526821789746944,0.01997942779036081,0.0160182356620158,0.011738622230928593,0.008223216782762829,0.005675828284781371,0.0036379146571023707,0.0019184254758253761,0.0008739955864984641,0.0013579997390583713,0.0036633885185047366,0.006873101342522479,0.009293122105322014,0.009280390283068032,0.006223516697889716,0.0005810454730477971,-0.0066153345981812516,-0.0132385487796908,-0.018142280853157944,-0.0212246235842489,-0.023504531429058315,-0.025109393342471864,-0.025720764444298737,-0.025173076031190393,-0.024026748338509155,-0.023135167119001116,-0.02304600506747554,-0.023580953799180366,-0.0239503259683871,-0.0232752721778417,-0.02141567165040449,-0.01833332891931353,-0.014104666354690874,-0.00963399699829854,-0.006029434214096927,-0.003787730481113953,-0.002157400207702716,3.335632903854489e-05,0.002988330012469608,0.0057013013602687825,0.007446264402948143,0.008567117448312062,0.009484178030627144,0.009929972569955934,0.009433227164162596,0.007701003802886757,0.005026243640148607,0.002389693090641577,0.0006319932744440243,-4.8545361550947625e-06,0.0006192563437428414,0.0023132715064344794,0.004860662362160799,0.008083111723922246,0.011483883616904934,0.013967587068423,0.01469359172543295,0.013509060706840229,0.010897984018735563,0.007853846971300952,0.005217297993623829,0.0033067536729566595,0.002606221305519165,0.0032558067360668815,0.005013506316489948,0.007344369743253634,0.009420495341908613,0.011050820899830126,0.012783048190680735,0.014604437533056918,0.01585265909951771,0.015980024476954773,0.014324219556226214,0.011280088010196282,0.007815636572154882,0.004962558593685216,0.002950119613323536,0.001931162799484036,0.0017273711223501544,0.0019948478459474277,0.0023642192292392113,0.0024024304143002374,0.0018420038916182784,0.0011414715241807837,0.0013707370627170311,0.0032558067360668815,0.006694784312705917,0.010655977226965886,0.013687376950741835,0.014770014095555005,0.013572743395558758,0.010375767109284721,0.005764987192647129,-0.00025959368224317815,-0.007468710134032942,-0.015072669944320966,-0.02160672757570962,-0.025797186814420787,-0.027300146994905242,-0.027070887743688626,-0.026586874160149272,-0.026344875227529135,-0.02607740479125149,-0.025376871637899045,-0.02431969813759384,-0.023746538220827992,-0.023835700272353565,-0.024166861256499274,-0.024166861256499274,-0.023835700272353565,-0.023606433161987413,-0.023899382961072094,-0.025122125164725846,-0.027758673356488014,-0.031847238721419625,-0.036585386373239145,-0.04090321098938737,-0.04373081510645467,-0.044418616437553134,-0.04308123281956677,-0.03978236265951318,-0.035222531251595274,-0.030140490793376065,-0.02549149733393258,-0.021568516390648593,-0.01791301374279179,-0.013544238260179007,-0.007927241211105437,-0.0010874956710584841,0.006440044912767304,0.014031269757141529,0.021265860541882634,0.028513198867176796,0.036040739451002585,0.04358101971623189,0.05113403966286473,0.05817758238145024,0.06401110685948644,0.06792135598051645,0.06910590271740824,0.0670170350796049,0.06148919222290734,0.052993632331152396,0.043389963790926765,0.03525104424612456,0.030958691133633833,0.03172290697570482,0.03661389936776843,0.043249858732086185,0.04881591277384475,0.05141424978054589,0.05048445737597682,0.04649778588482476,0.04006561426806613,0.03202859645619302,0.02332924881687895,0.015292231005005843,0.008605328633373087,0.003536019211492907,-0.00028506754364554407,-0.0033164628662977523,-0.006156804307023711,-0.009188202458969752,-0.012168643457131615,-0.014537721212616142,-0.015900576334260015,-0.016180786451941178,-0.015760471275419432,-0.015709520408954885,-0.01716152972297479,-0.02001461320284913,-0.023109687756194073,-0.025249498401312444,-0.025962771236068417,-0.025389603460153027,-0.024103170708631206,-0.023211581629973627,-0.023326215185156707,-0.024536233425706017,-0.02681614912966497,-0.029809329809230352,-0.03254777187477208,-0.034330950032087235,-0.03484042726013455,-0.03412715442537858,-0.03216566788331136,-0.029312584403437012,-0.02611560811716298,-0.023071476571133044,-0.020740617859859086,-0.01933955155315419,-0.019059341435473023,-0.018830074325106867,-0.017518170069927546,-0.01490709338182288,-0.011722848917802826,-0.008691457053176416,-0.006322384799096565,-0.004730264924831401,-0.003392885236419804,-0.0017498176393499069,0.00038999111957257543,0.0034595976272858093,0.007306158558192608,0.011432932750440385,0.014922858835799106,0.016948035925734403,0.01726645722847659,0.016311185461100483,0.014540746985188849,0.012566520761718101,0.011483883616904934,0.012069783215074304,0.014069480942202556,0.01642581901628356,0.017546675205307293,0.015980024476954773,0.01164946017940302,0.006159832437341278,0.0016764233995454226,0.00014798896470112648,0.0022623237836297476,0.007255210835387877,0.013254314233667028,0.018565629661401933,0.02241218823456387,0.024131675844010953,0.023405671187001004,0.02085828504676441,0.017674040582744355,0.014910119154395586,0.013356215966596124,0.013470849521779203,0.014986541524517637,0.01719003485835454,0.019673746169022142,0.02269240621139457,0.026437070910776954,0.030780374889732228,0.03427030097509095,0.035735049970514375,0.03460146195923666,0.03100964200009838,0.025010533100414553,0.016973507429391906,0.007713741126545417,-0.00111296953246085,-0.008615034683054364,-0.014665086590053203,-0.019314080049496685,-0.02225630986259752,-0.023186110126316124,-0.022676632898268805,-0.021568516390648593,-0.020549561934553956,-0.01997640201778811,-0.01975987458882547,-0.019734403085167967,-0.019721663403764446,-0.0196707125372999,-0.01963250135223887,-0.01947965661199477,-0.018358808282120574,-0.015989730526636048,-0.013060232535789194,-0.010525578217806579,-0.008958935348603597,-0.00839850725409173,-0.008602302860800382,-0.009213673962627256,-0.009659468501956045,-0.00963399699829854,-0.009328307517810334,-0.00943020139158989,-0.010551057580613624,-0.012538015626338352,-0.014932564885480384,-0.017492690707120503,-0.019963662336384583,-0.022039782433634886,-0.023109687756194073,-0.02226904954400104,-0.019135763805595077,-0.014232031732127936,-0.008704196734579938,-0.003622149989041097,0.0004409389209688027,0.003421386442224783,0.005841407990939272,0.007828373895813541,0.009229439416603485,0.01035029560562722,0.011840516104708149,0.013878425016897426,0.015801708233053165,0.01769951208640186,0.02078186267664236,0.02585117131260758,0.032372489262592716,0.03861360495404622,0.042714910000381356,0.04347912584245234,0.04065152172538504,0.034983565950697376,0.027774446669613782,0.02028511727084902,0.013610954580619785,0.008618068314776609,0.0054210888848427565,0.003497808812346835,0.0017273711223501544,-6.853932090880696e-05,-0.00125307616313134,-0.001189391116667948,0.00012251502470726514,0.0027335913984459486,0.005956040760207397,0.009356804794040543,0.012260839140379435,0.013865693194643444,0.013661897587934792,0.011496615439158916,0.007535424096728856,0.0025552735827144325,-0.002552245452396865,-0.007252181919155355,-0.011111477815975952,-0.01420656022847043,-0.016932270471758173,-0.019505135974801815,-0.02181052318241827,-0.023389905733024775,-0.023975805331194148,-0.023670115850705938,-0.02304600506747554,-0.022447373647052186,-0.022077993618695915,-0.022358211595526617,-0.023695587354363445,-0.02620477016868855,-0.029261641396122008,-0.03202555496532124,-0.033426621272026134,-0.033057249102819396,-0.03136323299702981,-0.028879529545511748,-0.02643403727905471,-0.024561704929363517,-0.023530010791865355,-0.02335169454796375,-0.023784749405889018,-0.024077699204973706,-0.023631904665644913,-0.022065261796441932,-0.019123024124191555,-0.014958036389137888,-0.010334522292501452,-0.005711010553609876,-0.00125307616313134,0.0025552735827144325,0.0052300345313675365,0.006809417081974041,0.007968478168739168,0.009318601468129057,0.010732399597087938,0.011916938474830201,0.012897681745863813,0.014133163630921087,0.016158340720856378,0.01906236720804573,0.02242492791596739,0.02581296012754656,0.028857091673576488,0.031187958243999992,0.032576284869301364,0.03364619019186055,0.034843460891856796,0.03637190043514829,0.03830791547355802,0.03977266446898144,0.03967077059520189,0.037976754489412304,0.03549305103789424,0.03335324039277587,0.031824808708633905,0.030563839601620055,0.029404780086684835,0.02796550259491891,0.02566011538730245,0.022526821789746944,0.019559112613839066,0.01752119584250025,0.016591403437931185,0.016260242453785476,0.01566160317421258,0.013827482009582417,0.010706928093430433,0.0067584693591693085,0.0028482233817991183,-0.0004251740957245384,-0.0028579325751402107,-0.004692054525685329,-0.006245962428974515,-0.007697975672569189,-0.008602302860800382,-0.008576823497993338,-0.007366814688423479,-0.005736484415012242,-0.004475526310807742,-0.003787730481113953,-0.0034947806820292675,-0.0036730977118458294,-0.004246260772271494,-0.005163321354586576,-0.00628417361403554,-0.007787133794519994,-0.00981231324220015,-0.01213043227207059,-0.01458866421993115,-0.017378065011086963,-0.0204476680607744,-0.023389905733024775,-0.02568255325923771,-0.026548670834237783,-0.025134864846129364,-0.021861466189733277,-0.017963964609256332,-0.014919833063226402,-0.013709814822677094,-0.014626875404992176,-0.017327114144622416,-0.020116507076628688,-0.02161946725711314,-0.021428411331808013,-0.02005282438791016,-0.018346068600717053,-0.017123318537913764,-0.016282680325720732,-0.015531204165053276,-0.01451224970895864,-0.013085704039446696,-0.011022323623599917,-0.008309353061715697,-0.005176058678245237,-0.0020682412998369584,2.0619374759913295e-05,0.0007848367572242017,0.0004664128609626641,-5.580235877102582e-05,0.0004154650595664368,0.002606221305519165,0.006236254021548375,0.01035029560562722,0.01423506536385018,0.017686780264147876,0.02066722912145928,0.022896193958953683,0.0243099999470621,0.024424625643095645,0.022972616329075737,0.020259645767191515,0.017559407027561275,0.01596729265470079,0.015788968551649643,0.016514981067809135,0.01739383046506319,0.01783962500439198,0.01785235682664596,0.0177249914492089,0.017928779196768014,0.01861657266871694,0.01938079636993746,0.01971195735408317,0.019151529259571302,0.01745751315378172,0.014349698919033258,0.010006394940077984,0.0051663494849041435,0.000963154494364222,-0.0016097110086794172,-0.0023484545611779377,-0.0019918197156298606,-0.0012912873481923657,-0.0008327570570348246,-0.0009219151789856285,-0.0015205521008136594,-0.002717825944469721,-0.0046283694792219375,-0.00730313042787504,-0.010372733477562478,-0.01335318233487388,-0.01607889257816162,-0.018104069668096915,-0.019097552620534048,-0.0196707125372999,-0.020753357541262604,-0.022154415988817965,-0.023657376169302417,-0.025058442476007314,-0.026446769101308693,-0.027975208644600187,-0.029287112899779512,-0.030038596919596504,-0.0298602806756949,-0.028497425554051027,-0.025886348865946363,-0.022498316654367197,-0.0190466017540695,-0.016168054629687196,-0.013684343319019592,-0.011429906977867681,-0.009124511911101682,-0.006882810535863571,-0.004501000172210108,-0.0022338217919098137,-0.0003614892850356328,0.001459895184667835,0.003599704257956299,0.005854145314597933,0.007892055798617117,0.009713445140993298,0.01164946017940302,0.014145903312324607,0.017100880665978507,0.019673746169022142,0.020972910742797946,0.021023861609262492,0.020463433514750627,0.019673746169022142,0.01854015815774443,0.017215514221161583,0.01655319225287016,0.017240985724819087,0.01906236720804573,0.021405973459872753,0.023940627777855366,0.02583843163120406,0.026691809524800613,0.026258754666875345,0.024704843619926344,0.02243765973822137,0.02047617319615415,0.019571852295242588,0.01932984550347291,0.019087846570852773,0.018005201566890065,0.016043715024822842,0.013738319958056844,0.011738622230928593,0.01029934473916267,0.009382284156847588,0.008630800137030593,0.007459001726606804,0.005624880561976639,0.0033322275343590254,0.0009376798470469021,-0.0013294977473384377,-0.003583938803980072,-0.005176058678245237,-0.005188795215988942,-0.0035329910811753395,-0.001074759133314778,0.0007593628172303403,0.0008612582628398041,-0.000769071853388442,-0.0031636196978835564,-0.005163321354586576,-0.00614406698336505,-0.006169540844767416,-0.005889328369341391,-0.005902064907085097,-0.006220488567572149,-0.0065007018289131285,-0.006437016782449736,-0.0059275387684874625,-0.0052524802624523345,-0.00499774086251372,-0.005889328369341391,-0.008258402195251148,-0.011926644524511478,-0.016333631192185283,-0.020804300548577615,-0.02451075406289897,-0.026739718900393377,-0.027134570432407155,-0.025899080688200342,-0.023555482295522862,-0.021008096155286267,-0.01941597392327624,-0.019912719329069576,-0.02271484408332983,-0.027147302254661138,-0.031987351639409745,-0.03519705974793777,-0.03490410994885308,-0.029758378942765805,-0.01997640201778811,-0.007621554088362092,0.0045677125630761125,0.014655380540371925,0.021928190369323593,0.027086653197664852,0.03142995717662013,0.035658627600392324,0.039059399493375016,0.04009109363087317,0.03736538338758543,0.03104785318515941,0.02255229329340445,0.014209586001043138,0.007662793403740685,0.003599704257956299,0.0021349544766179175,0.0028482233817991183,0.004478553655210355,0.005599406700574273,0.00517908602264785,0.0033322275343590254,0.000924943309303196,-0.0013804454701431695,-0.003214567420688288,-0.00439910394068569,-0.005061425908977113,-0.005328901846659432,-0.005570903922939386,-0.005851117184280366,-0.006335121336840272,-0.007112075288484865,-0.008602302860800382,-0.010805796194637283,-0.012792762099511551,-0.013658871815362086,-0.01290738779554509,-0.010347261973904972,-0.006169540844767416,-0.0005907545092058988,0.005790460268134541,0.011955149659891227,0.01640034751262606,0.017763202634269927,0.015674334996466564,0.010999877892515119,0.005446562746245123,0.0006702040665475732,-0.0024376134690436957,-0.0038641520653210507,-0.003736782758309221,-0.0025904566374578913,-0.0015332894244723195,-0.001138443393863216,-0.0014441305166065614,-0.0015332894244723195,-0.0005907545092058988,0.001498106369728861,0.003943601779845716,0.005675828284781371,0.006032463130329448,0.004911610870880484,0.002644432490580191,-0.0004506480357183998,-0.0039405736495281484,-0.0072649192428140144,-0.009519363443115464,-0.010576529084271128,-0.01104779512725742,-0.011480849985182688,-0.012690860366582457,-0.014563192716273647,-0.016499207754683366,-0.017862062876327238,-0.018409759148585125,-0.018358808282120574,-0.017785640506205187,-0.017085115212002278,-0.016550158621147917,-0.016741214546453043,-0.01800217579431736,-0.019925451151323558,-0.02154304488699109,-0.021848734367479295,-0.020422188697967355,-0.01767101481017165,-0.014002772480911318,-0.009710411509271055,-0.005443534615927555,-0.0017498176393499069,0.0011924192469855155,0.003599704257956299,0.0059942519452684225,0.008885538751054252,0.012146205585196357,0.01519033713122629,0.01823446867725622,0.02152059915590629,0.024921371048888977,0.028589613378149307,0.03232154625527771,0.035594944911673795,0.037390854891242935,0.03685589830038857,0.03410472441259286,0.030194475291562856,0.026386120044312407,0.023762311533953757,0.022628715663526502,0.02293440514401471,0.024208106073282547,0.025927593682729632,0.027214018575101914,0.02739234267815306,0.026437070910776954,0.025150638159255136,0.024564738561085764,0.025150638159255136,0.02648801391809196,0.02758339860345819,0.027748975165956275,0.02629696585193637,0.023189143758038367,0.018642052031523984,0.013088737671168943,0.007446264402948143,0.0032303320887495613,0.0012815781548512733,0.001510842907472567,0.0034468603036271494,0.0059687780838660566,0.007599108357277293,0.007420790541545778,0.005714038683927443,0.00404549722545518,0.0034086499044810774,0.0034341237658834433,0.0031539105045424636,0.0016127391389969847,-0.0020427674384345925,-0.0077743972567762875,-0.014665086590053203,-0.02155578456839461,-0.027936997459539162,-0.03375778225617185,-0.03877614788482206,-0.04245712203633637,-0.04487715065828545,-0.04581968274425804,-0.0454757820787088,-0.044151138142125956,-0.04222785492597022,-0.03999889008847581,-0.037617080510737304,-0.035298953621717324,-0.03301903791775837,-0.030662699843677362,-0.02747846323880685,-0.02298232237875701,-0.017862062876327238,-0.012881916291887585,-0.008436718439152757,-0.004985004324770015,-0.002679615545323649,-0.00125307616313134,-0.000501595837114627,-0.00019590887155427247,-0.0003614892850356328,-0.0010492852719124121,-0.002322980699775572,-0.004348156217880958,-0.00628417361403554,-0.007061127565680133,-0.006016697676353221,-0.003201830097029628,0.0009758910321079279,0.00591782957514637,0.011178194136416726,0.016171080402259903,0.02009406134554389,0.02242492791596739,0.023278305809563943,0.02293440514401471,0.02159702152602834,0.019941216605299787,0.018909530326951165,0.019419007554998483,0.021367762274811724,0.024297260265658583,0.027748975165956275,0.03100964200009838,0.033200395652531765,0.033557028140334975,0.031671956109240264,0.02730318062662749,0.021036601290666014,0.014349698919033258,0.008783644877274696,0.005306456901489587,0.0040327606877114735,0.0045677125630761125,0.0063126763916704276,0.00874543369221367,0.01145840425409789,0.014018537934887547,0.015546969619029504,0.015279491323602323,0.013419898655314655,0.010808821967209989,0.007993957531546213,0.005217297993623829,0.0027208540747872883,0.00028809543818862545,-0.0029725653444083347,-0.007175760334948256,-0.011570012036708262,-0.015123620810785514,-0.017441747699805495,-0.0190466017540695,-0.020511350749492927,-0.02214167630741444,-0.023708327035766964,-0.025109393342471864,-0.026663296530271326,-0.02884131836045072,-0.03164345097386052,-0.03438189303940224,-0.036483492499459584,-0.03773171406592038,-0.037935501813479496,-0.0374642357704932,-0.036878336172323826,-0.03621601420403241,-0.03504421500769366,-0.032878932858917784,-0.029554591195206693,-0.02495654860222776,-0.019008390569008476,-0.011506321488840192,-0.0026031931752015973,0.007000471435449263,0.016120129535795353,0.02378778303761126,0.029672258382112016,0.033658929873264076,0.03568409910404983,0.03532746661624661,0.03247439099552181,0.027736243343702293,0.022182921124197712,0.01719003485835454,0.013241582411413048,0.010324816242820174,0.008388801204410453,0.007650056080082026,0.008197745279105323,0.009471438349223621,0.010592294538247357,0.010668716908369407,0.009815339014772854,0.008732694010810147,0.008057640220264742,0.007637319542338319,0.006911312527583504,0.005688564822525077,0.004478553655210355,0.0039181279184433504,0.0039181279184433504,0.003969075641248082,0.0040072868263091085,0.004160129994723304,0.004478553655210355,0.00479697810161236,0.004847925824417092,0.004440343256064283,0.0034341237658834433,0.0019056889380816703,0.00036451717957871406,-0.0006671762505959873,-0.0009856002254490205,-0.001100232994717144,-0.0014823417016675872,-0.0020682412998369584,-0.002908880297944943,-0.003902363250382077,-0.004717528387087696,-0.005035952047574747,-0.004297208495076226,-0.0019790823919712004,0.0016509495381430567,0.005726776007586102,0.009356804794040543,0.01138198188397584,0.010961666707454094,0.008567117448312062,0.005573932053256953,0.0036633885185047366,0.003586966934297639,0.0049752959173438764,0.007051419158253994,0.00868175100349514,0.00874543369221367,0.0063508867908165,0.0012688408311926132,-0.0053416391703180926,-0.011722848917802826,-0.016588369806208942,-0.01922491799797111,-0.01936502305681169,-0.017594592440049597,-0.01484341069310435,-0.011926644524511478,-0.009353779021467837,-0.00741776241122821,-0.006704492720132056,-0.00743049973488687,-0.00943020139158989,-0.012104960768413085,-0.014575932397677167,-0.016117103763222645,-0.016410053562307333,-0.015709520408954885,-0.014372136790968517,-0.012690860366582457,-0.010551057580613624,-0.007545132504154994,-0.0036730977118458294,0.00028809543818862545,0.003064751596676706,0.004096445734174866,0.003752547426370495,0.002950119613323536,0.0025680101204581386,0.0029246457519211703,0.003994549502650448,0.0059050930374026644,0.008860067247396746,0.01250283807299957,0.016323925142504005,0.019737428857740675,0.022272083175723288,0.023418410868404526,0.02269240621139457,0.02029785695225254,0.017037190118110435,0.013560003714155236,0.010592294538247357,0.008783644877274696,0.008312378834288401,0.008872806928800268,0.009891761384894908,0.010936195203796588,0.011713142868121551,0.012158937407450339,0.012197148592511364,0.011687671364464046,0.010579554856843833,0.009433227164162596,0.008528906263251035,0.007892055798617117,0.00722973697398551,0.006134358575938912,0.004631397609539505,0.0027718017975920206,0.0007466258865291573,-0.001163917255265582,-0.0028197221759941387,-0.004118890679344711,-0.0048066865090385,-0.004844897694099525,-0.004679317202026669,-0.005176058678245237
