-0.009182439398953891,-0.007641439272663671,-0.0063142666363891296,-0.005481094645824637,-0.005245151933916062,-0.005267271705330024,-0.005097688307663335,-0.004566818343249305,-0.0038442452097546243,-0.003062686625758853,-0.0021631566858087933,-0.000961325629612484,0.0007713753909978548,0.0030570666023882914,0.005895747094654614,0.009036727338310867,0.011941769419579607,0.01427169744408533,0.016026520510870165,0.017397937239493694,0.018761979194472214,0.02011127160216072,0.021187761078278796,0.021726001266816772,0.02201355829519828,0.022647652343037113,0.023864230671762906,0.025287257167338307,0.025972965531650072,0.0250808090004887,0.022315860321348743,0.018113135599343366,0.01311410820547748,0.008166690578563458,0.004435854010087873,0.002865362978355534,0.003853371549009336,0.006603575230380342,0.009309534819402358,0.01026068044068167,0.008741800085805414,0.0051584289633909795,0.0007050165317080745,-0.003254389339887398,-0.005886620755399903,-0.007213793391674444,-0.007943741298814134,-0.008762168291609673,-0.010192565011309017,-0.01205798693516366,-0.013716951593126574,-0.014594363126518987,-0.014727081755002763,-0.014719706981357755,-0.015132607864578027,-0.016349186193303823,-0.018568515360739734,-0.021429313349659487,-0.0244891892813049,-0.027158288650665066,-0.028876237849224856,-0.02929651350609014,-0.028581310596719398,-0.026929716162880434,-0.024481819057180953,-0.02158415174955722,-0.018642244899105563,-0.01603950939350835,-0.013857044995255356,-0.011881028763851964,-0.009587965508529157,-0.006211042552964327,-0.0008581010912355751,0.006507721371079484,0.01455187969882183,0.021821855126117628,0.027639309512779053,0.031945258318209234,0.03447426428544062,0.0347175817709942,0.032660456678058905,0.029202429410483236,0.025737022819741495,0.02332598593370387,0.022478068945370425,0.02303842890532236,0.02463841812173052,0.026518580493833054,0.027351752484397546,0.02602457984812301,0.022448574400311453,0.017412682237262646,0.01212609781501525,0.00755471630213859,0.0041335528938416235,0.002076430985571073,0.001361230805912975,0.0014792021618672629,0.0015160682959064978,0.001066303098455415,0.0002626248340361024,-0.000799115185782378,-0.0017944967102727632,-0.002568682340431952,-0.0028414902764755494,-0.0024359646218523913,-0.0014184637809001501,-0.0002461256774304394,0.0004911940461655673,0.0004100887787553037,-0.00023137926930995613,-0.000835981319821613,-0.0009392058581985217,-0.0007475031440699768,-0.0004968145244882348,0.00012990734293259496,0.0019879528098194366,0.005224783728111803,0.008948248252655017,0.011941769419579607,0.013423780455751884,0.012937150034165781,0.01059247246237004,0.006795278399460993,0.0023050002886909594,-0.0020304389672292328,-0.005517959415007554,-0.007921621527400172,-0.009344648022975572,-0.010067221156470253,-0.010421137499093649,-0.011121590861174365,-0.013237695945185477,-0.01721922295305123,-0.021967558087718525,-0.025108538331374775,-0.024828356076638275,-0.020640380901922918,-0.013945524080911204,-0.0070810793127117355,-0.0018682285233991265,0.0006755238064575292,0.0007345092569586198,-0.0009392058581985217,-0.00327650911130136,-0.00542211010522776,-0.00708844953683568,-0.008467236489583155,-0.010354778184851761,-0.013377784797793195,-0.017646864284519392,-0.022137141485385214,-0.025093793333605827,-0.024857850621697247,-0.020655130449212935,-0.01303124777833587,-0.004131799963375601,0.0033298745384318894,0.007628445840504421,0.008933503254886064,0.00900723734277296,0.009855154331106406,0.012642222781660327,0.017080885666053213,0.02148268833078425,0.023812616355289973,0.023193267305220096,0.020443063623849088,0.017132499982526146,0.014382296301155142,0.01240628006975175,0.010835789947923625,0.009390643680934263,0.007982362183127817,0.0067510388566330674,0.00568929892780501,0.004583319456149025,0.0031455443231878217,0.001007317647954324,-0.002214769182473301,-0.006469105036286865,-0.011165825854481226,-0.015420160343438473,-0.018730723984761416,-0.020802594075465662,-0.02187170877793873,-0.02229197988528295,-0.02212239648761626,-0.021222865182809882,-0.01947541688967006,-0.01682106706759991,-0.013422024340621118,-0.009661695046894988,-0.006107818469539525,-0.0032027772981749964,-0.001005564717488302,0.0008745999293747637,0.0029169754750200416,0.005350132132471631,0.008277289435633271,0.011831170562509796,0.015938041425214315,0.020162885918633654,0.02344395956441869,0.02483749151493512,0.023819991128934983,0.020325094542655332,0.014662478555891641,0.007901257871116977,0.001147408320370468,-0.004684787424443062,-0.008658939658663805,-0.010458002268276563,-0.010369523182620716,-0.008695808977367787,-0.005938230522351771,-0.0032470163860508143,-0.0018756019321878163,-0.002509696889930861,-0.005016583995652495,-0.008526225579701096,-0.011785174904551105,-0.013709576819481562,-0.013967643852325164,-0.013023873004690862,-0.01165983104971234,-0.010435882496862602,-0.009388887565803496,-0.008039595158114992,-0.005694917586319251,-0.002259008270349119,0.001648785559533952,0.004915111477837395,0.006669934544622227,0.006537215916138454,0.0053648771302405845,0.004413734238673911,0.004745528080170706,0.006618320228149294,0.00933902936446133,0.01168370693625707,0.012531623924590514,0.011381404910106608,0.00819618512362243,0.003499457936098579,-0.0017576310311856348,-0.0070147199984698485,-0.012242315330599303,-0.01710124932233641,-0.020352828423062474,-0.020802594075465662,-0.018679114217809545,-0.015656103055347047,-0.013576862740518853,-0.013068112547518787,-0.012979633461862938,-0.011733565137599237,-0.008931751689276362,-0.005141927850491259,-0.0013815976468609151,0.00176675691548824,0.004251524249795912,0.00649297637331053,0.00855747169036977,0.009892019100289322,0.009759300471805548,0.007930747866654883,0.004767647851584668,0.0008524806129129078,-0.0032027772981749964,-0.006528089576883743,-0.008393506951217324,-0.00826816309637856,-0.006019339383883676,-0.0018461092069372708,0.0035879361118502148,0.009228430507391519,0.014234832674902415,0.019160130530402473,0.025899231443763174,0.03628807189282233,0.050238177341445145,0.0648150248118671,0.0754176836518998,0.07849234097748269,0.07330893514344945,0.06219013313868741,0.04875617085479393,0.035993144640316874,0.024896480605053062,0.015068004665466908,0.006367632518471766,-0.0007622495066952496,-0.005982470065179697,-0.009167694401184937,-0.010878273375620782,-0.011881028763851964,-0.012994383009152954,-0.014557498357336074,-0.016304942100954834,-0.017853312451368997,-0.019033026010911874,-0.019460671891901104,-0.01910676009879877,-0.018325197875186147,-0.01741092612213188,-0.016327066421889858,-0.015066248550336142,-0.013798060454658477,-0.0125446128072287,-0.011342784025792925,-0.010236804554136942,-0.009521606194287269,-0.009469991877814336,-0.009846027991851693,-0.01056859657582531,-0.011681950821126302,-0.013318800257196317,-0.01515472763599199,-0.01657775413156739,-0.017160233862933288,-0.016894801155486805,-0.016341811419658812,-0.016363931191072774,-0.01718235363434725,-0.018391557189428035,-0.018959296472546044,-0.018126124481981552,-0.015759327138771848,-0.01255936235451872,-0.009307783253792655,-0.0065796993438356115,-0.004566818343249305,-0.003062686625758853,-0.0018166164816867255,-0.0006000390628651436,0.0006165383559564384,0.001523441249743081,0.0018183694121527475,0.001685651693573187,0.0016561589683226415,0.0022902539260656863,0.0041335528938416235,0.007348268135288985,0.01141089945516558,0.01573159325836471,0.019602521409160654,0.022278995552165826,0.02274350620233797,0.020465187944784115,0.015908546880155344,0.01048187360530023,0.005409116673068509,0.0014275896652027552,-0.0010498038053641202,-0.002259008270349119,-0.002450710984477664,-0.001971453516728142,-0.0010792969855667718,0.0001741465217988343,0.001847862137403293,0.0036321756546781395,0.005092069649149093,0.005998971178079417,0.006544586140262399,0.007141815418918316,0.007783284240402156,0.008019226952310731,0.007355638359412929,0.005490220985079349,0.002784257756440481,-8.39153700859654e-05,-0.0027456391468873302,-0.005090313534018326,-0.006985225453410877,-0.008282908094147511,-0.009042345996825109,-0.009447872106400374,-0.009978742070814403,-0.01084877883056181,-0.01199162307140071,-0.013311430033072372,-0.014579618128750036,-0.015545504198277237,-0.015921540312314596,-0.015501269204970376,-0.014358420414610412,-0.013377784797793195,-0.013805430678782421,-0.01617959824611607,-0.02006527594420203,-0.02432698065728322,-0.027445845679046572,-0.028360117432100842,-0.026701148224616864,-0.022771235533224046,-0.017005400012556616,-0.009934502527986479,-0.001956707154102869,0.00633076774928885,0.014094743822294697,0.02039145385689722,0.024741642205155324,0.02729276794380067,0.028531466043940426,0.02898860646998862,0.02882639329644588,0.02811856971024122,0.026990465917650208,0.025995085303064037,0.02552319987924688,0.02567066350549961,0.026149923702961767,0.02645959595323618,0.025854996450456313,0.02356192864561244,0.01932971392806916,0.013571244082004613,0.0071049506497354,0.0012063937708715587,-0.003025820491719618,-0.005296766250388995,-0.006292146864975167,-0.006845136600803159,-0.007501350420055953,-0.008356642182034408,-0.009411007337217458,-0.010391642954034677,-0.010708689977954093,-0.010170445239895054,-0.008703179201491731,-0.006373251176986007,-0.0031732841179723447,0.0006386576724182943,0.004384241513423366,0.007429372447299825,0.00969294115756366,0.011617347622015184,0.013372170688800016,0.014315936986913256,0.01346801999857981,0.010127961812197897,0.004325255607970168,-0.002782504825974459,-0.009905012532448573,-0.01659987390298135,-0.023184131866923252,-0.029775773703552295,-0.035585844217526585,-0.039508386684795456,-0.040474272754322665,-0.03799688110356421,-0.032503848514467214,-0.025174897645616666,-0.017351937032013938,-0.00988289276103461,-0.0032027772981749964,0.0026662868554382995,0.007731674473450288,0.012428399841165713,0.017066140668284262,0.021342594928655468,0.024535194038305716,0.02579601190985944,0.02488173105776304,0.02220526146427893,0.018791469190010124,0.015746338256133665,0.013888295655445094,0.013121478429601421,0.012089233045832334,0.009434883223762187,0.0048856169327784246,-0.0007032636012420524,-0.005923485524582818,-0.009551096189825177,-0.010988872232690594,-0.010502241811104488,-0.00890225714421739,-0.007309647250975302,-0.006815642055744188,-0.0077299183583195204,-0.00985339821597564,-0.012655211664298512,-0.015538133974153292,-0.01830308265329325,-0.020736234761223774,-0.021746360373578903,-0.019232103953637537,-0.01140914334003481,0.0019437132669915124,0.018791469190010124,0.03534430559470909,0.04748057613882381,0.052818802174670526,0.05149161588983279,0.04565203263271527,0.03777746225216068,0.029467862117929722,0.021556417869150083,0.014706718098719566,0.00899986256912795,0.0044284806012991835,0.001066303098455415,-0.0009392058581985217,-0.0016912721718958543,-0.0016027935411921119,-0.0012193876579829157,-0.000961325629612484,-0.0011677751613184079,-0.0020304389672292328,-0.0033871070584669586,-0.0049207301363516365,-0.006380625950631017,-0.007604574503480756,-0.008305027865561474,-0.00845986626545921,-0.008312402639206483,-0.00817968401072271,-0.008246043324964597,-0.008754793517964665,-0.009720679587491865,-0.010819288835023904,-0.01177780468042716,-0.012470883268862872,-0.01303124777833587,-0.01372432636677158,-0.014933529921852366,-0.016784202298416994,-0.018782338301234346,-0.01994730231348721,-0.019571270748970915,-0.017344566807889993,-0.013488383654863005,-0.008968616458459278,-0.00453732561799876,-0.0007106370100307418,0.0019142205417409669,0.002688406626852262,0.0015676803376188989,-0.0009097131329479763,-0.00399908224479604,-0.006741912517378356,-0.008673689205953823,-0.009750174132550837,-0.010539106580287403,-0.011630341054174433,-0.013075487321163794,-0.014528003812277103,-0.015656103055347047,-0.016437660729438607,-0.01688005615771785,-0.017160233862933288,-0.017256087722234144,-0.016791577072062,-0.01570771737181998,-0.014041373390690996,-0.011785174904551105,-0.008762168291609673,-0.005134553076846251,-0.0013078658337345517,0.0022017752953619437,0.00532063758741266,0.008336273976230149,0.012148217586429214,0.018009911515918565,0.026481715724650138,0.036295446666467335,0.044582927029284326,0.04871190401483962,0.04753958342702601,0.04143457201198307,0.03180516946560152,0.020715875654461643,0.010039482726542048,0.001058930144618832,-0.005989844838824704,-0.011298544482965002,-0.015250576945771782,-0.018148244253395517,-0.019954677087132215,-0.020927937930304428,-0.021414568351890532,-0.02100166746867026,-0.01835469242024512,-0.012478258042507878,-0.0033428679705911402,0.007901257871116977,0.019491922552090844,0.029924997994456855,0.03866961878332205,0.046028096043879016,0.05224369721694963,0.05660127398741594,0.05761877437341607,0.05433028955781752,0.04706033687812704,0.037283457056929564,0.027005215464940224,0.01795829719944563,0.010894774488520503,0.005844132778181681,0.002179655978900088,-0.0011972678865689534,-0.005267271705330024,-0.00999349161810442,-0.014771321297830686,-0.01870860421334745,-0.020905818158890466,-0.02070674476568587,-0.017875436772304024,-0.013208201400126506,-0.008496731034642125,-0.005798141669744053,-0.006336386407803091,-0.009860772989620646,-0.014668097214405883,-0.019239478727282544,-0.02284496962111094,-0.025344481043283355,-0.026509445055536214,-0.026642163684019986,-0.026612669138961015,-0.026752757991568732,-0.026701148224616864,-0.025890100554987402,-0.02392882932135296,-0.020765729306282746,-0.016776827524771984,-0.012662586437943522,-0.009027600999056154,-0.006520714803238735,-0.005857126210340931,-0.0072211681653194535,-0.010222059556367988,-0.014269941328954565,-0.01936482258212131,-0.025256001957627505,-0.030461477518342998,-0.032290030123493664,-0.028065190179595387,-0.017344566807889993,-0.002539189615181406,0.012192457129257138,0.022647652343037113,0.025972965531650072,0.022315860321348743,0.014544509474697886,0.006603575230380342,0.0015308146585317707,0.0004985670000021505,0.0026736598092748825,0.006028465723138387,0.0085279771453108,0.009206310735977555,0.008159320354439514,0.005962106408896501,0.0034699652108480337,0.001486575115703846,0.0007787483448344379,0.0020174455350699823,0.005490220985079349,0.010791550405095699,0.016690109103767968,0.021821855126117628,0.025139793541085583,0.02620153346991364,0.024918595826945958,0.021829229899762638,0.017810833573192904,0.013785067022499226,0.010105842040783936,0.006765783854402021,0.0036542954260921014,0.000918839472202688,-0.001285746517272696,-0.0024359646218523913,-0.0018977217036017786,0.00024050529009819334,0.0032487693165168365,0.006220168892219039,0.008572216688138724,0.010127961812197897,0.01099062834782136,0.010968508576407398,0.009884648876165376,0.00811508081161159,0.00613168980656319,0.004170418572928752,0.0023566127853554665,0.0003068640129023417,-0.0026866536963862397,-0.006992600227055886,-0.012537242583104758,-0.018516905593787863,-0.023825605237928156,-0.02745321590317052,-0.028854122627331957,-0.02864029968683734,-0.02802095063676746,-0.027755513379799916,-0.0279988308653535,-0.028581310596719398,-0.02912693010842345,-0.02902370147547758,-0.0275122004437674,-0.02409841271901965,-0.018598009905798702,-0.011453382882862736,-0.004035947923883169,0.0021206700734468908,0.006323392975643841,0.008985117571358997,0.011115972202660125,0.013807186793913188,0.017810833573192904,0.022780370971520886,0.027690919279730924,0.031333284041784364,0.033766440699235956,0.036133238042445656,0.03951754032117656,0.043823484577085674,0.048417004059460554,0.052604974684654845,0.05525934725433031,0.05470635296898126,0.04963359148722847,0.04052029570940774,0.029467862117929722,0.019359203923607068,0.012008128733821495,0.007451492218713786,0.004826632392181546,0.002998080241982988,0.0011769010456210132,-0.0009760719922377566,-0.003667288403299246,-0.006889376143631084,-0.010015611389518383,-0.012493003040276831,-0.014321555645427496,-0.01603213461986334,-0.01827358810823428,-0.02114913564444405,-0.02367076228850936,-0.02454817837142284,-0.023302105497638077,-0.02041181296365935,-0.01712336909375037,-0.013967643852325164,-0.010671825208771177,-0.006904121141400037,-0.0024359646218523913,0.00272527230593939,0.008063466495138658,0.012811806179327017,0.015945416198859322,0.016697479327891913,0.014758327865671437,0.010290170436219577,0.004251524249795912,-0.0019935728331899978,-0.007243287936733416,-0.011180575401771245,-0.014365795188255422,-0.017698478600992325,-0.021348209037648645,-0.024658772678971586,-0.02663478891037498,-0.026568429596133095,-0.024577668366960747,-0.02156940675178827,-0.018760218529820384,-0.017145488865164333,-0.016784202298416994,-0.01730032726506207,-0.018310452877417196,-0.019386937804014206,-0.02013900548256786,-0.020360203196707484,-0.020308588880234547,-0.020227484568223708,-0.020242229565992663,-0.020330708651648512,-0.020315963653879558,-0.01978509368946553,-0.018369437418014074,-0.015862551222196652,-0.0127215709785404,-0.00943312710863142,-0.006387996174754961,-0.0038294988471293517,-0.0020673051012684678,-0.0010350574427388474,-0.0002018864985642001,0.0010515567358301422,0.002843243661893678,0.004775022625229677,0.006537215916138454,0.00783489855687509,0.008498487149772893,0.008402633290472035,0.007458866992358796,0.006139060030687134,0.005143679416100963,0.004922486251482404,0.0053648771302405845,0.006345512747057804,0.007812778785461128,0.009567597302724896,0.011602602624246231,0.013770322024730271,0.015856937113203476,0.017641250175526216,0.019056906446977672,0.019926943206725077,0.019978552973676945,0.019160130530402473,0.017766594030364978,0.01642467184680042,0.015547260313408003,0.01520072329395068,0.015267082608192567,0.015584129632111983,0.016019145737225154,0.016660614558708996,0.017272588835133863,0.01733894814937575,0.01679333318719277,0.015849562339558466,0.014773077412961452,0.013549124310590651,0.011993379186531476,0.009833034559692443,0.0070238463377245595,0.003573189749224942,-0.00015764731969796078,-0.003659915449462662,-0.006247907322147243,-0.007663559044077633,-0.008290282867792521,-0.00882115283220655,-0.009610085279943118,-0.010553851578056357,-0.01140914334003481,-0.012006372618690728,-0.012780555519137279,-0.013879164766669316,-0.014985144238325301,-0.015198967178819913,-0.013893909764438269,-0.010863528377851829,-0.006270027093561206,-0.0008064885945710676,0.004539078548464782,0.008343648749875157,0.008992487795482942,0.006028465723138387,0.0004690742747516051,-0.006048829379421582,-0.011969503299986748,-0.01622383778894399,-0.01843579673225596,-0.0187970832990033,-0.017720598372406287,-0.015191592405174906,-0.011534487194873577,-0.0075898295057118025,-0.004389861991746033,-0.0024875771185168985,-0.0018756019321878163,-0.002059931692479778,-0.0026571605161835876,-0.003416599783717504,-0.004131799963375601,-0.004404608354371306,-0.003188030935549724,0.0009778249227037788,0.008454247606944968,0.017832953344606866,0.026113058933778854,0.029939747541746872,0.02717479886260691,0.017899312658848754,0.004052447671926571,-0.011423892887324828,-0.025027434019363935,-0.03383840047390783,-0.03617570327205856,-0.03203934241381613,-0.023044043014315535,-0.011748310135368189,-0.0005705463376145982,0.009110461426197763,0.01699241112991843,0.023208016852510113,0.028310268329800804,0.033220821187531904,0.03861063424272517,0.043816114352961726,0.047355236833506106,0.04801882997592497,0.04596171853155287,0.04203917151476293,0.03724659228774665,0.03206322739940299,0.026629183900423927,0.020973938137784184,0.015149108977477748,0.009877274102520367,0.005792523011229811,0.0031676640946017836,0.0016192928342834067,0.0003289836023354614,-0.001374224693024332,-0.0033428679705911402,-0.0052893914767439855,-0.007051584767652764,-0.00862207488948089,-0.00999349161810442,-0.011114216087529358,-0.011740935361723182,-0.011822039673734021,-0.011822039673734021,-0.012183330790002427,-0.013495758428508014,-0.016105868707750236,-0.01975559914440656,-0.023420079128352898,-0.025963830093353228,-0.026811747081686675,-0.02631774188645556,-0.0252486271839825,-0.024201636802444453,-0.02342744935247684,-0.022815475076051972,-0.02197493286136353,-0.02050766682296021,-0.01810400471056759,-0.014410034731083347,-0.009359397570265588,-0.0036820347659245185,0.0011326619577451953,0.004251524249795912,0.005423861670837462,0.004575944682504017,0.0022312680206124894,-0.0006663979221549238,-0.0029299689071792924,-0.003822125438340662,-0.003416599783717504,-0.0023548598548894448,-0.001293119471109279,-0.0007106370100307418,-0.0008212349571963402,-0.001728137850982983,-0.0031511648015104888,-0.004736401740915995,-0.00595298006964179,-0.006668178429491461,-0.007095824310480688,-0.007575079958421784,-0.00820917855578168,-0.008791658287147579,-0.00882115283220655,-0.008069085153652898,-0.00687463114586213,-0.0060562041530665914,-0.0060709491508355445,-0.006815642055744188,-0.007582454732066793,-0.007457110877228029,-0.005665423041260279,-0.002185276002270649,0.002246014383237762,0.006891127709240786,0.011012743569714259,0.01461086423941871,0.01790668743249376,0.020996057909198146,0.02345132978854263,0.024896480605053062,0.0250808090004887,0.02363566273349934,0.020243990230644493,0.014780447637085397,0.007746419471219242,0.00024050529009819334,-0.006336386407803091,-0.010657080211002224,-0.011799924451841123,-0.009337277798851627,-0.003564063864922337,0.004509585823214237,0.013180467519719364,0.02056841202820892,0.025567439422074806,0.02789000177197765,0.028059580620123276,0.026828257293628525,0.024874360833639097,0.022389589859714575,0.019440312785138972,0.01604126550863912,0.012008128733821495,0.0070385913354935135,0.001007317647954324,-0.005960350293765734,-0.01337041457366925,-0.0203970679658904,-0.0261186639437299,-0.02995272732534293,-0.0317886547041386,-0.03194348855451527,-0.030704790454375516,-0.028514955831998576,-0.025705767610030694,-0.022572157590498385,-0.01952703120614299,-0.016968530693852634,-0.014859800383486535,-0.012706825980771446,-0.009860772989620646,-0.005997219612469714,-0.001130909027279173,0.004369495605750199,0.00950123798848301,0.01363022862260149,0.017191484523123024,0.02108453244533293,0.025840246903166296,0.03107521700894076,0.034990389252085696,0.03518209242116634,0.03010195616576855,0.02047993294255307,0.009265299826095499,-0.0001945132717563531,-0.005908740526813864,-0.0073981263366311514,-0.005466349648055684,-0.0016617789916932026,0.00243034459848183,0.005718788923342916,0.0076653151592084015,0.008387888292703082,0.008314154204816187,0.007429372447299825,0.0053648771302405845,0.0020321918976952545,-0.001765003985022218,-0.00525252670756107,-0.007788902898916399,-0.009027600999056154,-0.009116080084712003,-0.008577835346652966,-0.0078921269823412,-0.007685678815491596,-0.00843037172040024,-0.010185194787185072,-0.012728945752185408,-0.015648728281702037,-0.018280962881879286,-0.01975559914440656,-0.018937176701132083,-0.014476394045325231,-0.00542211010522776,0.007930747866654883,0.02336285525240785,0.0375415195402521,0.047355236833506106,0.05056260368853063,0.04696447846930511,0.037917551104768396,0.02614254892931676,0.01444865561539703,0.0046128094516869325,-0.002509696889930861,-0.006786147510685217,-0.00899073622987324,-0.010664450435126168,-0.013230321171540467,-0.017233967950820182,-0.022159261256799175,-0.027047689793595255,-0.03128727473526248,-0.034494618842681686,-0.03621994736440754,-0.03612408895558562,-0.034398764983380826,-0.031523217447171056,-0.02825689334867604,-0.0248725956194662,-0.021326089266234683,-0.017860687225014004,-0.01522108240071281,-0.014446899500266263,-0.01592891053643854,-0.019187864410809614,-0.022793355304638007,-0.025226507412568534,-0.02548456989589107,-0.02365601729074041,-0.020352828423062474,-0.01620909279117504,-0.011645086051943388,-0.006771402512916263,-0.0017355112597716726,0.003536324070137814,0.00970031593120867,0.01698503635627342,0.024601548803026542,0.03096461815187095,0.034761821313822126,0.03549176922096182,0.033751691151945935,0.030330528653553183,0.025596933967133778,0.019985927747321955,0.014293817215499294,0.009796169790509528,0.00763582061414943,0.00811508081161159,0.010349159526337519,0.01273807209144012,0.0137408274796713,0.012612728236601355,0.009914138871703284,0.00718605496174624,0.005962106408896501,0.006839517942288917,0.009346404138106338,0.012185082355612128,0.014006264736638846,0.014116863593708659,0.012885535717692846,0.011167581969611992,0.00962658639284284,0.008631201228735601,0.0082477948905743,0.008410008064117043,0.008756545083574367,0.008734425312160404,0.008151945580794505,0.007377758130826891,0.0068247683949989,0.006706799313805144,0.006869007937826824,0.007001726566310597,0.007082830878321437,0.007326148363875022,0.007451492218713786,0.006802648623584938,0.0050478301063211686,0.0025114493654447767,-2.492979219828486e-05,-0.0016986451257324374,-0.002347486446100755,-0.002568682340431952,-0.0032617627486760874,-0.004751146738684948,-0.006830387053513141,-0.008843272603620512,-0.010671825208771177,-0.012780555519137279,-0.015751956914647904,-0.01960076074450882,-0.023545418433670598,-0.026302996888686613,-0.026479955059998308,-0.023597032750143528,-0.018480036275083885,-0.011873653990206953,-0.004397234945582616,0.003012826604608261,0.009132581197611725,0.013062493889004545,0.015031135346762928,0.01612236982064996,0.01743480200867661,0.019595146635515644,0.02226424600487581,0.023908470214590832,0.022647652343037113,0.017110380211112185,0.007628445840504421,-0.003932723840458367,-0.014859800383486535,-0.022926073933121783,-0.02699607547712232,-0.027187778646202972,-0.025056928564422907,-0.022675386223444255,-0.021414568351890532,-0.021414568351890532,-0.021724245151686004,-0.020832084071003572,-0.017477280886852704,-0.011770429906782152,-0.005517959415007554,-0.0008212349571963402,0.001044183781993559,0.000122534116124748,-0.002450710984477664,-0.005407360557937742,-0.007737293131964529,-0.00907184054188408,-0.009477366651459346,-0.009130825082480958,-0.008157564239308747,-0.006535459801007688,-0.004271890635791745,-0.0011456553899044457,0.0030939322814754204,0.008306783980692243,0.014079994275004679,0.01941081824008,0.023466079335832654,0.02578863713621443,0.026717658436558715,0.027056825231892092,0.027831012681859706,0.02958583574864454,0.031864154006198395,0.03327243550400484,0.032395023970612426,0.02856833081312334,0.02256654803102627,0.015945416198859322,0.009840404783816387,0.004878246708654479,0.0013096187642005737,-0.0008212349571963402,-0.0017207648971463998,-0.001683898763107165,-0.0009908183548630292,-0.0001945132717563531,0.00026999806084394937,0.00014465370555786765,-0.0003493503977881908,-0.0010350574427388474,-0.0016617789916932026,-0.0022000228198480283,-0.0029594616324298377,-0.00437511562912076,-0.0065796993438356115,-0.009580590734884147,-0.01288377960256208,-0.015619238286164133,-0.01659987390298135,-0.01522108240071281,-0.012397149180975975,-0.009617455504067063,-0.008533595803825041,-0.009742799358905827,-0.012913274147621051,-0.016835816614889927,-0.020234859341868718,-0.022085531718433343,-0.022210871023751046,-0.021068026782912145,-0.019239478727282544,-0.017278207493648105,-0.015412785569793462,-0.013879164766669316,-0.012802675290551239,-0.012212820785540332,-0.012094851704346576,-0.0125446128072287,-0.013377784797793195,-0.01390128453808328,-0.013798060454658477,-0.01303124777833587,-0.0117556849090132,-0.010399017727679686,-0.009293038256023702,-0.008607329891711937,-0.008423001496276294,-0.008526225579701096,-0.008282908094147511,-0.00728752747956134,-0.005731782355502167,-0.0042423979105412,-0.0035345711396717917,-0.0039917092909594575,-0.004529952664162177,-0.0023843521251878837,0.004546451502301365,0.0154440362299832,0.026666048669606847,0.03367796161358011,0.033744320927821994,0.027285397719676724,0.01735369769666577,0.0074736119901277496,0.00012990734293259496,-0.0040064556535847305,-0.005208287164733145,-0.0036304227242121173,0.0004248351413805764,0.006367632518471766,0.013121478429601421,0.020037537514273823,0.026518580493833054,0.03215908125870385,0.03676733209028449,0.04051292093576273,0.04386035389578965,0.046536823489273765,0.04746583569057592,0.045629921960343434,0.04044656162152084,0.03253511282322014,0.02337022547653179,0.015016390348993974,0.009036727338310867,0.005659804382746038,0.0038459981402206465,0.0021501627986974365,-0.0001945132717563531,-0.002767758463349186,-0.004647922655260145,-0.005097688307663335,-0.00416866564246273,-0.002819370960013694,-0.002391725533976573,-0.003984335882170768,-0.007788902898916399,-0.012817420288320192,-0.017418296346255826,-0.020463427280132285,-0.02176110992086892,-0.021812719687820788,-0.021141760870799043,-0.020035781399143058,-0.0186938592155785,-0.017809077458062136,-0.017949166310669857,-0.019033026010911874,-0.020633010677798973,-0.022601652135557357,-0.0251527778742027,-0.028315877889272915,-0.03167068107342378,-0.03464945269305835,-0.036323166898311283,-0.03613883850287564,-0.034494618842681686,-0.03202459741604718,-0.029149049879837408,-0.026089173948191997,-0.022594281911433412,-0.018413676960841997,-0.013739071364540533,-0.008695808977367787,-0.0030774329883841256,0.003536324070137814,0.011322420369509728,0.019536162094918767,0.02651121026970911,0.030883518389381175,0.032660456678058905,0.033183956418348995,0.03398763386385451,0.03572033715922538,0.03783644679275756,0.03914887443126314,0.03826409267374678,0.03470283677322525,0.02912132054895133,0.02288359505494569,0.017191484523123024,0.01269383709813326,0.009272670050219443,0.006293898430584871,0.003646922017303412,0.0016782782847844975,0.000918839472202688,0.001810996003364058,0.004266270612421184,0.007680060156977354,0.010997998571945306,0.013246826833961252,0.013755577026961318,0.012362040526923827,0.009759300471805548,0.007075460654197493,0.005151054189745971,0.004480093097963691,0.004951976247020311,0.005667179156391047,0.005342757358826622,0.003440472485597488,0.00021838565516986303,-0.0033354950167545573,-0.006498595031824771,-0.008835897829975504,-0.010251554101426958,-0.010834033832792857,-0.010598091120884282,-0.009411007337217458,-0.007125318855539659,-0.00399908224479604,-0.0006221588342791058,0.0022755075634404136,0.00399346222142548,0.0044432269639244565,0.004052447671926571,0.003794385643556139,0.0044432269639244565,0.00601371617584837,0.007702179928391316,0.008026601725955741,0.005910492092423568,0.0014054703487408995,-0.004441474033458434,-0.010413762725448639,-0.015715087595943925,-0.019792463913589475,-0.02233621942811087,-0.02350117889084267,-0.023729746829106235,-0.023420079128352898,-0.022874459616648846,-0.02219612602598209,-0.021628391292385144,-0.02215188648315417,-0.024953699931477044,-0.030269774349262344,-0.036854036862725315,-0.042391304445129174,-0.044758101788338875,-0.04306963803579593,-0.03790103179378442,-0.030461477518342998,-0.02235833465000377,-0.015088368321750102,-0.009418382110862466,-0.005046073991190401,-0.0015069419566517861,0.001361230805912975,0.0037206538304297753,0.005622939613563122,0.007193429735391249,0.008410008064117043,0.008962997799945036,0.00835839374764411,0.006588825683090324,0.004391614922212055,0.0030644395562248747,0.003772266327094283,0.006610945454504287,0.010776800857805682,0.014913166265569173,0.017582265634929338,0.01796567197309064,0.016107624822881004,0.013150972974660393,0.010791550405095699,0.0103344099790475,0.011978634188762523,0.015075374889590853,0.01837856830678985,0.020907578823542296,0.022396964633359585,0.023149032311913235,0.0237610065883381,0.024793251972107192,0.026533325491602006,0.0289443669271607,0.03177567492054255,0.034924029937843805,0.03760787885449399,0.0387654726426229,0.03749727999742418,0.03344939367531654,0.02733700748662859,0.02056841202820892,0.014183218358429483,0.008815534173692309,0.004693913763697773,0.0016561589683226415,-0.0006811442847801966,-0.0026571605161835876,-0.004817506052926835,-0.007678308591367651,-0.01112896108529831,-0.014365795188255422,-0.016496649819556546,-0.01682106706759991,-0.015493894431325369,-0.013672712050298649,-0.012787930292782287,-0.013547368195459882,-0.015339056031427633,-0.01690217137961075,-0.017329817260599976,-0.016540884812863407,-0.014830305838427564,-0.012839544609255219,-0.011217440170954161,-0.010207314558599034,-0.00985339821597564,-0.01004510138505629,-0.010546481353932413,-0.011018366777749564,-0.011637711278298378,-0.012876409378438135,-0.014808186067013602,-0.016953785696083683,-0.01819248379622344,-0.0182146035676374,-0.017720598372406287,-0.017447790891314797,-0.017632119286750438,-0.017654239058164403,-0.016791577072062,-0.01473445652864777,-0.01194001330444884,-0.009469991877814336,-0.008061714929528953,-0.007611949277125765,-0.007501350420055953,-0.007132689079663604,-0.005989844838824704,-0.003755767034002988,-0.0004894411156995452,0.0029169754750200416,0.005232158501756811,0.005822013006767718,0.00476027307793966,0.002636794130187754,0.00024050529009819334,-0.0018461092069372708,-0.0033354950167545573,-0.0037631399878395714,-0.0023401134922641717,0.0025925545873598296,0.012118727590891306,0.0255379494265369,0.040284348447978104,0.052604974684654845,0.059152372428934896,0.0585109354540985,0.05155799340215893,0.04066775933566046,0.028855883291983787,0.018540781480332592,0.011374030136461597,0.007864388552412995,0.007340893361643976,0.008579591461783734,0.010408144066934398,0.011956514417348562,0.012627477783891373,0.01196388919099357,0.00969294115756366,0.005652429609101029,0.0005133133626274231,-0.004603683112432221,-0.008695808977367787,-0.011092096316115395,-0.011534487194873577,-0.010140955244357147,-0.007339141796034273,-0.0037189004450116467,-0.0001355277302648411,0.0024819570951463378,0.0036100558832641767,0.0033077547670179275,0.0019215939505296564,-0.00017976690913108044,-0.0022885009955996645,-0.0034608388715933213,-0.002819370960013694,-0.0002534988587430758,0.003034946376022223,0.005114189420563056,0.004568569908859008,0.0010884228698693772,-0.004928104909996646,-0.012493003040276831,-0.020485547051546246,-0.028197908808079163,-0.035091843571816536,-0.04059962115868249,-0.044293591138166735,-0.0459083071542596,-0.04531846174829082,-0.042376559447360226,-0.03765771430823083,-0.032297400347617605,-0.02739423136257364,-0.023973068864180887,-0.02256478736637444,-0.02289657938806281,-0.02364864706661646,-0.023279985726224115,-0.0208836983874765,-0.01629019710318588,-0.010222059556367988,-0.004109680191961639,0.0007713753909978548,0.003735400193055048,0.0051215596446869995,0.006094825037380274,0.007798033787692175,0.010688326321670898,0.01391041087733799,0.016387807077617503,0.01797304674673565,0.019447683009262917,0.021880839666714506,0.026164668700730725,0.03175355514912858,0.03693691548795118,0.04007052550748349,0.0407488636476713,0.039716613714381156,0.03806501473102112,0.03658300369484885,0.035270571506822196,0.03391390432548868,0.03266783145170391,0.031716690379945664,0.03097936769916097,0.029733299374897264,0.02733700748662859,0.023576678192902465,0.018562901251746557,0.012538998698235524,0.005984226180310463,-0.0002018864985642001,-0.005466349648055684,-0.009617455504067063,-0.013510503426276967,-0.01818510902257843,-0.02375924592368627,-0.02945135190598787,-0.03392687955956367,-0.03605035941721979,-0.03554160922421973,-0.03273242100225184,-0.028544445827536482,-0.023722376604982293,-0.01871597898699246,-0.013761191135954497,-0.009042345996825109,-0.004655297428905154,-0.0004968145244882348,0.0035510704327630866,0.007591581071321504,0.01141089945516558,0.014596119241649757,0.01660163001811212,0.017442172232800555,0.017633875401881206,0.017832953344606866,0.01857764624951551,0.02031034954488638,0.022920459824128603,0.02522827262674143,0.02554531965066084,0.022308485547703736,0.015045884894052945,0.004922486251482404,-0.005776021898330091,-0.015014634233863207,-0.021716870378040997,-0.025742632379213606,-0.027224643415385885,-0.02665690868178894,-0.024990564700659957,-0.023198881414213272,-0.021960183314073515,-0.021510417661670327,-0.02158415174955722,-0.02183483945923475,-0.02231409965669691,-0.023412704354707888,-0.02532236127186939,-0.0276154245271922,-0.029539826442122656,-0.030498342287525914,-0.02988636801110104,-0.027578559758009283,-0.02350117889084267,-0.01808188493915363,-0.01222019555918534,-0.006889376143631084,-0.0024802041646803156,0.0014939485244925355,0.006198049120805077,0.012612728236601355,0.020796979966472486,0.02928353372249408,0.03558761853074161,0.03771110293791879,0.035499143994606824,0.03041900318968797,0.024196022693451273,0.01815737514217129,0.012656967779429281,0.007326148363875022,0.0016340391969086796,-0.00446359334992029,-0.010170445239895054,-0.014417404955207292,-0.01629019710318588,-0.015243202172126774,-0.011350158799437933,-0.005318886021802957,0.001361230805912975,0.00718605496174624,0.011211821512439917,0.013173092746074356,0.013335301370096036,0.012207202127026091,0.010002617957359133,0.007009096790434542,0.004531705594628199,0.004944606022896366,0.010415518840579405,0.020878084278483325,0.033618977072983225,0.04473039065553706,0.05067320254560045,0.04985478920136809,0.04323363462159583,0.03358948252792426,0.023812616355289973,0.015665233944122822,0.009132581197611725,0.003351993854893746,-0.0023990989427652627,-0.008423001496276294,-0.014727081755002763,-0.02083945884464858,-0.025890100554987402,-0.028743523770262146,-0.028854122627331957,-0.0268559866245146,-0.02407629294760569,-0.022085531718433343,-0.021635766066030154,-0.022727000539917185,-0.024968444929245992,-0.02754906521295031,-0.02967991984425144,-0.030925992718036206,-0.03059419614682677,-0.02750483021964345,-0.02083945884464858,-0.010900393147034745,0.0002036392925445903,0.008918758257117111,0.01222195167431611,0.009361149135875293,0.0023123732425275423,-0.0052893914767439855,-0.010037726611411281,-0.01049486703745948,-0.007943741298814134,-0.005053448764835411,-0.003689408174713208,-0.0040506942865084425,-0.005399990333813797,-0.006859881598572113,-0.007884756758217256,-0.007995355615287067,-0.006904121141400037,-0.004058067695297132,0.0007787483448344379,0.007311398816585005,0.014485520384579946,0.02091494904766624,0.025840246903166296,0.02943836757287075,0.032468758058499324,0.03495352448290278,0.03608899849961773,0.03513047810469341,0.03216645148282779,0.027823637908214696,0.02246332394760147,0.016476286163273353,0.010577727464601085,0.005386996901654547,0.000918839472202688,-0.0029520886785932544,-0.006255282095792251,-0.008769538515733618,-0.010185194787185072,-0.010413762725448639,-0.009639575275481024,-0.00817968401072271,-0.006402745722044979,-0.0045741931168943135,-0.003129045030096527,-0.0027308927842620576,-0.003608302952798155,-0.0053704957887548265,-0.00703683976988381,-0.007501350420055953,-0.005923485524582818,-0.0023327400834754824,0.0022755075634404136,0.006389752289885728,0.008520606921186856,0.007849643554644044,0.004391614922212055,-0.001042430851527537,-0.007147438626953622,-0.012581482125932682,-0.016614618900750302,-0.019092015101029817,-0.01999891662996014,-0.01937956757989026,-0.017226593177175176,-0.014011878845632025,-0.010340028637561744,-0.006188922781550366,-0.0010203110801135747,0.005143679416100963,0.011292925824450758,0.016056015055929133,0.01849654193750467,0.018666125335171358,0.017456921780090572,0.015362931917972361,0.012236696672085061,0.008218304895036393,0.003890237228096465,0.000152026886870504,-0.0024138453053905353,-0.003733647262589026,-0.003976962928334185,-0.0034608388715933213,-0.0029152225445540194,-0.0029078491357653296,-0.0035050779594691397,-0.004684787424443062,-0.006402745722044979,-0.008054340155883945,-0.008732673746550701,-0.008061714929528953,-0.006417490719813931,-0.0047806412837439185,-0.0039179770228809875,-0.0038884842976304426,-0.00416866564246273,-0.004441474033458434,-0.004596312888308277,-0.004500459483959525,-0.004264517227003056,-0.003976962928334185,-0.0034387191001793594,-0.00231062031206152,-0.00045257516364115286,0.0016782782847844975,0.0036837876963905407,0.00551971553013832,0.007009096790434542,0.007960242411713855,0.008056091721493647,0.007178684737622296,0.005173173961159933,0.0026220477675624816,0.000358476418576428,-0.0008064885945710676,-0.0005926661090285604,0.0008229878876623624,0.002821123890479716,0.004634929223100895,0.0057482834684018875,0.006286528206460926,0.00657408068532137,0.006950112249837664,0.00763582061414943,0.008697560542977488,0.00978142024321951,0.010312290207633539,0.009574972076369906,0.007503101985665657,0.004222031524545366,0.0003142372397101887,-0.003254389339887398,-0.005363125564630882,-0.005193542166964192,-0.0030848059422207085,-0.0002829916749840424,0.0017298907814490049,0.0020100721262812926,0.0003805960080095477,-0.0025023234811421716,-0.005436855102996714,-0.007626694274894717,-0.009079215315529087,-0.010059850932346308,-0.010804539287733887,-0.011482877427921707,-0.012161211018588464,-0.012824795061965202,-0.013377784797793195,-0.013363039800024241,-0.012478258042507878,-0.010922512918448707,-0.009381512792158486,-0.008673689205953823,-0.009057095544115126,-0.010081966154239204,-0.010671825208771177,-0.010089340927884214,-0.008231298327195644,-0.00538524078652378,-0.0017133914883577103,0.002577808224734557,0.007326148363875022,0.011875410105337722,0.015311322151020492,0.017066140668284262,0.01696291658485946,0.015259707834547559,0.012074488048063383,0.008019226952310731,0.004008208584050752,0.0011621546829957406,6.354857463323596e-05,-2.810204130021511e-06,-0.0006074124716538331,-0.0032248966146368524,-0.008555715575239004,-0.01609849393410523,-0.02433435088140716,-0.03127990451113854,-0.034737931778714204,-0.032503848514467214,-0.02266063667615423,-0.00489124014081373,0.018061521282870432,0.0405645307027146,0.05676346441335336,0.06348046830290542,0.06112104118381967,0.052833542622918415,0.04318939052924684,0.035653977844983496,0.03106047201117181,0.028332388101214766,0.026120429157902796,0.023466079335832654,0.020015422292380926,0.01632144776337562,0.01363022862260149,0.012487384381762591,0.011993379186531476,0.010555607693187124,0.007031221111369569,0.0019437132669915124,-0.002944715269804565,-0.0054958396435935905,-0.00454469902678745,-0.0011530287986931355,0.0019068475879043837,0.0016782782847844975,-0.0027530121007239136,-0.009941877301631487,-0.017138114091519326,-0.021938063542659553,-0.023390584583293926,-0.02224773579293396,-0.020330708651648512,-0.01952703120614299,-0.02069199521839585,-0.023302105497638077,-0.026089173948191997,-0.028161039489375185,-0.02943660690821892,-0.03016655026583754,-0.030505717061170924,-0.030476222516111953,-0.03005595140876773,-0.029215409194079296,-0.028279013120090003,-0.027431096131756556,-0.02682649207945563,-0.026266132119503693,-0.02540346558388023,-0.023781365695100237,-0.021244984954223844,-0.017934421312900902,-0.014070867935749968,-0.010340028637561744,-0.007243287936733416,-0.005134553076846251,-0.0039179770228809875,-0.0034977050056325567,-0.003394480467255648,-0.0030479402631335803,-0.0017797503476474905,0.0012580062675360663,0.0069132474806547495,0.015119614432418776,0.023982199752956665,0.03097936769916097,0.03450375883049959,0.03439316452295084,0.03170194083265565,0.028059580620123276,0.024992329914832852,0.023230136623924074,0.022551798483736257,0.02229374054993478,0.021858719895300544,0.02081172496424144,0.01893155804261784,0.015967535970273287,0.012030248505235458,0.00791600286888593,0.0046791687659288195,0.002902229112394769,0.0025851816335232466,0.0031824104572270562,0.003853371549009336,0.003853371549009336,0.0031013052353120033,0.0020838043943597626,0.0014644557992419904,0.0015455610211570433,0.002098550756985035,0.00272527230593939,0.0028137504816910268,0.0019805794010307473,0.00012990734293259496,-0.0024433380306410806,-0.004935479683641655,-0.006653433431722509,-0.007353886793803227,-0.007169558398367583,-0.00687463114586213,-0.006999975000700895,-0.00789950175598621,-0.00932252825156161,-0.010598091120884282,-0.01122481494459917,-0.011106841313884348,-0.01024417932778195,-0.008673689205953823,-0.006550209348297705,-0.00446359334992029,-0.0036304227242121173,-0.0051640476219052215,-0.00915294485389492,-0.014727081755002763,-0.02021273502093369,-0.02403942817842277,-0.0254329601289392,-0.024599788138374712,-0.022033917401960413,-0.017720598372406287,-0.011475502654276697,-0.0032470163860508143,0.006316018201998833,0.015679978941891777,0.023237511397569084,0.02818492447496204,0.030610706358768617,0.031112090877165804,0.030330528653553183,0.028332388101214766,0.025147163765209524,0.020996057909198146,0.016719599099305874,0.013409035457982933,0.011455138997993504,0.010201691350563728,0.008387888292703082,0.005269023270939727,0.00043958154950105976,-0.0060562041530665914,-0.013200831176002561,-0.019593390520384876,-0.023921454547707954,-0.02548456989589107,-0.02419426657832051,-0.02049291727567019,-0.01458698835287398,-0.005975099841055751,0.005512340756493312,0.018562901251746557,0.03030840888213922,0.037865936788295466,0.03979034325274699,0.036494524609192995,0.029770164144080184,0.02180710557882761,0.013762947251085263,0.005888372321009605,-0.0017871233014840737,-0.008577835346652966,-0.013621102283346778,-0.016268077331771918,-0.016164853248347117,-0.01372432636677158,-0.009764923679840854,-0.005517959415007554,-0.002104170780355596,-0.00021663290668468344,0.0002994908315897053,0.00016677329499098734,0.0001741465217988343,0.0006828972152462187,0.0015676803376188989,0.002319746651316232,0.002334493013941504,0.0011621546829957406,-0.0011751485701070976,-0.0042423979105412,-0.007272782481792386,-0.009809158673147713,-0.01177780468042716,-0.013038618002459815,-0.013414654116497173,-0.013060737773873779,-0.012094851704346576,-0.010657080211002224,-0.009116080084712003,-0.007987980841642059,-0.007656188819953689,-0.008032220384469982,-0.008806403284916534,-0.009669069820539996,-0.010199939784954025,-0.010022981613642328,-0.009086585539653034,-0.007611949277125765,-0.00603408438165263,-0.004898610364937675,-0.004633177657491192,-0.005193542166964192,-0.006137308465077432,-0.007294902253206349,-0.008725298972905693,-0.010376897956265722,-0.011792549678196113,-0.0123160494184862,-0.011571351964056493,-0.009750174132550837,-0.007309647250975302,-0.004839625824340797,-0.002863610047889512,-0.0016175403587694909,-0.0010792969855667718,-0.0009465792669872112,-0.0011530287986931355,-0.0016027935411921119,-0.0019935728331899978,-0.0019124680662270513,-0.0009392058581985217,0.000712389940496764,0.002651540492813027,0.004258897203632495,0.004745528080170706,0.0034552188482227606,0.0008451072041242182,-0.0015880471785668392,-0.0024654573471029366,-0.0007769958693205223,0.0034847115734733063,0.009346404138106338,0.015326067148789445,0.02005966183520885,0.02308267299767135,0.02463841812173052,0.024903850829177003,0.024151783150623354,0.022234756009337903,0.018924187818493896,0.014714092872364576,0.01059247246237004,0.007429372447299825,0.005969481182541509,0.0061611798021010975,0.007532596530724628,0.009398013905058207,0.011558363081418305,0.014286442441854284,0.017582265634929338,0.021077162221208985,0.024372980864762975,0.027425486572284444,0.03018306502730046,0.032114841715875926,0.03208534717081695,0.028811648298676926,0.021556417869150083,0.011027493117004275,-0.0006516515595296512,-0.011379653344496905,-0.019851453003707414,-0.026008069636181155,-0.029923237329805022,-0.0313315142780904,-0.03011493594936461,-0.026465210062229353,-0.021340834264003638,-0.01629757187683089,-0.012493003040276831,-0.010163075015771109,-0.008843272603620512,-0.007744667905609538,-0.00603408438165263,-0.003423973192506193,-0.00045994839044899985,0.0018699814538651487,0.0033888599889329804,0.004502212869377653,0.0056376846113320766,0.006817398170874955,0.008181435576332413,0.009383268907289254,0.009737180700391587,0.008660695773794573,0.005969481182541509,0.002172282570111399,-0.0017871233014840737,-0.005119808079077297,-0.007523470191469915,-0.00899073622987324,-0.009462621653690391,-0.0089096319178624,-0.007508725193700962,-0.005665423041260279,-0.003733647262589026,-0.0018387357981485815,-0.00021663290668468344,0.000587045630705893,0.00012990734293259496,-0.0015511814994797106,-0.003947470203083639,-0.006432235717582885,-0.008607329891711937,-0.010163075015771109,-0.010929883142572651,-0.011062601771056425,-0.010804539287733887,-0.010177820013540064,-0.009197184396722844,-0.007670933817722643,-0.005267271705330024,-0.0021557832770201036,0.0012063937708715587,0.004266270612421184,0.00657408068532137,0.007576836073552552,0.007060711106907476,0.004892991706423433,0.0013317380806624297,-0.0031216716213078376,-0.007685678815491596,-0.01154923219264253,-0.014196211790588732,-0.015560253745567253,-0.015943660083728557,-0.015781446910185813,-0.015656103055347047,-0.015995269850680425,-0.016548259586508417,-0.016526139815094456,-0.014911410150438403,-0.011283799485196045,-0.005989844838824704,0.000122534116124748,0.005822013006767718,0.01043026383834836,0.014256952446316378,0.01858502102316052,0.02443934017900486,0.03107521700894076,0.036700972776042604,0.03965762917378428,0.03922998329279505,0.035705592161456426,0.03033790342719819,0.024852241062225135,0.02037670885912827,0.017220979068181996,0.014802567408499362,0.012207202127026091,0.009206310735977555,0.006168554575746105,0.0035068313448872682,0.0015381876123683538,0.0005722992680806204,0.000461701320915022,0.0006386576724182943,0.00041746196006794007,-0.00048206816186296205,-0.002450710984477664,-0.00570229235996426,-0.010354778184851761,-0.01603950939350835,-0.021694750606627032,-0.026192398031616798,-0.029060575343702624,-0.030601566370950715,-0.030785899315907424,-0.029134304882068456,-0.02563203807166486,-0.021090146554326106,-0.01692429115102471,-0.014255196331185611,-0.013141846635405682,-0.012706825980771446,-0.011866279216561946,-0.009949252075276496,-0.007228542938964462,-0.004183412005088003,-0.0012636267458587336,0.0008672269755381805,0.001420216711366172,4.1428971551553086e-05,-0.0028119980061771105,-0.0060562041530665914,-0.0083492674083894,-0.00890225714421739,-0.007641439272663671,-0.004758521512329957,-0.0007917422319457948,0.003425725668020109,0.007348268135288985,0.01071044609308486,0.013585993629294631,0.015989655741687248,0.017663369946940177,0.018444932170552802,0.01820898490912316,0.016926051815676545,0.014935286036983133,0.012531623924590514,0.010349159526337519,0.008992487795482942,0.008616456230966648,0.008918758257117111,0.009316909593047366,0.009184190964563594,0.008277289435633271,0.006832143168643909,0.00548284621143434,0.004959351020665319,0.005652429609101029,0.007193429735391249,0.00883765394510627,0.0099510036408862,0.010127961812197897,0.00916207119314963,0.007289279045171043,0.005128934418332009,0.003211903182477602,0.0016119198804468236,0.0003732227812017007,-0.0004378287555206695,-0.0005926661090285604,-0.0004083359847749135,-0.0006369051969043784,-0.001809243072898036,-0.00387373793500517,-0.005989844838824704,-0.007420246108045113,-0.007951116072459142,-0.007788902898916399,-0.007427616332169058,-0.007353886793803227,-0.007626694274894717,-0.008024845610824975,-0.008275537870023567,-0.008061714929528953,-0.007051584767652764,-0.005186167393319184,-0.0030037007203056556,-0.0013226121963598246,-0.0002682452213683485,0.00012990734293259496,-0.0009539526757759008,-0.004441474033458434,-0.010089340927884214,-0.016061629164922313,-0.020551906365788134,-0.022852339845234885,-0.02314726709774034,-0.021967558087718525,-0.020330708651648512,-0.019143624867981688,-0.018841322841831227,-0.019062520555970845,-0.01887818761101414,-0.017447790891314797,-0.014070867935749968,-0.008408251948986275,-0.00075487609790656,0.00800448195454178,0.017198859296768034,0.026113058933778854,0.03379593069477386,0.039215233745505035,0.04169262994578454,0.041169134755015525,0.03803552018596215,0.0331102223304621,0.027351752484397546,0.02180710557882761,0.0170440208968703,0.01321733228890228,0.010887399714875493,0.010762055860036729,0.012369415300568834,0.014168473360660527,0.014463400613165983,0.01279706118155806,0.009574972076369906,0.005785148237584802,0.002282880517276997,-0.0005484265662006359,-0.0029152225445540194,-0.005259896931685016,-0.007744667905609538,-0.009941877301631487,-0.011350158799437933,-0.012006372618690728,-0.012323419642610144,-0.012699451207126438,-0.013200831176002561,-0.013606352736056761,-0.013517878199921977,-0.012500377813921843,-0.010723434975723046,-0.008747418744319654,-0.00695573545787297,-0.005798141669744053,-0.005517959415007554,-0.006152053462846385,-0.007508725193700962,-0.009270918484609739,-0.010900393147034745,-0.012234940556954295,-0.012655211664298512,-0.01077504929219598,-0.005399990333813797,0.003108678644100693,0.01282655117709597,0.02095181836637022,0.02455731380971968,0.02208728783356411,0.014138978815601558,0.0033225015845953065,-0.007147438626953622,-0.014668097214405883,-0.017860687225014004,-0.0167104682105301,-0.0121390912471745,-0.005510589190883609,0.0017962496407387851,0.008410008064117043,0.013313181598682073,0.01623296867771977,0.017633875401881206,0.01803940151145647,0.01750853154704244,0.015547260313408003,0.011941769419579607,0.007127070421149363,0.0017888762319500959,-0.003755767034002988,-0.009455246880045383,-0.01567822282676101,-0.022365709423648784,-0.029075320341471575,-0.035290921514542196,-0.0399728973349676,-0.04206688719708581,-0.04054800684220956,-0.03478217132154213,-0.025263376731272512,-0.014019253619277037,-0.00357881022754761,0.0045169592320029265,0.00989939387393433,0.01355649908423566,0.01635094230843459,0.018282718997010058,0.018835708732838047,0.017302083380192835,0.013527004539176688,0.008387888292703082,0.003617429292052867,0.0008893462920000362,0.0011621546829957406,0.003661668379928685,0.006190674347160067,0.006596200456735333,0.0044063612848373275,0.0009925712853290517,-0.0014774492314012407,-0.001337358558985097,0.0014423364827801345,0.005232158501756811,0.007576836073552552,0.00705334088278353,0.003823878823758791,-0.00048206816186296205,-0.0043013833610422905,-0.006417490719813931,-0.006270027093561206,-0.0040138286074213134,7.829493725850863e-05,0.00523953327540182,0.010201691350563728,0.013814561567558198,0.016026520510870165,0.017479041551504534,0.019204370073230396,0.0218734648930695,0.025139793541085583,0.027395992027225473,0.026879867060580397,0.02285410050988672,0.016277208220547693,0.00863857600238061,0.001648785559533952,-0.003188030935549724,-0.005031328993421448,-0.0044193542620444715,-0.00231062031206152,0.0008672269755381805,0.004819262168057601,0.008911383483472101,0.012487384381762591,0.014883676270031265,0.015517770317870095,0.014124233817832604,0.010356529750461464,0.004642303996745904,-0.001809243072898036,-0.007486605422287,-0.011313289480733953,-0.012920648921266058,-0.0127215709785404,-0.011062601771056425,-0.008356642182034408,-0.005576948505125494,-0.003652542040673973,-0.0026940266502228226,-0.002251634861560429,-0.002052558738643195,-0.0025465625690179895,-0.004021202016210004,-0.006373251176986007,-0.009248798713195778,-0.012198075787771379,-0.015051503552567186,-0.017676358829578364,-0.019903062770659286,-0.021421938576014477,-0.022100276716202297,-0.02191594377124559,-0.02085420384241753,-0.01908464032738481,-0.016916920926900766,-0.014446899500266263,-0.011689325594771312,-0.008238668551319588,-0.0040064556535847305,0.0007271363031220367,0.005099439873273038,0.008056091721493647,0.008867143940644178,0.007252414275988127,0.003521577707512541,-0.0014921955940265135,-0.00651334457911479,-0.01040638795180363,-0.012375033959083076,-0.01211697147576054,-0.009654324822771043,-0.005761276900561138,-0.0015954205873555288,0.001973206447194164,0.004870871935009471,0.00718605496174624,0.009302164595278413,0.011174956743257004,0.012450519612579675,0.012752821638730137,0.011956514417348562,0.010238560669267708,0.00771692492616027,0.004089313805965805,-0.0011898949327323702,-0.007707798586905557,-0.014210956788357685,-0.01896666669666999,-0.020927937930304428,-0.0199178123179493,-0.01665885844357823,-0.013075487321163794,-0.01096675246127663,-0.011055231546932479,-0.012426643726034947,-0.012426643726034947,-0.008046965382238936,0.0014275896652027552,0.013991519738869895,0.025854996450456313,0.03323556618530086,0.03359685730156926,0.02704208023412314,0.016387807077617503,0.005490220985079349,-0.00208205146389374,-0.004603683112432221,-0.0024654573471029366,0.0024450909611071028,0.007864388552412995,0.011971263964638578,0.014323311760558266,0.015407171460800284,0.016056015055929133,0.01699241112991843,0.01851128693527362,0.020126016599929675,0.021187761078278796,0.021217251073816702,0.019720495039875472,0.01670485410153692,0.012745446865085129,0.009073592107493781,0.006588825683090324,0.005386996901654547,0.00476027307793966,0.0033151281758066167,-0.0002682452213683485,-0.0063290116341580835,-0.014092987707163931,-0.022218245797396053,-0.02917116965125137,-0.03347711390716049,-0.03370568184542405,-0.029237528965493254,-0.02086157861606254,-0.011261679713782086,-0.0034092268298809205,0.000985197876540362,0.0019068475879043837,0.0007861217536231275,-0.0008064885945710676,-0.001853482160773854,-0.0020746780551050507,-0.0019345873826889068,-0.002000946241978687,-0.0027751318721378755,-0.004131799963375601,-0.005466349648055684,-0.005886620755399903,-0.004566818343249305,-0.0013963440094861878,0.003108678644100693,0.007960242411713855,0.011949144193224617,0.01427169744408533,0.014625613786708725,0.013453275000810856,0.011602602624246231,0.009840404783816387,0.008461617831068913,0.007370387906702946,0.006404497287654681,0.005563955072966246,0.004738153306525697,0.003831251777595374,0.0028579895695668442,0.0020911773481963455,0.0018552350912398761,0.0024819570951463378,0.003978715403848101,0.005881002096885661,0.00722292428045022,0.007252414275988127,0.006139060030687134,0.00479714239664364,0.004922486251482404,0.007849643554644044,0.012848670948509933,0.017560145863515376,0.019270729387472284,0.016291953218316647,0.008845024169230217,-0.001374224693024332,-0.011814669449610076,-0.019969422084901173,-0.024275366340810286,-0.02445232451212198,-0.021444062896949504,-0.017057009779508487,-0.013053367549749834,-0.0103326584134378,-0.009042345996825109,-0.00882115283220655,-0.009005481227642192,-0.009034975772701164,-0.008474611263228163,-0.007272782481792386,-0.005930860298227827,-0.0045741931168943135,-0.002893102773140057,-0.000998191763651719,0.0005428060878779685,0.0015381876123683538,0.0023787321018173225,0.0032413963626802536,0.0039418497247609725,0.004273643566257767,0.0035805627030615255,0.001390723986115627,-0.002303247358224937,-0.006712417972319385,-0.010811914061378896,-0.013716951593126574,-0.015309561486368662,-0.015715087595943925,-0.015508639429094322,-0.015375920800610546,-0.016445035503083617,-0.01960813551815383,-0.0250495537907779,-0.03184026447109047,-0.0381664645012309,-0.042000527882843926,-0.04191204879718808,-0.03737753205349433,-0.027991460641229555,-0.013517878199921977,0.0050625751040901225,0.024623668574440503,0.04119862475055343,0.051852893357538,0.055804971315555424,0.0542786979889499,0.04984000325790956,0.04511380154321943,0.04146406200752098,0.038374691530816595,0.034348924980122916,0.02857570558676835,0.021357344475945485,0.01366709794130547,0.007112325423380409,0.0031307979605625486,0.0020026991724447093,0.0029169754750200416,0.004738153306525697,0.006603575230380342,0.007908628095240922,0.008056091721493647,0.007075460654197493,0.005438606668606416,0.0037280267842663586,0.0020248189438586716,0.0002478784714108297,-0.0018166164816867255,-0.004640547881615137,-0.008688434203722777,-0.013997133847863073,-0.020249604339637673,-0.027150913877020056,-0.03431765612184892,-0.04158025677549971,-0.048437340418617365,-0.054173695042789016,-0.05769807252556444,-0.057675961853192605,-0.053185675553284656,-0.0444189349930055,-0.03248910351669826,-0.019173119413040656,-0.006233162324378289,0.004575944682504017,0.01157310807918726,0.014013639510283858,0.012347295529154874,0.008056091721493647,0.0031455443231878217,-0.0007253833726560146,-0.0021115441891442857,0.0009409587886645439,0.00986252455523035,0.02412966337920939,0.040741488874026295,0.055738593803229285,0.06527953091251817,0.06723341372394441,0.06250718926164896,0.054168099131880094,0.04565940285683921,0.0395986446331874,0.03746779000188627,0.03915624920490816,0.04275437442413367,0.04543821879126279,0.04527601016724111,0.04237096808597236,0.038020775188193204,0.03366321206629008,0.029762789370435177,0.025854996450456313,0.0210108029069671,0.014905796041445228,0.007989736956772825,0.0008008681162484003,-0.006410115946168924,-0.012758435747723316,-0.01760262474169147,-0.02047817227790124,-0.0212597299519928,-0.020264349337406624,-0.018531650591556818,-0.01665885844357823,-0.014749201526416723,-0.012891154376207088,-0.01132803902802397,-0.01032528363979279,-0.01007459593011526,-0.010458002268276563,-0.01132803902802397,-0.012706825980771446,-0.014432154502497307,-0.016142733476933152,-0.017499400658266665,-0.0182146035676374,-0.018148244253395517,-0.017455165664959804,-0.016481900272266533,-0.015427535117083481,-0.014808186067013602,-0.014837680612072574,-0.015700342598174974,-0.01738143157707291,-0.019674494832395716,-0.022638521454261335,-0.0263988461984664,-0.03067530045883761,-0.03484853063578402,-0.03850563129656428,-0.041336939289946126,-0.04338668960923641,-0.04469174247409699,-0.04498667427612351,-0.044094513195441075,-0.0423396946781773,-0.04020146982275223,-0.03798951087944027,-0.03551211467916075,-0.03217943126642385,-0.027681783841434084,-0.02235096442587983,-0.01690954615325576,-0.012426643726034947,-0.009293038256023702,-0.007265407708147377,-0.005805516443389063,-0.004817506052926835,-0.004257144273166472,-0.0038000061218788064,-0.0030479402631335803,-0.0015806742247302561,0.0007640019822091653,0.0037206538304297753,0.006647814773208266,0.009036727338310867,0.010857909719337587,0.012421025067520703,0.014743582867902482,0.018872573502020963,0.025257762622279335,0.03278580508241873,0.03911200966208023,0.04230460877173048,0.041884333114865197,0.03873597809756393,0.03474707631605317,0.031657705839348786,0.03010195616576855,0.029578460974999533,0.02900335146775758,0.027270648172386707,0.024114918381440434,0.020288229773472416,0.016675364105999013,0.01382193179168214,0.011978634188762523,0.011219196286084927,0.011256061055267844,0.011587853076956213,0.011602602624246231,0.010924269033579473,0.009737180700391587,0.008336273976230149,0.007340893361643976,0.007097580425611456,0.007208174733160203,0.007208174733160203,0.006986981568541645,0.007119695647504354,0.00819618512362243,0.010585102238246095,0.01366709794130547,0.016078130277822036,0.016889182496972563,0.016063385280053077,0.014183218358429483,0.01196388919099357,0.009670821386149699,0.007326148363875022,0.004752902853815715,0.0019584600845688914,-0.0009244594955732491,-0.003689408174713208,-0.005930860298227827,-0.007309647250975302,-0.007626694274894717,-0.007022090222593793,-0.005982470065179697,-0.005156672848260212,-0.004928104909996646,-0.005392615560168789,-0.006461730262641857,-0.007870011760448303,-0.009418382110862466,-0.01104785677328747,-0.012470883268862872,-0.013156591633174636,-0.012795305066427294,-0.01177780468042716,-0.010922512918448707,-0.010834033832792857,-0.011490247652045652,-0.012463508495217861,-0.013237695945185477,-0.013510503426276967,-0.013215576173771514,-0.012537242583104758,-0.011674580597002358,-0.010811914061378896,-0.009971371846690459,-0.009241423939550767,-0.008614704665356946,-0.008187058784367719,-0.007774157901147445,-0.007007345224824839,-0.006122563467308478,-0.0056580528171363345,-0.006129933691432422,-0.007376006565217189,-0.008592584893942982,-0.009175064625308881,-0.00907184054188408,-0.00834189263474439,-0.006918866139168991,-0.0043013833610422905,-0.0003640967604134635,0.0041335528938416235,0.008306783980692243,0.0113519149145687,0.01268646232448825,0.01238416029833779,0.011167581969611992,0.009943633416762255,0.0093685239095203,0.00981828956192349,0.011639467393429144,0.014950035584273151,0.019292849158886245,0.0238568558981179,0.02741811179863943,0.029069710781999464,0.028428241960515622,0.025832876679042355,0.021961943978725345,0.017250473613240967,0.011558363081418305,0.004657048994514857,-0.002856236639100822,-0.009624830277712071,-0.01417409201917477,-0.015457029662142453,-0.013488383654863005,-0.009455246880045383,-0.005156672848260212,-0.0021557832770201036,-0.000998191763651719
