-0.9900818266421111,-0.9881358654625118,-0.9845667315154577,-0.977372548479905,-0.9599241836510342,-0.8956809094914128,-0.4431342658985712,0.6795331204396687,0.9045418465392725,0.951245939952332,0.9679216627285431,0.9761016006627209,0.9811925618399072,0.9852345684610578,0.9887793636456692,0.9915299183654177,0.9935166722473272,0.9947267540685943,0.9953747348682142,0.9958342751521331,0.9962913439358757,0.9967041956952625,0.9970143720150563,0.9971418440858326,0.9971513253500535,0.9972380950412719,0.9974567832023609,0.9977193306154641,0.9979689841321371,0.9982027526369198,0.9984002757064145,0.9985343219263761,0.9986002232611862,0.9986061967657442,0.9985777432006689,0.998498383127683,0.998330517090123,0.9981482686918629,0.9979101420349067,0.9973661685872997,0.9959495675171507,0.99282968395075,0.9865859892473661,0.9739770579720904,0.9426093746863061,0.7690191700847967,-0.5023901381476761,-0.9016896562332534,-0.9553641168654788,-0.973512862081229,-0.9827585032180911,-0.9882822646595197,-0.991498289059858,-0.9934198385775985,-0.994696083480299,-0.9955890108767809,-0.9961923344016452,-0.9965588171222599,-0.9967813604078799,-0.9969417244227027,-0.9971033134832923,-0.9972746205631536,-0.9975067393027415,-0.9977360612323757,-0.9978442118954666,-0.9978463680037298,-0.9978338064520461,-0.9979169140602447,-0.9981091750393571,-0.9983360708682075,-0.9985550496934134,-0.9987399020096135,-0.998867929423389,-0.9989586792306387,-0.9989934278942528,-0.9989163287684697,-0.9987253375619501,-0.9983675149137772,-0.9977827319252167,-0.9968788720912574,-0.9955040011120238,-0.9935094504742334,-0.9904626351424384,-0.9849193920489459,-0.9726432123933216,-0.9249073145193839,-0.21328516205278022,0.8923422385702945,0.9689866664979658,0.9863339764270691,0.9929622611839637,0.995723237609644,0.9968143039756413,0.9972925918922002,0.9975669981524243,0.9977160419643952,0.9976904055548543,0.9974505025723844,0.9970995358150132,0.997019896677766,0.9972979333367095,0.9976801521526485,0.997909119796556,0.9980400382555059,0.9982652320842138,0.9985995961184672,0.9988740878843847,0.9990346370287881,0.9990865900773291,0.9990973117480291,0.9991476271546385,0.9992712494365068,0.9994099365825424,0.9994318607392781,0.9993324295160155,0.9992262194963382,0.999196376726568,0.9992580111071332,0.9993215026602923,0.9992453432561207,0.9989053502686603,0.9983153003074005,0.9976215556605589,0.9964487075471278,0.9917513031830836,0.9581277867077422,0.17995046769305295,-0.8975531833137305,-0.9664883663887983,-0.9826560796031839,-0.989653617538624,-0.9932818986010978,-0.9950493501496198,-0.9958476189614677,-0.9961880801735614,-0.9962693223804057,-0.9961853144311988,-0.9961820581444173,-0.9964249859596912,-0.9968331770250384,-0.997315195174138,-0.9978006601208448,-0.9982086537731828,-0.9984571747865234,-0.9985969106472518,-0.9986390410930998,-0.9986223375383592,-0.998627073785409,-0.9987085386064668,-0.9988618491392852,-0.9989814001744576,-0.9990354672996873,-0.9990137174036525,-0.9989713243485348,-0.9989882892010121,-0.9991103349022786,-0.9992865414998332,-0.999475775698145,-0.9995797403845397,-0.9994578009218458,-0.9988833413111732,-0.9976440064169365,-0.9952147865825943,-0.9908591909500327,-0.9815978058521303,-0.9387364062382986,0.1334075434317001,0.9445923312881934,0.9790845947899112,0.9858491518591094,0.987955928478769,0.988355015402454,0.9881764265654279,0.9880028517530872,0.987995518241092,0.988435034269431,0.9894288492000757,0.9909992729113165,0.9928258204264386,0.9945477619675356,0.9958083322255112,0.99649551214948,0.9967471484959952,0.9968476374685548,0.9970014147532772,0.9972303997632889,0.9974270654263871,0.9974534137796768,0.9972527958565767,0.9968640876138588,0.9963657988617697,0.9958817583246475,0.9955991038759837,0.995574750733369,0.9957279767752171,0.9959763628018334,0.9963126732829612,0.996646096188949,0.9967680635497892,0.9965121895441458,0.9959167345326821,0.9950545773558092,0.9934271957090102,0.9884718704252677,0.970843028046003,0.8750112562119011,-0.00025162869974886855,-0.812677691996686,-0.9262150636781321,-0.9558766088086549,-0.9671707749793519,-0.9712122712964197,-0.9721873818110738,-0.9735540244820804,-0.9782369963474533,-0.9850252802623817,-0.9908139868695485,-0.9942355441904095,-0.9959217093108578,-0.9968117196330918,-0.9973789113635595,-0.9978151839970257,-0.998285901513053,-0.9988302573707435,-0.999326483006325,-0.9995880480599053,-0.9995064747467305,-0.9992315273242662,-0.9990005214543393,-0.9989513987425921,-0.9990648761213842,-0.999184434529831,-0.9992014373143215,-0.9991627251063671,-0.9991766005969495,-0.9991641896258413,-0.9989456764637586,-0.9986068155083844,-0.9984669136683915,-0.9986242838628715,-0.9988005416562239,-0.9985258472676632,-0.9971309926195672,-0.9928760940991502,-0.9777012914192933,-0.7363770209845293,0.9713413752585868,0.9954393178046137,0.9977154129542903,0.9981672952139169,0.9982497717211604,0.998213990642765,0.9982283409732569,0.9983054549674534,0.9983606915812748,0.9983339932021974,0.998164819728916,0.9978224031461462,0.9974573608566881,0.997264061144875,0.9972948119591973,0.9974144976076736,0.9975684715314206,0.9977432872959793,0.9979169084919786,0.9980530868463392,0.9981373497070649,0.99804573363955,0.9977436115453279,0.9972471501403964,0.9965865391457513,0.9958684930181388,0.995286784121784,0.9950215045259155,0.9950021171465583,0.9951175624977412,0.9954596913219723,0.9960363810285103,0.9965383515457388,0.9966191326719009,0.9959187816128044,0.9935097899676967,0.9878255832011854,0.9773590044299555,0.958776240700989,0.8864473000608075,-0.49141767652014695,-0.9622007507326877,-0.9858705062356963,-0.9921787094361832,-0.9952895528285143,-0.9971104954256501,-0.9981400943314691,-0.9986831218807367,-0.9988690284707985,-0.9988178735451645,-0.9985413410539433,-0.9980465759279882,-0.9973891998753508,-0.9966623074117268,-0.9958832428745901,-0.9948986593895308,-0.9936709387422784,-0.9925076453540077,-0.9917002587398027,-0.9914728048845871,-0.9918081679450523,-0.9926189790759908,-0.9937981578098579,-0.9952354186606888,-0.996580867547357,-0.9977170399714893,-0.998577724881456,-0.9991917257012135,-0.9995270813816074,-0.9995733030764486,-0.9994080012003766,-0.9991983886502651,-0.9990598571693031,-0.9990885395604856,-0.9993130571644488,-0.9995025482432476,-0.999398089297924,-0.9988660641605227,-0.9970313564764972,-0.988697391967145,-0.933003006052688,-0.06802847820484519,0.8513251606392156,0.9438411928347828,0.9683535433256962,0.979413732010782,0.9858314865320875,0.9900051110197882,0.992931542792185,0.9951552246002918,0.9966792593741622,0.9975069890258941,0.997789917426608,0.9977764746882678,0.9977117833898708,0.9977967923845198,0.9981156716399255,0.9985707558787544,0.9989340673781161,0.9991450458809621,0.999187460260058,0.999096273299812,0.999000164936009,0.9989622755253272,0.9990052153741995,0.9990818869104164,0.9990911614498235,0.9989247673768696,0.9985071235369707,0.9978297618078088,0.996982345307746,0.9960817442909973,0.9951460980114312,0.9938905992797972,0.9919171259891525,0.9891031812326826,0.9855294543891711,0.9805280184804535,0.9709755421731171,0.939857117319036,0.7374912723247609,-0.1194040392124321,-0.6492557315584074,-0.8175948746569872,-0.8914868939056311,-0.9304342466358095,-0.9531018201069497,-0.9675236444530733,-0.9770458180738419,-0.983965847555042,-0.9889945039281812,-0.9923159608208626,-0.9944217624829736,-0.9957564091384575,-0.9967199771192767,-0.9974055043508268,-0.9977745840645571,-0.9979043304333383,-0.9979520071830348,-0.9980268331626022,-0.9981960560653813,-0.9983049961353815,-0.9982262472718982,-0.9980325730908509,-0.9979377670202647,-0.9980578204826175,-0.9982481901692041,-0.9983036662014396,-0.9980805602081001,-0.9973580776967239,-0.9959849948438901,-0.9938760742149766,-0.9909063487277905,-0.9872488504082652,-0.9833303813477899,-0.9793661833941871,-0.9752525740937527,-0.9697845933972411,-0.9589419221631111,-0.9313382574840433,-0.8300150733478464,-0.2788681686234156,0.6535803025559295,0.8837952873645893,0.9440426971053612,0.9692579505410721,0.9820063254758044,0.9885538793991048,0.9920929234882855,0.9940410406140725,0.9950487783469955,0.9954698808984337,0.995547762360308,0.9957144870244558,0.9962235701162981,0.9969833823640445,0.9977309979645953,0.9982762315546558,0.9985422731592754,0.9985781946706963,0.998493230719896,0.9983812338587152,0.9983019267403224,0.9982312298951768,0.9981202351753876,0.9979769740212104,0.9978601993006506,0.9977843513786928,0.9977827861640305,0.9977632607022439,0.9974661372450244,0.9966362410063337,0.995181324708443,0.993306067962819,0.9914357376261962,0.9894108036764202,0.986201269504082,0.9785830702531749,0.9524874702142224,0.8026366071680496,-0.17902042008262922,-0.8183478640262016,-0.9324366131662061,-0.9661237162753648,-0.9788784862977807,-0.9843865437364107,-0.9874965662993498,-0.9899361907507016,-0.9923156086347972,-0.9944852270185776,-0.9961883588048809,-0.9972597942430299,-0.997797460574635,-0.9979464009980262,-0.9978935865027281,-0.9977906037355917,-0.9977506065774294,-0.9978139972492309,-0.9979528533683524,-0.9981052690127198,-0.9982344277694207,-0.9982666124432407,-0.9981451859746673,-0.9979568517070855,-0.9978496795735686,-0.9977616505510878,-0.9975283539256985,-0.9971112449909039,-0.9967557203849793,-0.9967011643042666,-0.9969906861883548,-0.9975817644750609,-0.9982971307234322,-0.9990240393178826,-0.9992866686018956,-0.9976643556897723,-0.9910097838407809,-0.9732128313054226,-0.9256215527704075,-0.6713909072620691,0.7448951979816263,0.9699481361763542,0.9909106763024644,0.9951031205524807,0.996189941301963,0.9963953662900246,0.9964152735452937,0.9964264088942856,0.9964419150595666,0.9964860404612246,0.996508311167616,0.9964479091636104,0.9962971996877792,0.9961468218333374,0.9960101798514264,0.9959805391882035,0.9961926175175598,0.9966053471367238,0.9970545428553047,0.9973951554026583,0.9975785844353836,0.9976044142420872,0.9975796933052639,0.99757154994177,0.9976151156763262,0.9977107428445802,0.9979133994680319,0.9982719025321732,0.9987026431607215,0.9989117792157959,0.9989200939834157,0.9988630229362817,0.9987841236283381,0.9985921251338608,0.9981246039014019,0.9970724945419656,0.9946604716543602,0.988456538489198,0.965773177763148,0.7770685593917962,-0.6617558255898336,-0.9321636938266324,-0.9702261906278845,-0.9827025007938699,-0.9886280039575935,-0.9920668932455474,-0.9939808212391437,-0.9948916969877274,-0.9952447673531738,-0.9956304974908843,-0.9961691280955035,-0.9968056572074838,-0.9975510871254399,-0.9981461030419166,-0.9984465452571056,-0.9984861672654792,-0.9983499033264087,-0.9981473785273302,-0.9979585368073373,-0.9979191516418281,-0.9980218642843048,-0.9982242442854323,-0.9984822328135557,-0.9987598575388039,-0.9989296772810967,-0.9989452596685224,-0.9988328421168786,-0.9986490037833726,-0.9983895743528239,-0.9981173524766522,-0.997899095628382,-0.9978882529117566,-0.9982028496149288,-0.9986599435330121,-0.9986319818341772,-0.9969041493454358,-0.9912872121601947,-0.9787974819895854,-0.9557709081837884,-0.8970095149728506,-0.5540604256129509,0.683359966636378,0.9346950170424242,0.9723714561970819,0.9834303257013264,0.9883238274179856,0.9911418430418996,0.9930033105559997,0.9940735709104211,0.9946489967005694,0.9950998911251924,0.9957831681235106,0.9965450382552932,0.9971399590388498,0.9974739480266857,0.9975941847603257,0.9976385026687167,0.9976867501248035,0.9977387847386006,0.9977702876554758,0.9978383474347664,0.9979849199318988,0.9981746139492105,0.9984187506592862,0.9986784640999032,0.9988962952405104,0.9989761431303081,0.9988816221351857,0.9986899337551991,0.9985244920169541,0.9984092819936968,0.998293964978043,0.9980945835317071,0.997785286432688,0.9972374351710881,0.9962229888509401,0.9943387527319885,0.9907244820866395,0.9834477772993802,0.9667735766496907,0.9163425675482679,0.6705079915128112,-0.37998268455113066,-0.8605173688538064,-0.9454029818573924,-0.9697878071642302,-0.9798138350575821,-0.9856307625636174,-0.9899218144084222,-0.9932327131640208,-0.9955732715407868,-0.9970364318463355,-0.9977354827958027,-0.9980165376512612,-0.9982184223203912,-0.9984805057922196,-0.9986853417173898,-0.9988280521129468,-0.9989290905085705,-0.9990512509040481,-0.9991660757749495,-0.9992101594532304,-0.9991649438870832,-0.9990681358124446,-0.998980403503038,-0.9989198523315019,-0.9988474594015838,-0.9987356650983124,-0.9986589885539261,-0.9986704391238665,-0.998702017289054,-0.9986859858876336,-0.9986065286124226,-0.9983838344805819,-0.9980303705578192,-0.9974449700919449,-0.9965677523385668,-0.9948844101283255,-0.9905921841489447,-0.9733093857759664,-0.7976421128148915,0.7947481233380957,0.9663865167366079,0.9865925116642482,0.9922898195408805,0.9946903726948293,0.9961532978379443,0.9972077237638195,0.9979148214324203,0.9983920359975358,0.9987036235547305,0.9988581742995084,0.9989004173552721,0.998801492228438,0.9985489750504063,0.9982819307368576,0.9981462120182665,0.9981699187880679,0.9983293248373897,0.9985126098403394,0.9986745266308872,0.9987567948590678,0.9987736864016339,0.9987707139826567,0.998804404375583,0.9988693511072733,0.998886182264425,0.9988384594505819,0.9987847990309617,0.9987501109655085,0.9986275128886,0.9982778129537716,0.9977926103326091,0.9974580888796964,0.9974497432210986,0.9974046819001482,0.9963738884662838,0.9928097039675468,0.9810780888074198,0.926900675886105,0.37240556740373304,-0.8116833256640665,-0.9526583685539051,-0.9796792351322036,-0.9883069742255753,-0.9919148817581158,-0.9937611054497695,-0.994944169488525,-0.9958150639197555,-0.9963944483580262,-0.996572077708201,-0.9964786032872349,-0.996391066186517,-0.9965104010298433,-0.9968025080662247,-0.9971933000622958,-0.997527138821297,-0.9978307038856702,-0.9981535482901982,-0.9984773918942375,-0.9987474800454847,-0.9989219555769837,-0.9990362615264353,-0.999058489767019,-0.9989844657114432,-0.9988392847439326,-0.9987038279371613,-0.9985938512254225,-0.9984130545014787,-0.9980827810076992,-0.9975725319519267,-0.9970536509671726,-0.9968230619486084,-0.9969039056407142,-0.9968746760923287,-0.9964394746623443,-0.9955319088101898,-0.9935630446051292,-0.9868177550992996,-0.9576697714767294,-0.7624531567306597,0.40602806202142233,0.8704497413195457,0.9492809871622941,0.9753060443087407,0.9869178753089655,0.9928995476542625,0.9960615100761844,0.9975309605109548,0.9980570241214446,0.9981132007286467,0.9979059108794252,0.9974511199117282,0.9967689269468332,0.9961123811332167,0.995996075545917,0.9965373513889632,0.9973755830634847,0.9980289186743814,0.9983967439811041,0.9985246423260485,0.9985095372238004,0.9984859151770005,0.9985237056526065,0.9986781896453518,0.9989346251993096,0.9992182950876446,0.9993939529632773,0.9994020114961344,0.9993168948145476,0.9992677449374838,0.9992600522491648,0.999179348483018,0.9988787538669934,0.9982093201286487,0.996721185198281,0.9934220848848323,0.9862587639664878,0.9687925204788395,0.9111989117113263,0.4897807147068,-0.7746781973825763,-0.9532918815083358,-0.9815285858024729,-0.9896473434714481,-0.9928546004874013,-0.9945127308359113,-0.9955177738580872,-0.9959938360236835,-0.9960792771713832,-0.9961232880589559,-0.9964500601938809,-0.9970241278245088,-0.9976470591315006,-0.9981775067064942,-0.9985276230493525,-0.9987277403222768,-0.9988116927270265,-0.9988256611541229,-0.9987965070675661,-0.9987421926424618,-0.9986772091966408,-0.9986678428456872,-0.9987245549212286,-0.9988020387624553,-0.9988603641836219,-0.9988435912563742,-0.9987352923112752,-0.998621540656071,-0.9985803385574803,-0.998668312604086,-0.9988600577995453,-0.999050854186932,-0.9991333755034079,-0.999058837944496,-0.9988054824057297,-0.9982057459471214,-0.997127564783186,-0.9950366306875866,-0.987174618787513,-0.9206682206538886,0.556970820032641,0.9565205306009162,0.984942729065331,0.9925870406766251,0.9960258082980882,0.9978328743266328,0.9987937418887078,0.9992483740529124,0.9993790459390794,0.999327084925679,0.99917545058888,0.9989597217921333,0.9986495681176851,0.9982752571138559,0.9979600530317144,0.9978158128229903,0.9978630267775098,0.9980285609732128,0.9982042068678331,0.9983629343230653,0.9985303278249107,0.9987021496106804,0.9988511326214351,0.998918377688191,0.9988144669693342,0.9985042156331765,0.9981253124557405,0.9978532067267682,0.997725420294097,0.9976669340106562,0.9976932710653124,0.9977743575025646,0.9976878788614331,0.9967737029113292,0.9933754442508229,0.9851006674420136,0.9710084712190109,0.948982905619217,0.8888405470624885,0.3537563716122391,-0.855180356199553,-0.9625639639903238,-0.9801117280538114,-0.9858116161333006,-0.9886337889341832,-0.9905751841506606,-0.9924081496308746,-0.9941831451658074,-0.9955260422812329,-0.996244356014531,-0.9964905705438701,-0.9964732334966513,-0.9964466868492546,-0.9965475664798943,-0.9967560956581757,-0.9970469982957567,-0.9973536585015995,-0.9975948162542903,-0.9977307237568832,-0.9978618222405167,-0.9980169009025167,-0.9982247927203682,-0.9984783144499985,-0.9987064636394825,-0.9988427167385052,-0.9988250807804939,-0.9985606817437666,-0.9980111863556304,-0.997181685844954,-0.9962272252498001,-0.9953674164895757,-0.9945982814692049,-0.9936301071450327,-0.9923741757482277,-0.9910961053533565,-0.9897324782052833,-0.9865382963935758,-0.9756365883425737,-0.9198667675701282,-0.25967097817726326,0.8486915136013506,0.9592691048439631,0.9812284187174541,0.9886027110925123,0.9918682386438312,0.99370699359669,0.9949290901031603,0.9960304038638744,0.9970217079431527,0.9977817362723768,0.9982565680090627,0.9984303180662932,0.9984579552217012,0.9984688234200241,0.9985200693404827,0.9985672168227461,0.9985945267675773,0.9985978635938608,0.9984990720582471,0.9982994266072391,0.9980977970665268,0.9979897627967599,0.9980461273829455,0.9982008953686035,0.9983355782682217,0.9983769028566724,0.9982654718794136,0.9980008674711202,0.9976060463516313,0.997153969367569,0.9968606160616321,0.9967893302300382,0.9967303050112858,0.9959967980947695,0.9938728405446418,0.98964735597142,0.9819579309178252,0.9662173742896667,0.9180857615896824,0.6194117170204726,-0.6131140704687976,-0.9160525944188743,-0.965269762670383,-0.9806322616744664,-0.9872185889847603,-0.9907848122504557,-0.9928486612450886,-0.9938938027025107,-0.9943498138602489,-0.9944341414714156,-0.9942717828620561,-0.9941097339233437,-0.9941397400657586,-0.9945201920322921,-0.9952736621228254,-0.9962123605196137,-0.9970781518220445,-0.9977381152770256,-0.9982350615640122,-0.9986369047228274,-0.9989590701820843,-0.999155739043646,-0.9992338826634164,-0.9992577154727216,-0.9992620481020704,-0.9992627877026767,-0.9992410353092341,-0.9992025940284018,-0.9991251696663267,-0.9989976180874138,-0.9987232949908356,-0.9982971082602874,-0.9976767866602387,-0.9970273692096674,-0.9963181194952072,-0.9951064450889016,-0.9931888354783712,-0.9888873164961781,-0.9731727215739544,-0.8472681550729565,0.614609746152387,0.9394658576169393,0.9742328535020237,0.9840367242602079,0.9880452056755192,0.9899628393553229,0.9913972811443115,0.9929947462503312,0.9947149776523845,0.9962457083634424,0.9973918789299139,0.9981304511041286,0.9985073929874744,0.9986528004485706,0.9986157627115111,0.9984337474853581,0.9982117071173764,0.9980467313335881,0.997970124371302,0.9979987878084164,0.9980640744552013,0.9979250853605075,0.9974592776359746,0.9969925259500282,0.9969534122755856,0.9973760793842559,0.9979771657433664,0.9984567917297926,0.9986618087807088,0.9986037498400528,0.9983032428292492,0.9976812357773857,0.9967654203345058,0.9958040300415485,0.9950623152579765,0.9941012920229996,0.9922690135474161,0.9863732997976014,0.9367395019499303,-0.7560763000524201,-0.9709009586900101,-0.985767172158177,-0.9896810571687182,-0.9913770198714622,-0.9926238479992552,-0.9939395064117288,-0.9953090556045012,-0.9963502061184927,-0.9969833911309796,-0.9973448568191177,-0.9975828333128282,-0.9977548914674143,-0.9978893756036594,-0.9979953026059556,-0.9981022446628913,-0.9982428068215491,-0.9984019068986618,-0.9985373165915052,-0.9986032041978632,-0.9985902410180572,-0.9985741404668019,-0.9986357597543339,-0.9988077583876769,-0.9989991248432902,-0.9991047055551361,-0.9990623520299375,-0.9988508049382467,-0.9985837481295509,-0.9983604019617774,-0.9982397918696789,-0.9981798280079769,-0.9981004344069414,-0.9979364115077606,-0.9976047429718405,-0.9967487264122697,-0.9950372035348621,-0.991763252695991,-0.9838005489583941,-0.9534671826742576,-0.613140493585305,0.8182705015937018,0.9524649999787966,0.9733698569432523,0.9807734265906353,0.9849228108097106,0.9881345907733552,0.9911297121202988,0.9940287196708977,0.9962546457503436,0.9976122670603755,0.9982334986179349,0.9984672115660628,0.9985156201119441,0.9984329188079333,0.9983371619083256,0.9983417497315532,0.9984534803455176,0.9985966952755513,0.9986817706538317,0.9987155819873039,0.998745553938519,0.9988029403313243,0.9988847904896021,0.9989441173662422,0.9989512333020104,0.9988818236972374,0.9986452779806752,0.9982366933564599,0.9977606582550245,0.9973496405300291,0.9971190328949926,0.9971513110067015,0.9974214122008738,0.9977107842652104,0.9973897879442402,0.9952332547313277,0.9885077844700821,0.9673568519862561,0.8570460581945734,-0.1889188717302554,-0.8622553836252753,-0.9434952906601275,-0.965537153280312,-0.9751281014378871,-0.9810178657060259,-0.9853202742269919,-0.9886925672476385,-0.9913379889305036,-0.9930007269579164,-0.9939510484564216,-0.9947064445023993,-0.9954817881294534,-0.9962192750205745,-0.9968791491883299,-0.997402061101485,-0.9978240981699715,-0.9982144832018318,-0.9985935545757806,-0.9988824150193872,-0.9990279862737473,-0.9990488218182987,-0.9990248935997839,-0.9990271031484377,-0.999068221651649,-0.9990545021082332,-0.9988871519427653,-0.9986338115934533,-0.9984150219549641,-0.9983313895515527,-0.998343418474729,-0.998529461858869,-0.998850714543057,-0.9991754870303676,-0.9991957058277439,-0.9983646785522861,-0.9961971439652723,-0.9919327603969308,-0.9831633499192958,-0.9552466329357007,-0.7324528371395553,0.7233118386397154,0.9452041120353407,0.9725983070383567,0.9807765161227736,0.9854440075464197,0.9892573744552373,0.9924205916653562,0.9949163867643586,0.9966665217345989,0.9976669158059096,0.998049758066475,0.9981215566710698,0.998110019931492,0.9981432996000981,0.9982347270865134,0.9983160566062036,0.9983141247967259,0.9982067638567855,0.9980178799250556,0.9978051339658859,0.9976840005280041,0.9977458889768095,0.9979599909728584,0.9982634517170109,0.9985860456088427,0.9988098294112582,0.9988974414451395,0.9989479612852855,0.9990595113121586,0.9990910239672687,0.9987644491713393,0.9977196859221992,0.9955284309191734,0.9918268939499383,0.9868136163050908,0.9803947466115386,0.9695817003843854,0.9372121916412912,0.7332525724801535,-0.5026031724144762,-0.9019800054492145,-0.9605244701231477,-0.9785257351474839,-0.9865761318784064,-0.9909437605166145,-0.9938039983336957,-0.995707714169449,-0.9968296496911313,-0.9973977831258387,-0.9974652392616818,-0.9970408821910248,-0.9963924712318752,-0.9958860715310421,-0.9956299298530856,-0.9955876947488526,-0.9958382487646629,-0.9962724382720541,-0.9966883935578866,-0.9970890033844756,-0.9975225033085133,-0.9979706068578513,-0.9984173075302968,-0.9988298235004635,-0.9991496457129276,-0.9993149862791684,-0.9992722105244648,-0.999077207775016,-0.9988668860460864,-0.9986725612383865,-0.9984882327821926,-0.9982829309837655,-0.9980147970299176,-0.9974440787118468,-0.9964240790907497,-0.9946628009152513,-0.9917825235886162,-0.9872037318046911,-0.9782229670354583,-0.9474646541642832,-0.7106559556691995,0.6367034340342934,0.9277328655370509,0.9709760268471019,0.9844063096141649,0.9899391231036296,0.9923161557515549,0.9931583174409698,0.993326042902174,0.9933380215175883,0.9935878328876532,0.9942021677982102,0.9951362576750548,0.9962010491739706,0.997178575775518,0.9979131188633968,0.998425653679244,0.9988006125842811,0.9990581512170209,0.9991141090443739,0.9989308906379534,0.9986345496479206,0.9983267885856278,0.997956940020104,0.9973425488764014,0.9962530432255171,0.9945854121894719,0.9925739966725973,0.9909083978351715,0.9903631839238446,0.9909210833846074,0.9920403803921333,0.9931332375304917,0.9940372748140526,0.9946087588817375,0.9948012803415683,0.9942873106495633,0.9920812401685919,0.9843555222955475,0.9477956073330638,0.519322537842597,-0.7972569081907647,-0.942281912327449,-0.9698957382263511,-0.981210912853317,-0.9879549292898833,-0.9922216571604835,-0.9947092180573271,-0.9960488190298344,-0.9966515497046783,-0.9967783854744627,-0.9967544432502894,-0.9968105225764224,-0.9971691743889027,-0.9977153986113484,-0.9982341747783504,-0.9985588099337712,-0.998715008599964,-0.998761479284624,-0.9987542934696245,-0.9987079517584352,-0.9985939189996152,-0.9983785773249878,-0.9981357782462383,-0.9980051666517606,-0.998013185940305,-0.9980596789501013,-0.9980769663509165,-0.9981310692565091,-0.9981838904846614,-0.9981447182756263,-0.9979203395836358,-0.9974637435960253,-0.9967212448430925,-0.9955972121815546,-0.9938096170082192,-0.9911133854044671,-0.9867111252396099,-0.9772346993974843,-0.9480320017431014,-0.7955530429901974,0.28464522536627995,0.8722448355803032,0.9542416396183162,0.9774445713777056,0.9868487548460563,0.9911460656571781,0.9933441212365699,0.9944804064224338,0.995072489833184,0.9954075438112755,0.9955168867906142,0.9955610513316504,0.9957099069145797,0.9958818016379972,0.9960729856969367,0.9963683248303418,0.9967287555489679,0.9971179489823387,0.9975193545839448,0.9979247428519907,0.9982322210943887,0.9984086993491361,0.9984604780996011,0.9984156147403025,0.998328169412715,0.9982474788295298,0.9981664245385847,0.998093189389173,0.9979509656700932,0.9977056276525501,0.9973333279357597,0.996775391464402,0.9958349775791885,0.9942716439824368,0.9914868612008327,0.986184161455585,0.9748115923192122,0.9475911186039386,0.8657729065875337,0.4943816940170421,-0.5156814526677689,-0.8731357539462576,-0.9467119081643339,-0.9693206087762822,-0.9782917792927749,-0.9826409283825002,-0.9852436520570835,-0.9870549751279275,-0.988421737412596,-0.989442186661377,-0.9900887481620292,-0.9904518133408632,-0.9906425960213223,-0.9908466056718821,-0.991243633617726,-0.9919130155676746,-0.992783665402491,-0.9937205431033757,-0.9945507154732804,-0.9951985094877872,-0.9956600961324763,-0.9960140949080477,-0.9964325159042966,-0.9969579933003001,-0.9974998832686286,-0.997864793843756,-0.9979767197457677,-0.997985739320825,-0.9979972619220338,-0.9979348369442009,-0.9977006709187507,-0.9974510633672098,-0.9973181558522229,-0.9970793269243869,-0.9961347784251233,-0.9932920594679675,-0.9861506585781274,-0.9697794772990023,-0.9270912989963944,-0.7478548610022999,0.24064682293410325,0.8522410175974985,0.9436214756500776,0.9663929233334985,0.9755336079750919,0.9809541327851078,0.9850328134625843,0.9882581340147978,0.9909411148450579,0.9929157961442657,0.9943333846431753,0.9953500476811467,0.9961805827386722,0.9969222238122616,0.9975625332048468,0.9980816756204414,0.9984419597074021,0.9987302131587626,0.9990256454887018,0.9992027874195517,0.9992932051867726,0.9993254146030303,0.9993374262049964,0.9993526325603427,0.9993850952157379,0.99945009726103,0.9994522961932758,0.9992045398308846,0.9986548969626323,0.9979953831821476,0.9974980972172371,0.9974216497470622,0.9978488115103814,0.9984129614276599,0.9982145737697595,0.9960440294169621,0.9891992946563971,0.9668470569098745,0.854336970940536,-0.1462645807751394,-0.8692564264204315,-0.9548265872037097,-0.9774153557665418,-0.9867295805579687,-0.9912469125160369,-0.993533977347271,-0.9947541312152238,-0.9955109453565717,-0.9960525797165473,-0.9963647922424849,-0.9963913117976927,-0.9962673291029523,-0.9962121017388972,-0.9963209086055081,-0.9966117943986519,-0.9970788204728954,-0.9976655248470817,-0.9981505341547441,-0.9984770452668786,-0.9986201073088841,-0.9987048827806991,-0.9988028759101061,-0.9988605211117467,-0.9988430221904288,-0.9987539613107753,-0.9986123148042727,-0.9984349881996336,-0.9983358311411261,-0.9983801637009764,-0.9985540436831901,-0.9988077595320768,-0.9988869092575992,-0.9985064697647876,-0.9973757869058933,-0.995048908895594,-0.9908476646680945,-0.9833215921709463,-0.9675114038857783,-0.9177496620677944,-0.5980736370234737,0.6375231732444627,0.9248792956893731,0.9726527017016725,0.9869524774110556,0.9925114255348186,0.9948955667302872,0.9961076752360911,0.996839297964211,0.9972853641260374,0.9975541637501872,0.9977044748385637,0.9976285185102628,0.99727447051826,0.9969399070570173,0.996985754895133,0.9974378586048237,0.998096906790035,0.9986972340872562,0.9990113167081234,0.9990697724067107,0.9990342406062372,0.9989970215792767,0.9989523234809233,0.998865487958627,0.9986763822587201,0.9983112984297488,0.9978077455523207,0.9974184226174522,0.9973658506560471,0.9975862453526592,0.9977889326028351,0.9975880565195384,0.9966224605205499,0.9946067978029274,0.9911252203918053,0.9858001347894182,0.9772095609977821,0.956808341507443,0.8514643856838234,-0.4268821047628433,-0.9388296412908101,-0.9793419572609794,-0.9894615064067823,-0.9933946145035031,-0.995260964743503,-0.9962606032798769,-0.9969634576155304,-0.9976243068183633,-0.9981714024463934,-0.998540087430547,-0.9987910077744303,-0.9989968074587863,-0.9991037924101813,-0.9990108106944039,-0.9987490387241552,-0.9984571931439495,-0.9983493149788177,-0.9985158013794202,-0.9988743765492257,-0.9992564948788689,-0.9994841378688865,-0.9994626341350353,-0.9991860293213902,-0.9988507919941155,-0.9986756491907394,-0.9987250622406276,-0.9988990582820518,-0.9990746771539974,-0.9991625916786644,-0.9991043279456912,-0.9988714235093392,-0.998394879934339,-0.9976295292978397,-0.9965183398492995,-0.9950667333900324,-0.9933523908989385,-0.9910643055357844,-0.9861649773854104,-0.9675120553841686,-0.8036504029091299,0.6590299925243787,0.9355138764100631,0.970970299721721,0.9821559553953821,0.9866757006084166,0.9886863623425469,0.989940392347972,0.9912661235425189,0.9925629027155389,0.9935498805726474,0.9943278324733494,0.9949758431496376,0.9954561262778803,0.9958201744177269,0.9961676868154217,0.9966354648522959,0.9971817703232279,0.9976720187691788,0.9980129337334223,0.9982331515839633,0.9983578327197699,0.9983646252034185,0.9983232456152864,0.998360815020167,0.9985206417480449,0.9987355073909301,0.9989228369057614,0.9990120322612144,0.9989798972042311,0.9988215646625503,0.9985318331567072,0.9980327048045152,0.9971861573883642,0.9958059625794902,0.9936323593397411,0.9898717065220484,0.9822137268155404,0.96319449956298,0.8940539785682422,0.47688618198412125,-0.5385526253058559,-0.8379380713334189,-0.9122044334704758,-0.9403929397223112,-0.9541463002762969,-0.9624843606298261,-0.9690735268091485,-0.9751926003208834,-0.9809309836681266,-0.986242103921498,-0.9904817279720752,-0.9932266553735538,-0.9946950819575423,-0.9955006520079634,-0.9961232855219153,-0.9967069623969851,-0.9972514144979704,-0.9977229698359096,-0.9981290896439099,-0.9984630252724175,-0.9987579813095049,-0.9989241104936454,-0.9988935719214186,-0.9986955879917443,-0.998402920115302,-0.9980422708767092,-0.9976694178993051,-0.9973332909833017,-0.9970517692030257,-0.9968564827088539,-0.9967103431760557,-0.9965046733683722,-0.9960856129592022,-0.9953665180461585,-0.9942452247941297,-0.9924399347150632,-0.9889872032797413,-0.980818910209318,-0.9549771365334856,-0.7927614400050105,0.6031830022599298,0.9463691691530635,0.9828981820069267,0.9925505695007019,0.9959576921298566,0.9971805593232694,0.9975988979974187,0.9977055702435359,0.9976807539286108,0.9975728075498939,0.9973093362672585,0.9968819002505553,0.9963637007209949,0.9959006965869178,0.9956729704780263,0.9956342185458672,0.9956737554882703,0.9957765442085196,0.9959668473948036,0.9962701978232917,0.9966875054621817,0.9972452633435404,0.9978898780985401,0.9984446407942333,0.9987078480462948,0.9986047738350292,0.9982919915706823,0.9980193304006689,0.9979270763080847,0.9978916610066044,0.9977834549886923,0.9973881026668903,0.9963842999589593,0.9941540128889131,0.9897296585312682,0.9821820709493507,0.968287291766448,0.9290627102501228,0.7221680048835745,-0.27366755021397476,-0.7946148385841852,-0.9058129094567221,-0.9482741660559555,-0.9714681332789474,-0.9847436031941323,-0.9914804887602106,-0.9943636948579504,-0.9952873117877423,-0.9953762350817594,-0.995358067575411,-0.9956789580396913,-0.9962652618364357,-0.9967110893655461,-0.9969500417351538,-0.9971593403996638,-0.9973835160509709,-0.9975858691387627,-0.9977046609362494,-0.9977461909692095,-0.9977838830242126,-0.9978677239320163,-0.9979898472602063,-0.9981449238802697,-0.9983603111182622,-0.9986271525871352,-0.9988052877851535,-0.9987566519493061,-0.9983184115769633,-0.9974353423671803,-0.9961224196975579,-0.9945851722891162,-0.9933350917409135,-0.9928502224554198,-0.9930235056743959,-0.9930112162791364,-0.9920943676610602,-0.990022611978057,-0.9855321956101721,-0.9716621379022602,-0.9081197519422329,-0.3957722949277549,0.7078472739495149,0.9147322596285773,0.9607044173404508,0.9779256351840956,0.9864848020460781,0.9913456992597796,0.9940319555980796,0.9953784036390251,0.9960664605029568,0.9964026704537918,0.9965796032242819,0.996792505302942,0.9971097306350594,0.9975262794327808,0.9979191557806819,0.9982343806043724,0.9984563728740088,0.998555419506698,0.9985278833182623,0.998414562599949,0.9982923028003624,0.9982325733079772,0.9983440793428693,0.998675870045753,0.999074993022981,0.9993172609697806,0.9993403209227638,0.9992207033065001,0.9990901402130064,0.9990015355929397,0.9988789082401313,0.9985209313609678,0.9975323332190938,0.995623868652208,0.9930351985367211,0.9907536033945387,0.9867890865388566,0.9659776480788812,0.7854321258153217,-0.6462164888459029,-0.9373934938659398,-0.9728142912207259,-0.9828001793329404,-0.9871392448832783,-0.9892174684900965,-0.9903090762944391,-0.9910433866815915,-0.9918926006121465,-0.9929892893382769,-0.9940967401679682,-0.9951298754392,-0.9959952768205674,-0.9966592725028416,-0.9971555885613712,-0.9974714290547977,-0.9976627160807583,-0.9978341064707369,-0.9980363043464544,-0.9982302669760784,-0.9983270999891896,-0.9983097525224381,-0.9982159161813728,-0.998141436501567,-0.9981321336714158,-0.998311117892658,-0.9986040994602899,-0.9987308203855412,-0.9984631623040574,-0.9978803720592572,-0.9970839920114606,-0.9959565169100062,-0.9942518865944736,-0.9917523514330939,-0.9881471748807149,-0.9832314519341303,-0.9770294138566898,-0.9694153267431487,-0.9549809497097109,-0.894760106824256,-0.3029467402594282,0.8116612753047092,0.9433329366448377,0.9702304588610581,0.9800313317507686,0.9850885527699674,0.9885345810127949,0.991143046561598,0.9930992688126519,0.994513175107756,0.9953417672226439,0.9956217723806802,0.9956773208545977,0.9958675501076993,0.9963879289624067,0.9970809452943946,0.9976970175415755,0.998147667934089,0.9984552125715144,0.9986475889486657,0.9987464211987872,0.9987701191421842,0.9987320766300284,0.9986410026154942,0.9985514204823525,0.9985226402577244,0.9985349440013437,0.9985857673908407,0.998612494084315,0.9986225837870795,0.9986880777787714,0.9988481845358719,0.9990470932564782,0.9991904314928499,0.9989859606729321,0.9979319054074414,0.9949863932555572,0.9874512936976558,0.9620939114262852,0.7888887393853247,-0.5030792357587427,-0.9065912841782934,-0.9624445075810223,-0.9789050431531742,-0.985473249089052,-0.988997035492759,-0.991429605498586,-0.9933960355109237,-0.9948518660328055,-0.9959054554683711,-0.9966690086951963,-0.9971660968971819,-0.9974951922242813,-0.997699545740652,-0.9978870143278615,-0.9981044360167447,-0.9983139967902668,-0.9984794027491222,-0.9986200838304475,-0.9987832212178389,-0.9989255108580488,-0.9990126532992999,-0.999068077799526,-0.9990775837624163,-0.999011251122272,-0.9989102734520473,-0.998916920272042,-0.998939710962957,-0.9989244428670382,-0.9989742003334325,-0.9991389671044119,-0.9993219953465515,-0.999390346527559,-0.9992480306130388,-0.9987829790044909,-0.9977547790063032,-0.995485488913973,-0.9894567061966303,-0.9668868623130381,-0.7676463510862324,0.7568439737395867,0.9556526641354631,0.9806095540701503,0.988810292766014,0.992747242982035,0.9947865829739032,0.9957364013920397,0.9962488359279179,0.9965740752501161,0.9968270268754238,0.9972041661910503,0.9977639855995547,0.9983577077207297,0.9987169591271174,0.998811983671368,0.9987500359658091,0.9987002830720547,0.998787990495846,0.9989834657583962,0.9991439881306394,0.9992112683398967,0.9992032035057837,0.9991177541407635,0.999016247462829,0.998979949317827,0.99904237406795,0.9991181619009384,0.9991054011666342,0.9989922656601427,0.9988435784855755,0.9985589839879666,0.9979984720709042,0.9971019455264426,0.9958296747742671,0.9939780391527655,0.9911383366064005,0.9861907889582234,0.9760397039050949,0.942707844677929,0.6297220989671307,-0.8138708094842065,-0.9610660980077491,-0.9827939533822297,-0.9896043919085051,-0.9923684481722719,-0.9937139547028964,-0.994753550982021,-0.9956234251482736,-0.9963010507366413,-0.996743288685858,-0.9970226499588414,-0.9971794767952549,-0.9971756643030151,-0.9969839945971106,-0.9967758828163593,-0.9966758337163256,-0.9967466102763526,-0.9969890425456206,-0.9973215832066085,-0.9977332900777328,-0.9981911183199947,-0.9986567813663534,-0.9990784672213496,-0.9993068054180549,-0.9993296724574122,-0.9992756442264347,-0.9992557024790205,-0.9992840143188958,-0.9993146159540804,-0.9992784078921061,-0.9991254728886968,-0.9988142319186992,-0.9983262680902137,-0.9976148671566506,-0.9965048009631166,-0.9943062779748747,-0.9893035430248024,-0.9769927736621441,-0.9360423661567756,-0.6800449360015491,0.5560075144536806,0.9068687193009739,0.9616912766467187,0.9787656414477296,0.9863309439692217,0.9906704428132114,0.9935405070242092,0.9955388720314802,0.9967908351645306,0.9974778406024611,0.9976804338483812,0.9975407447857997,0.997399934192262,0.9975663095147143,0.9980153457161361,0.998463649545224,0.9987476777267238,0.998855511005922,0.9988530199295315,0.9987915811484877,0.9986409241118155,0.9983599187329453,0.9980121391996729,0.9976886164798354,0.9974669253720283,0.9973353493667302,0.9973090950502124,0.997428635420688,0.9975226913158658,0.997468370194322,0.9972939918813885,0.997131605348141,0.9970120525127262,0.9969383625376707,0.9967346553740474,0.9961632209502025,0.9947775049482611,0.9904603802070765,0.9719363470997173,0.7759203269779135,-0.8220766611353888,-0.9720189195286535,-0.988863192698062,-0.9922799150257714,-0.9926806383360904,-0.9923375671223404,-0.9920306637751762,-0.9920785716804545,-0.9926295806610533,-0.9936605337974767,-0.9950516412835232,-0.9964148413056714,-0.9972870579092104,-0.9975891190238487,-0.9976698409094438,-0.9977863906919081,-0.997962019333939,-0.9981874928466946,-0.9984010690110526,-0.9985248691788574,-0.9985015653093364,-0.9983453119715613,-0.998162208929381,-0.9980767130586793,-0.9980528749425699,-0.9980427588162687,-0.9980638546112788,-0.9981326917464651,-0.9981251098025119,-0.9979059150963199,-0.9975866684009422,-0.9973648658776276,-0.9972959289413464,-0.9972872694614872,-0.9969271325083059,-0.9955565127369063,-0.9921614531378161,-0.9841997199940765,-0.963984463130187,-0.8908339469222594,-0.33777523509190904,0.7971946677457242,0.9524431670737074,0.9806365501444045,0.9898112899079746,0.9939184812793995,0.9962294436029374,0.9976907263961533,0.9985825628507661,0.9990097404823401,0.9991317828840899,0.9990610931255999,0.998846347480832,0.9985170791241802,0.9982023572639839,0.9980068987164356,0.9979873060129257,0.9980342922874872,0.998077461889712,0.998096147596903,0.998021886856993,0.9978101354291454,0.9975191536162669,0.9973176271651399,0.9973867144986919,0.9977657056489919,0.9981747104192997,0.9983899423851818,0.9984689609733398,0.9984565187757596,0.9982974123915962,0.9979084426796432,0.997267168490421,0.9963359482589627,0.995006150825408,0.9931822290360384,0.9905351378176863,0.9864027606705171,0.9794038245031114,0.9646870741364021,0.921925034834094,0.717583912787588,-0.3134657346491667,-0.8537078193071768,-0.9417057228272059,-0.9659546193230479,-0.9762456862001715,-0.9822745911221191,-0.9865714013322885,-0.9896496524533457,-0.9916053558438944,-0.9927055438938508,-0.9934316383939727,-0.9941554756356848,-0.9949472450433362,-0.9958156952084138,-0.9967455962683468,-0.9976705866611433,-0.9984496069674105,-0.9989779507460892,-0.9992919253015319,-0.9994505361042205,-0.9994978114582155,-0.9994303472698726,-0.9992741828121756,-0.9991239027115989,-0.9989990496931808,-0.9988151503811552,-0.9985598642725292,-0.9983356459139531,-0.9983111763106979,-0.9985637742362202,-0.998966036480154,-0.9991926370133982,-0.9989510388702376,-0.9979469890717285,-0.9954865854378218,-0.9888830627300387,-0.9684013676282253,-0.868020121836478,-0.13665805493592964,0.7262603526931355,0.8977305467642562,0.9471861408718834,0.9668100406195145,0.9764327739232052,0.9825117001484984,0.987267782791518,0.9909566505562857,0.9937117462255723,0.9956807112600193,0.9968861757110841,0.9972875112519617,0.9970780349942293,0.9967830297506696,0.9967578016994194,0.9969348244540479,0.997210654729493,0.9975695532951598,0.9979857940589331,0.9984088955617487,0.9987646706532274,0.999039075420799,0.9991982473751394,0.9992099606908807,0.9990414066493368,0.998825407197755,0.9988310375249642,0.9990882979322846,0.999380164048489,0.9995134420804471,0.9993410712314899,0.998868376337403,0.9983731224225371,0.998085241291219,0.997813769300417,0.9971539160455187,0.9956183779371344,0.9899712618010807,0.9517704528951647,-0.007108990667959735,-0.9048471238722401,-0.9649631679997906,-0.9801559779235186,-0.9859936948234037,-0.9889259638584631,-0.9912298169528309,-0.9932948644574433,-0.9949415674280774,-0.9961882311462735,-0.9970974356496356,-0.9977165092553042,-0.9981038945678039,-0.998246708936927,-0.9982009292685848,-0.9980862360852716,-0.9980271499833675,-0.9981425378495576,-0.9984490475067342,-0.9988000491510755,-0.99903575849984,-0.9990823057788021,-0.9990001866281216,-0.9988761718840412,-0.9988041628535148,-0.9988569219067311,-0.9989703005135033,-0.9990387166673746,-0.9990519715065115,-0.9990600745091901,-0.9990868810770752,-0.9990932829891271,-0.9989342885418687,-0.9984704054612895,-0.9975492323563958,-0.9961387995071067,-0.9944018046262159,-0.9917859246592938,-0.9842506984758604,-0.9280681675859648,0.7915286468118953,0.9839244995314205,0.994924411976086,0.9976113668462404,0.9985970471573771,0.9990179937137348,0.9991969611296457,0.9992756443148423,0.99926731781417,0.9991259755268044,0.9988449485329552,0.9985352191164188,0.9982570878897059,0.9979956705018483,0.9978173391456642,0.9977655206153286,0.9978168824313474,0.9979993001297719,0.998304893015431,0.9986062627805328,0.9988134448961741,0.9988856632448284,0.9988765109977579,0.9987921459842855,0.9985993466563479,0.9982476638045507,0.997745345031537,0.9971641649786513,0.9966478925874334,0.9963038190668119,0.9961092520377279,0.9959819788879867,0.9958508282000336,0.9954375025049417,0.9944140033812444,0.9925363624631287,0.989425272390581,0.9843106403235783,0.9750038953752231,0.951239179245427,0.8553385702785636,0.14758721371500755,-0.8210943371189964,-0.9542502166732398,-0.9815816290137058,-0.9902674386192318,-0.9935603652255734,-0.9950474626830171,-0.9960291100077249,-0.996880160584923,-0.9975926622586166,-0.9980847197581151,-0.998311043668896,-0.9983246378556666,-0.9982468658074098,-0.9982550184998805,-0.9984065023506085,-0.9986036686968783,-0.9987907092460885,-0.9989428126391848,-0.9990076479001248,-0.9989909050209375,-0.9989400588816971,-0.9989198451610103,-0.9989011082610546,-0.9989088750501346,-0.9989521246935912,-0.9990802441929776,-0.9992367200766659,-0.9993303096139241,-0.9993358810605838,-0.9992481686152823,-0.9989420597236629,-0.9982598956622248,-0.9972765618246665,-0.9959639680444076,-0.9939778681898281,-0.9900524921503364,-0.9801160345723228,-0.947791783852134,-0.7391088359014939,0.6318306303247323,0.9425238952249756,0.9788594144015783,0.9884101213656277,0.9921134183417639,0.9940453604693477,0.9953204199026825,0.996332708541767,0.9971503195068958,0.9977831875550203,0.9982656719934729,0.9985652495832806,0.9986710850708828,0.9986465927098672,0.9986057061840911,0.9986358113301124,0.9987415569621344,0.9988371169259629,0.9988262051855863,0.9987900191941042,0.998820700093126,0.9988847126406059,0.9988270783277694,0.9985188876391263,0.997941375225329,0.9972585758889745,0.9966182571631189,0.9961334647512263,0.9959362132669863,0.996159775264853,0.9966028670414964,0.9966389191621111,0.9957026004970924,0.9934676451112642,0.9895230734814447,0.9827783635389131,0.9697358639374313,0.9365599393291729,0.8011417256055248,0.08770204993953704,-0.7201667816436356,-0.9074694298916738,-0.9592680162643328,-0.978156728633417,-0.9859681521007521,-0.9893414798887986,-0.9910032962709777,-0.9918716776845549,-0.9922589959999506,-0.9925577820251215,-0.9931663439365325,-0.994155644603426,-0.9952281388585625,-0.9962056530871689,-0.9969777547201986,-0.9975305995651058,-0.9978584131607645,-0.9980459778364853,-0.9981747048080869,-0.9982874274552556,-0.9984240953549876,-0.9985922893566236,-0.998735236653219,-0.998805272839792,-0.9987651067714862,-0.9986923115496096,-0.9986553070395735,-0.9986809621890452,-0.998677535153823,-0.9986120451555505,-0.9984524567849892,-0.9980737901412801,-0.9971164898099254,-0.9951159436655651,-0.9914902137546613,-0.9849870629909923,-0.9710989241766246,-0.9290391405450944,-0.6963477109452892,0.4378422068880521,0.8788231769462722,0.9523327035414231,0.9740107433471047,0.9824895293654466,0.986393524273405,0.988481824145483,0.9900862653319492,0.9917492699163198,0.9935863970669507,0.9952939841340294,0.9966045030884976,0.9974297264554236,0.9978916255638594,0.9981304321233019,0.998246464318312,0.9982649571597922,0.9982261645166236,0.9982034701776219,0.9981987552937406,0.9982005510471461,0.9981253164069311,0.9979806545791395,0.9978480281979821,0.9978099767367178,0.9979068952131954,0.9980483943280878,0.9981672797109754,0.9982112627359678,0.998282785363244,0.9983728893905002,0.9984066929800239,0.9983308764092992,0.9980398505825859,0.9973498280140022,0.9958465115329055,0.9922659081268597,0.9831382387129975,0.956366464032397,0.8377120758140135,-0.08946468788933551,-0.8755110509122419,-0.9652655498755282,-0.9834000582571204,-0.9884332630371407,-0.9901463520663918,-0.9912845755251601,-0.9926603705370918,-0.9940940645005039,-0.9953154611011937,-0.9961834059940837,-0.996700293781491,-0.9970049983952748,-0.9971955088539393,-0.9973251701038012,-0.9974117661332502,-0.9975469453341999,-0.9977920414936777,-0.9980982262621918,-0.998385174066996,-0.998597778642841,-0.9986291533423513,-0.9983515574444368,-0.9978552320483015,-0.997536747273824,-0.9977664477635447,-0.9984344500334511,-0.9990734386025182,-0.9994089552423586,-0.9995219339700194,-0.9994962496592367,-0.9993530706401005,-0.9990132433924648,-0.998273554698506,-0.99684659744966,-0.9948156517165679,-0.9924629000727374,-0.9894193737098929,-0.9815055842942538,-0.9389471478773843,-0.12435890436932863,0.9172365805860146,0.975970866702728,0.9880703806171753,0.9925744070670746,0.9946777081057475,0.9958192045113484,0.9965719285754289,0.9971506846717696,0.9975503831962219,0.9977604724708192,0.9978959233941087,0.9980192597317837,0.9981323243327036,0.9982641767033469,0.998449870990383,0.9986632723989185,0.9988233919008619,0.9988775987809507,0.9988378002262746,0.9988017392800822,0.9988753771896328,0.9990296621861654,0.9991658738002582,0.9991797255405276,0.9990437470381776,0.9988422926110943,0.9986311040734629,0.998430657717003,0.9982306713316784,0.9979747135411198,0.997637848339441,0.9970751849501309,0.9960517261833937,0.994280768526656,0.991351126266344,0.9864553931218998,0.9759637260161195,0.9413990134394633,0.7534699715597623,-0.27749583273286577,-0.8451808314861444,-0.9437288852630314,-0.9722289181304618,-0.9839181597260332,-0.9897366980717813,-0.993013099794939,-0.9950485821254828,-0.9964310731977928,-0.9974515102048573,-0.9981755742829667,-0.998591314473304,-0.9987569711997955,-0.9987883669299696,-0.9987999670397381,-0.9988889052529384,-0.9990557964739716,-0.9992010084405567,-0.9992076756284906,-0.9989984899911498,-0.998680157445645,-0.9983928778506206,-0.998199924360316,-0.9981201378437504,-0.9980965157378364,-0.9980452315985495,-0.9979059907082832,-0.9976768651602167,-0.9974517571949933,-0.9973331395119084,-0.9974319570004,-0.9978538380430952,-0.9985997975587436,-0.9992981540615572,-0.9993906119235416,-0.9988172064392243,-0.9978631176646964,-0.9962773909960648,-0.9912434668933922,-0.9461209013628483,0.7397834745015355,0.9698282043971921,0.9869978841774731,0.9922834972470486,0.9944432776081205,0.9951430485159042,0.9953043081466465,0.9956809075332317,0.9963598647496391,0.9971029537167437,0.9976444195595943,0.9979683171345115,0.9982316999919636,0.9985177589102002,0.9987569697682338,0.9989000916891004,0.9989390903768024,0.9989030317332817,0.9988418593457509,0.9987980844913893,0.9988270909038719,0.9989153245563174,0.9989827753706253,0.9989725191188601,0.9988392742733637,0.998694752995851,0.9986451803256509,0.9986580189371732,0.9986381594846312,0.9985551599110921,0.9984277086778027,0.9983100788875267,0.9980818811646581,0.9975927987954688,0.9965624400342623,0.9946822496925132,0.9914148533593404,0.9840269878172856,0.9459434458338954,0.35702920079827766,-0.8137190833948248,-0.9347261144837483,-0.962265154621686,-0.9739859984284047,-0.9812569020021176,-0.9870673745840922,-0.991466078333434,-0.9943068182077254,-0.9960188371437619,-0.9970467314731446,-0.997653361456574,-0.997867952777812,-0.9978250924415065,-0.9977078671626268,-0.9976294546504904,-0.9976222331966703,-0.9977612429841277,-0.9980448571662792,-0.9983465802629986,-0.9985494795426618,-0.9986365655034894,-0.998636919545367,-0.9986095880821805,-0.9985581152384355,-0.9984549908199414,-0.998241487653451,-0.997909462558246,-0.9976539175925763,-0.9976054934574671,-0.9977237674050523,-0.9977125536005773,-0.997490557584094,-0.9972238221626997,-0.9971204337153492,-0.9970980255603208,-0.996585226397701,-0.9946452498017749,-0.9892986670473919,-0.9733706758136564,-0.9094007699386525,-0.4421006398986727,0.7187532300026078,0.9303030965868189,0.9722274416949863,0.9867931831196356,0.9932432932891789,0.9961155486036897,0.9971255279902409,0.9973412490651662,0.9974510576578338,0.9976763732052512,0.9978835663051724,0.9978632246465585,0.9976929596254615,0.9975242726468414,0.9974487906676551,0.997507665324979,0.9976650921454137,0.9978533187531183,0.9979944005394735,0.9980347240471553,0.998078850927494,0.9982593028888193,0.9984677865376086,0.9984852801913503,0.9981566613506291,0.9974098541079627,0.9962611971412602,0.9947744424562222,0.9932884601055377,0.9922893536231358,0.991983261396508,0.9919850357677981,0.9914058374060842,0.989769423874419,0.9869468310030242,0.9827658923838172,0.9759688141987749,0.9608080465554675,0.9090085699226533,0.5803624838970798,-0.6235122864298804,-0.9091323324890466,-0.9570962787987116,-0.9723299336301385,-0.9796952226675153,-0.9848639518725256,-0.9892529885899151,-0.9927430848024891,-0.9950784172323045,-0.9963354822813748,-0.9970100085561542,-0.9974399708504706,-0.9977229101959382,-0.9978541044870772,-0.9978745001362159,-0.9978199991475301,-0.9976680049099382,-0.9975081730854867,-0.9973645456260043,-0.9973092993871365,-0.9973874173641823,-0.997574902916031,-0.9977945947175436,-0.9979899661110639,-0.9980796796992162,-0.9980221711210259,-0.9979149395764839,-0.997840646728178,-0.9978596569321428,-0.9979516823398848,-0.9979859688533838,-0.9977902474161068,-0.997239498748573,-0.9960491315420159,-0.9938139775642834,-0.9894975947428807,-0.9800744285743865,-0.9513048741119864,-0.7890742298469753,0.29169689989513936,0.8547701393326804,0.9441353203011276,0.9711752361448861,0.9824289672276594,0.9879240156974095,0.99087251733129,0.9927737502114111,0.994143208832098,0.9951602921516888,0.9958840754343838,0.9964611244200059,0.9969624012712536,0.9973133052533637,0.9974547306715467,0.9974117251157677,0.9973062114166545,0.9972660535741762,0.9973042768901893,0.9973574723401327,0.9973834000574281,0.9974021740476933,0.9975260066509216,0.9978253488716787,0.9982674010462056,0.998691596982744,0.9989616291882975,0.9990858750343788,0.9990923010690581,0.9990474304871365,0.9989454938772431,0.9986186832644194,0.9978673654940821,0.9966883495866886,0.9953325198348286,0.9937164257912849,0.9906615469551149,0.9829364247467,0.9611754206145692,0.876361279991432,0.27178363918525006,-0.7390586892538282,-0.9141856704066359,-0.9555597543347817,-0.9717950177185212,-0.9803388212773301,-0.9855769599370623,-0.9889984758573279,-0.9914088505485105,-0.9932259584132541,-0.9944166326170568,-0.9947374081247523,-0.9940966593056709,-0.9929229772881303,-0.9920609071612553,-0.9919793279013305,-0.9927715246439119,-0.9941549378485453,-0.9957289363794827,-0.9970650294720883,-0.9979059917583012,-0.9982704859049969,-0.998296272129665,-0.9980679173607822,-0.9975937308123483,-0.9968910887087128,-0.9960721013728578,-0.9954539563313534,-0.9952094857911534,-0.9954373186284936,-0.9961587264439731,-0.997266201692317,-0.9984409553133917,-0.9989646152686674,-0.9978951862036687,-0.9949977688875513,-0.9912980836389235,-0.9875254019590595,-0.9813091705331843,-0.9443247908986252,0.01420554818368302,0.8992936697841247,0.962562449317664,0.9796232435284083,0.9872945931633494,0.9913689660029561,0.9936225987142204,0.9950213837304057,0.9960866368147503,0.9969021477214525,0.9972977619773564,0.997211473706456,0.9966845252353536,0.9960707711214989,0.9958652365440398,0.9962989044951995,0.9971685513106745,0.9980750082196532,0.9986663652703205,0.9988544812935852,0.9986807124087003,0.9982945815946448,0.9979199052319213,0.9977732525399653,0.9979328605945069,0.9983112101985624,0.9987355668286076,0.9990680462237204,0.9992934495957351,0.9994498517773746,0.9995292445298904,0.9995289183554624,0.9995130745186133,0.9994958724755796,0.9993140687754747,0.9986549890971607,0.9968921842638266,0.9922026926504793,0.9765275383932023,0.8939285386608522,-0.003615286462278735,-0.8641244388844261,-0.9568890997939481,-0.9783917077913366,-0.9858888840667643,-0.9889153553351406,-0.9899567535294703,-0.9903211652913626,-0.9909673826779093,-0.9919646940056677,-0.9929144201344009,-0.9934111650606632,-0.9935140576774061,-0.9935728892462503,-0.9939235384071854,-0.9947304818145931,-0.9959256395228576,-0.9970963339349356,-0.9979623385416017,-0.9984204828058116,-0.9985724781165718,-0.9985676261005949,-0.9985635233313894,-0.9986655976216988,-0.9988287988241235,-0.9989706277069591,-0.9990396021389908,-0.9990126730061133,-0.9989144787266432,-0.9988382692296792,-0.9988385854362408,-0.9988608646076541,-0.9988177614968766,-0.9986065672951492,-0.9979704102531214,-0.99637843874783,-0.9933485876028821,-0.9881223027323812,-0.9782727527814379,-0.9513561875609671,-0.8220892334103928,0.08560709702016704,0.8165405496475481,0.9284383376682838,0.9582810478502156,0.9707302488878657,0.9780844149242525,0.9832721330148596,0.9868125084635324,0.9889070701542796,0.9901358399829477,0.9910430137536146,0.9920342648799276,0.9931440635341799,0.9944798988437442,0.9958825218161361,0.9971144072267919,0.9979691509881268,0.998382161472047,0.998485577397853,0.9985478090148496,0.9987198623329788,0.9989170401747135,0.9989906433978941,0.9989759591174951,0.9989678333122614,0.9990320431655352,0.9991243041816777,0.9991636462823521,0.9990934105048812,0.9989709936776348,0.9989165968148164,0.9989557957070629,0.9989449399483399,0.9986915045657029,0.9982078443981807,0.9973569955871672,0.9951563202549494,0.9861997878209388,0.9264675275871531,-0.0049897111044947965,-0.8793021930336961,-0.9602475966662707,-0.9801502700450729,-0.9875613151334941,-0.9903740629490309,-0.9915505755781312,-0.9924491775850474,-0.9934186911282449,-0.9944004808989685,-0.9952449239672566,-0.9959229573733156,-0.9964517511912646,-0.9967926559231209,-0.9970685932979237,-0.997419467714205,-0.9977650317437414,-0.9979748249897674,-0.99804626645224,-0.9980312699116065,-0.9979843151695506,-0.99798119888238,-0.9981081879808326,-0.9983212381717269,-0.9984811296763713,-0.9985924915344035,-0.9986448311617778,-0.9986940709020694,-0.9987491920385697,-0.998842928389323,-0.9989596421235221,-0.9990866275570596,-0.9992035840199848,-0.9993607894137322,-0.9994292962912734,-0.9989950165305518,-0.9971313454690389,-0.9926628628746654,-0.9828840883078296,-0.9527559504698396,-0.7833328779899148,0.36446861560431465,0.8847491006811179,0.9577800900040476,0.9787741588762697,0.987842516225965,0.9927512550717389,0.9955112858725018,0.9968982831966424,0.9975460988609823,0.9979082790740301,0.9982364165498737,0.9985854880209188,0.9988195881644673,0.9988876809363465,0.9989185398608088,0.9990020277629508,0.9991070819453148,0.9991673385873693,0.9991946792539533,0.9992202023891666,0.9992590513406727,0.9992947133575787,0.9993127757174655,0.9992988326296983,0.9992481925582587,0.9991691342037898,0.9990205950975559,0.9988044026348538,0.9984542093651639,0.9979354698157893,0.9973059241455229,0.9966489712444534,0.9957913404678124,0.9943747497513047,0.9920553026645247,0.9881227687358882,0.9800464957041451,0.9531488876059491,0.7598140577993288,-0.5428610484943717,-0.9147276196986435,-0.9686012035271798,-0.9848120239409979,-0.9910937409093425,-0.9937999255996584,-0.995225852027279,-0.9962100419554243,-0.9969136554493274,-0.9974222346570881,-0.9978690966233773,-0.9982602131834505,-0.9985759896467598,-0.9988277794423494,-0.9990051902992524,-0.9991293273097795,-0.9991966843216433,-0.9991598648506894,-0.9990029880372383,-0.9987701375606725,-0.9985035564119888,-0.9982166549305834,-0.9979017544635309,-0.9976883436359801,-0.9976787123588494,-0.997860758440309,-0.9981325973240655,-0.9984497598489002,-0.9988532519042497,-0.999219106408405,-0.9992714162928396,-0.9987541393602798,-0.9978498152207552,-0.9969689449465757,-0.9962696692938828,-0.9954359458023521,-0.9937155382812236,-0.9894396833534486,-0.9770010425346518,-0.9237461299289955,-0.4672626722905977,0.6884134316860381,0.9024858548278711,0.9503339442711879,0.9684412248773685,0.9769222764660149,0.9813946331678979,0.9846746038625224,0.9874533698177507,0.9897393532471052,0.9913106615673345,0.9924846469730118,0.9937156395194271,0.995111850300285,0.9964243273335025,0.9972578897909783,0.997543159808178,0.9975877132545614,0.9977203726944086,0.9980398947122041,0.9984191507044238,0.9987070191557504,0.9988840982683381,0.9989741433086495,0.9989837686637582,0.9989814053973312,0.9990040136754844,0.999088401384626,0.9991698608038144,0.9990892547833069,0.9987366806415233,0.9981151601929444,0.9973547654878137,0.9963399608541006,0.9946754842640062,0.9918161184417745,0.9868146930008717,0.977726544668224,0.9582859469343736,0.9050294947094142,0.6851322751193722,-0.140609455929651,-0.7202911459971649,-0.8753002273344034,-0.9343666565885513,-0.9633808951849802,-0.9785201631878558,-0.9868038714135293,-0.9917628409874573,-0.9948837173006615,-0.9966625441945723,-0.9975847837366776,-0.9980070414795055,-0.9980440869848258,-0.997810751411969,-0.997624662442751,-0.9976667381629917,-0.997900940808542,-0.9981656485384395,-0.9983614689517603,-0.9984680398642479,-0.9985485226916434,-0.9986260358046775,-0.9986964847835067,-0.9986703888934039,-0.9984783586090091,-0.9981984879171641,-0.9979827678576724,-0.997928385576247,-0.9981328500593587,-0.998523652958801,-0.9988586073643282,-0.9989984837789257,-0.998753389867194,-0.9977863294538837,-0.9953122093186288,-0.9900778986709202,-0.9791321986383075,-0.9518934816184248,-0.8585460802785722,-0.29173222453331915,0.7748631424142826,0.9452046959270533,0.9738761359471256,0.9826545787940418,0.9867352679525825,0.9892989962997365,0.9909674994780396,0.9919933332416019,0.9924690894860686,0.9927165755880241,0.9929966821424273,0.9936506375004173,0.9946300128564701,0.9955813576961399,0.9962033259947862,0.996567370245626,0.996900065369088,0.9973145546299812,0.9977705670356248,0.9981406641550783,0.9983701032622819,0.9984717147131359,0.9985532790321175,0.9986862838854428,0.9988049958549872,0.9988689168274519,0.9988631684767014,0.9988041832650225,0.9986542951806089,0.9983313087239352,0.997831960430405,0.9971345244077525,0.9959925806388212,0.9941773443947914,0.9912779993578008,0.9861475592262199,0.9755457557748127,0.9493130916482556,0.8662640067140007,0.4523365018294595,-0.5636410410472753,-0.8720714336031891,-0.939348564545013,-0.9624753976916192,-0.9734098792864151,-0.9800244289534985,-0.984698554725976,-0.9880334987771412,-0.990394079302804,-0.9919723759719906,-0.9928450625390076,-0.9933317967496132,-0.9936660383475072,-0.9940036220864589,-0.9944401253008254,-0.99502756312393,-0.9957573639112479,-0.9966568406166628,-0.9974911567593432,-0.9980828964573376,-0.9983519241899975,-0.9984041190929055,-0.9983861769590575,-0.9983537647792974,-0.9983261740878847,-0.9982585790071574,-0.9980693007861905,-0.9978203657478888,-0.9976991276204346,-0.9977921820586707,-0.997983747962704,-0.9981444594233122,-0.9982002035678301,-0.998083687150964,-0.9976783295182521,-0.9969631074905634,-0.9954060032348937,-0.9893402893460245,-0.9435831986448805,0.3377314733835636,0.9527193973440508,0.9864005821723376,0.9935650413331638,0.9954903605236096,0.9958832635371011,0.9958223312275284,0.9956176816076234,0.9955217154588181,0.9955747773970658,0.9956139897853796,0.9955601646406091,0.995550456315528,0.9957085486962726,0.9961275550067235,0.996785634575842,0.9973974720879916,0.9975336877481374,0.9969952227365179,0.9961042472135347,0.9954954975511973,0.9955299336062897,0.9961335478047081,0.9970244545858429,0.9979135456171263,0.998579838452259,0.9990066860694221,0.999247813072538,0.9994238322215259,0.9996029329888255,0.9997255763254116,0.9996616829831355,0.9993571017015845,0.9988284821798291,0.9980955405197767,0.9971042649245073,0.9955986050393918,0.9926532445770733,0.9850534437657412,0.9520290716047896,0.2514124795807708,-0.9393090605985159,-0.9844214502261995,-0.9921647646257962,-0.9948187678107527,-0.9961985351390485,-0.9967218819485274,-0.9965537471157099,-0.9962119966283955,-0.995960027348766,-0.9957300240350462,-0.9955741915286342,-0.9955794725734464,-0.9959149880793727,-0.9965128532261122,-0.9971087997248536,-0.9974649065211306,-0.9974998974124267,-0.9972835031562448,-0.9969997242521415,-0.9968236636395839,-0.9969046395428578,-0.9971988564794863,-0.9976316395852419,-0.9981319047457377,-0.9985701674387234,-0.998839424941019,-0.9989652480352893,-0.9990027733215617,-0.9990161930173015,-0.999065545474188,-0.999084939530264,-0.9988418587298606,-0.9980686312351191,-0.9966605321560664,-0.9945346597210144,-0.9906282874404866,-0.98147732632554,-0.9547761355410327,-0.8404175178122508,-0.05128270923204496,0.8177935312574975,0.9491240508704282,0.9779647021193673,0.9872647533387983,0.9911374330308637,0.9930832493837612,0.9942806407816197,0.995144966944577,0.9958193127706128,0.9963520023061573,0.9967200141607263,0.9969136823575389,0.9970563558887549,0.9972068777572272,0.9973236283445321,0.9974138073749967,0.9975564225195515,0.9977872060519348,0.9980990186902274,0.9983995437212669,0.9985834531878799,0.9986398403195913,0.9985936493613249,0.9985294415789048,0.9985170899968261,0.9985906390360986,0.9987061596361236,0.9988275931759548,0.9989716824266786,0.9990938946067266,0.9991244794487698,0.9990161221873519,0.9986371926406921,0.9976223727356197,0.9955372698922125,0.9916755661343282,0.9829750510143143,0.9512785676928324,0.7102687942891486,-0.6135918648881141,-0.9237795908033656,-0.9711201935714696,-0.9856711366041984,-0.9916612238846976,-0.9945507240203278,-0.995931621904163,-0.9964889728385616,-0.9966861813179523,-0.9967332043998931,-0.9967041167897345,-0.9963993077184994,-0.9955028780694006,-0.9937976076069343,-0.991224478987839,-0.9880076167878512,-0.984476362214205,-0.9810259175681737,-0.9787217551953951,-0.9793129671590783,-0.98293930453755,-0.9877060731211639,-0.9916843600094624,-0.9943790627394675,-0.9961353438743625,-0.9972993779833274,-0.9980626914425632,-0.9984425732932706,-0.9985947817191266,-0.9987409315154531,-0.9989030299860111,-0.9989026682008082,-0.998687142796394,-0.99819008515127,-0.9973814119325624,-0.9962540427635056,-0.9946707588627991,-0.9917664611090478,-0.9841828968199526,-0.956010190408655,-0.7388871440969212,0.6164143023196301,0.9180243389002848,0.9618938813026877,0.9762171531723265,0.9838106106559253,0.9888598181121643,0.9923123879862509,0.9943233470592193,0.9952646415395688,0.9954719924228271,0.9952670054389906,0.9950483868479794,0.9950510942204388,0.9954421718228611,0.9961364300562686,0.9968530937924639,0.9974223706450696,0.9977217307323111,0.9977650119191687,0.9976579807895571,0.9974867131305528,0.9972320848500575,0.9967761939102142,0.9961575297866035,0.9956020839897778,0.9954758740168599,0.9960382806476618,0.9970388866498442,0.9980062930387077,0.9985898862375545,0.9988532347849358,0.9988456454506305,0.9986011326368168,0.9980470333842536,0.9968056813954681,0.9940596444282543,0.9887970992595727,0.9790824103700068,0.9573089309939612,0.8755859406521336,0.19196459987216108,-0.830818856401841,-0.947294448234273,-0.9696069586494174,-0.9770896265851785,-0.9812322429314831,-0.9845175114371908,-0.9870360901629867,-0.9886166054967631,-0.9897801100161724,-0.9910831234750926,-0.992515981079066,-0.9938424236843618,-0.9950518338212913,-0.996153712389995,-0.9970916291154988,-0.9977987799912135,-0.9982731746981393,-0.9985681286328741,-0.9987277302926145,-0.9988052558246922,-0.9988832015125988,-0.9990157075404952,-0.9991583553297159,-0.9991791300197618,-0.99908892464279,-0.9989516196997917,-0.9988531058620853,-0.9988106002597053,-0.9987484838509441,-0.9985261651470824,-0.9980319360107034,-0.997245511940597,-0.9959531307417372,-0.9937751502019941,-0.9901081735341802,-0.9826920549712038,-0.9626314450411572,-0.8754663345009089,-0.16895517843568286,0.7974051937442146,0.9372530776430656,0.9714099561234717,0.9853836517038137,0.9923190892521908,0.9959823069697872,0.9978309859169467,0.9986839448585202,0.9990675036456093,0.9992033191666715,0.9990921717525183,0.9987096781431372,0.9981055236282977,0.9974095555182984,0.9969446057387611,0.9967502073483869,0.9967272013978264,0.9968286036050349,0.9970266970531437,0.9972656743302463,0.9975155980353618,0.9977846843228986,0.9979186191107683,0.9976299000571013,0.9969546009115067,0.9963880628245807,0.996430675009946,0.996977254044926,0.9976542404183499,0.9980690752781155,0.9981108013634814,0.9978116333410111,0.9973152872312058,0.9963705965516252,0.9943094950417461,0.9892994168991882,0.9762394944997385,0.9351249467776849,0.7248974882382497,-0.35383222791211905,-0.865186084550203,-0.9486791475045904,-0.9721200407025579,-0.9815370598371175,-0.9863691414431164,-0.9896283367570624,-0.9923502785526581,-0.9945262599178585,-0.996116504380032,-0.9971197540236654,-0.9975409335230178,-0.9975909216484905,-0.997529231442597,-0.9976182750019251,-0.9978840628961361,-0.9982359333895003,-0.9985548270331479,-0.9988071929816691,-0.998988082536778,-0.9991308431825493,-0.9992209137997748,-0.9992535293298601,-0.9992143580178132,-0.9991274231052962,-0.9990511855417158,-0.9990444489372682,-0.9991160188219208,-0.9992129938827875,-0.9993047091805808,-0.9993699507971803,-0.9993255321335364,-0.9990284240640938,-0.9983798200543517,-0.9974254411250969,-0.9961052695879681,-0.9943589594625848,-0.9914143904142497,-0.9817194591570392,-0.9116440976000683,0.37352609463561565,0.9156964725712863,0.9634974621251754,0.9774711629115275,0.984234467883364,0.9881634380494815,0.990909637817203,0.9929335185279377,0.9943897179191235,0.9953491299586317,0.9959619717362443,0.9963900468703212,0.9967566157790952,0.9971178716203462,0.9974251525339927,0.9976832899711114,0.9978878367603523,0.9980386701444453,0.9981542046373101,0.9981894079497162,0.9981196423453524,0.9980051994945982,0.998008115214497,0.9981604570065853,0.9984091821092036,0.9986275773168676,0.9987003040606037,0.9985547413099747,0.9981733038667194,0.9974802140627391,0.9964124870906611,0.9949317509479499,0.9929386232095605,0.9901239518974676,0.9862439012843195,0.9807605802709394,0.9722387479231676,0.9579243745470377,0.9273646414155321,0.8187704295023914,0.1717799216432408,-0.718122432375488,-0.8984299489588273,-0.9459237491965298,-0.9658385737270994,-0.9765915773278429,-0.9831770012238235,-0.9874744989893247,-0.9905707114074689,-0.9928273831935145,-0.9944157411372835,-0.9954547529846001,-0.996016566581788,-0.9963523561018256,-0.9966797200791379,-0.9971706579395968,-0.9977488981380346,-0.9982888742693984,-0.9986851439466349,-0.9989564133179543,-0.9991236019768767,-0.999221398279155,-0.999232322061572,-0.999139880867437,-0.9989802461523913,-0.9988382747459632,-0.9987623025717719,-0.9988030112440393,-0.9989288894306713,-0.9990347982337614,-0.9989000879274652,-0.9981787860760821,-0.9964292665208212,-0.9932538153344315,-0.9883912051932314,-0.9825021620682443,-0.977267627744898,-0.9721793630544369,-0.9563899160358708,-0.8494935256486935,0.5239344979727193,0.9514396752101092,0.9835155070125733,0.9904302960268073,0.9920930066332823,0.9919912698941995,0.9916158941275897,0.9915971303839795,0.9917474356569264,0.991988851723358,0.9924128205024233,0.9930127992373394,0.9937585635521109,0.9945939258043307,0.995460717047139,0.9963009666106157,0.9970633442809236,0.9976670643514067,0.9981181912895108,0.9984442567481078,0.9986450472650699,0.9987170501295141,0.9986560980433851,0.9985263841077466,0.9984458650980762,0.9984795162544251,0.9985747904809241,0.9986546806185489,0.9987234659234406,0.9987372348007011,0.9985893332327124,0.9982216247845797,0.9976172726267382,0.9968810143592264,0.9960743406821831,0.9949366619076038,0.9927741859365528,0.9868877135809632,0.960969138024592,0.6399399533464117,-0.7767494699807914,-0.9400470764166775,-0.9723708967574191,-0.9848511130525407,-0.9909379171193433,-0.9944197878552177,-0.9965242803492631,-0.9978810678038595,-0.9987720318360006,-0.9992354896447851,-0.9994201954951547,-0.9994739570923683,-0.9994216704709763,-0.9992520242835602,-0.9989510687489283,-0.9984743457159203,-0.9978864490592878,-0.9973382542524556,-0.9969634741505706,-0.9968841316662526,-0.9971008033781299,-0.9974227557779102,-0.9976642178220935,-0.9978234597498078,-0.9980904329090533,-0.9984737187320615,-0.9987937721178131,-0.9989194467602939,-0.9988058243359023,-0.9985291395815944,-0.9982896801731104,-0.9981312292860655,-0.9980210654709658,-0.9978285815559786,-0.9974515744110993,-0.9967687790445197,-0.9954941423392092,-0.9929527226308009,-0.9875503408903095,-0.9732332446057784,-0.9172910543941505,-0.4944528306948073,0.7101990349316698,0.9308307244621352,0.9720580574949682,0.9855938851091965,0.9911766149160816,0.993924463742582,0.9955819372746072,0.9966983992548921,0.9973855046478738,0.9977600432264642,0.9979924220768993,0.9981079413469814,0.9980992216595905,0.9980744266940926,0.9981158752068258,0.998260109426713,0.9984947763232082,0.9987250668034017,0.9988442597220156,0.9988748972051205,0.9988837323052984,0.998892554059912,0.9988671135576223,0.9986900297403866,0.9982675261049381,0.9976123145853936,0.9968757813670316,0.996235687795981,0.9958928230299512,0.9960259038146376,0.9966697811032112,0.9973376780814827,0.9971105741650605,0.9949218158891623,0.9898262394467691,0.9810698365145041,0.9639387186021632,0.9048604216322648,0.3446725518993025,-0.8629321174739096,-0.9708544441828314,-0.9872920469590684,-0.9915820619170336,-0.9930064150048746,-0.993504054464868,-0.9937801293631426,-0.9940763234965686,-0.9941872832294946,-0.9939138264855498,-0.9935551064453995,-0.993451500982983,-0.9937159542484272,-0.9943380210648912,-0.9951259928540929,-0.9958826490218256,-0.9965668284799254,-0.9971244701472551,-0.9976105512221866,-0.9980412245722047,-0.9983460828069733,-0.998389094734499,-0.998079788908857,-0.9973956964540154,-0.9964872968638143,-0.9956646513221133,-0.9953882893420192,-0.9959340860420426,-0.9969680529770577,-0.9979867895121686,-0.998748115306517,-0.9990430796233937,-0.9986262129336004,-0.9970412926752461,-0.9937485646331118,-0.9875376233422659,-0.9752062826422963,-0.9457536541870716,-0.8494910421147123,-0.4167172611850105,0.548076093565932,0.87669866952931,0.9514138236119484,0.9754926580891063,0.9851954783968405,0.989547474742494,0.9914628185243646,0.992282955323261,0.9927122249980684,0.9930313727379347,0.9933521726703336,0.9936414486455649,0.9939712029294155,0.9944496108616038,0.9951871393274252,0.9960582207418677,0.9967988676744464,0.997276497032878,0.9975808498218397,0.9978665589521879,0.9981950960615985,0.9985273275730321,0.9988134957555056,0.9989731608269913,0.9989560287143043,0.9988073470165217,0.9986209288588233,0.9984961180897918,0.9984422004348213,0.9984834547580412,0.9986022420256776,0.9987538439053043,0.9986853537430075,0.9979200051692532,0.9955474740892872,0.9897387169746429,0.9770807046577114,0.9473259904227368,0.8584839768677084,0.46056021097955,-0.5322805490353343,-0.8761917888411555,-0.9503207809072037,-0.9739805254484217,-0.9836851849261873,-0.9885636880037998,-0.991584750726333,-0.9939142970500795,-0.9957197086248905,-0.9968833778720172,-0.9973476255746268,-0.997278470249721,-0.997172348588634,-0.9973420775740298,-0.9976719103338213,-0.9979525554723317,-0.9981025106980852,-0.9981684196235373,-0.9982309329552908,-0.998328533473497,-0.998472117634544,-0.9986346038655762,-0.9988121833069585,-0.9989651761776868,-0.9990285068061366,-0.998976020329206,-0.9988118146481056,-0.9985857024545969,-0.9983692289426371,-0.9981893648633776,-0.9981100595502963,-0.9981748713946389,-0.998234837577754,-0.9980568239389183,-0.9974919834627061,-0.9963869968194697,-0.9941362053022367,-0.9886569237298496,-0.9683951651335229,-0.7591177165895603,0.7990061945253263,0.9590293422099295,0.9808547237978917,0.9880744894805723,0.990876734120267,0.9917300678825255,0.9915233367528051,0.9911338040081759,0.9907714092078882,0.9903267202539585,0.9899806922058088,0.9899043319874753,0.9901817246303424,0.990809777773615,0.9918115931054555,0.9931163988755105,0.9946515762974458,0.9962840139119501,0.9977248834902759,0.9986706074002996,0.9990347815166516,0.9990804802707265,0.9991086754056849,0.9991842916001764,0.9992052319956998,0.9991402154515421,0.9990730135915022,0.9990391635254527,0.9989745235986518,0.9988355200688388,0.9987040959680328,0.998659555608026,0.9985901421109084,0.9982942891490582,0.99745191548937,0.9955661061169522,0.9909862724795817,0.9776403131281968,0.9158855061895682,0.19499967725707068,-0.8482023677528443,-0.9517002867778869,-0.9739456782178929,-0.9819437339679367,-0.9855263050100684,-0.9870559182309013,-0.9877084585977676,-0.9879878703027348,-0.9885821072444642,-0.9896940547518526,-0.9913133898771421,-0.9929934244046879,-0.9945454369535863,-0.9958576013515518,-0.9967837243665647,-0.9974002250914002,-0.9978372474330821,-0.9981714581348041,-0.9983777978103376,-0.9984873954514895,-0.9985494913224592,-0.9986252723167165,-0.9987447255099058,-0.9988472409647083,-0.998930158839192,-0.998972295648837,-0.9989057750491119,-0.9986603015715639,-0.9981265618215841,-0.9974457580411873,-0.9971344819111896,-0.9975705779357474,-0.9984600354750028,-0.9990769395809426,-0.9990269180942988,-0.998069641070953,-0.9956993529386002,-0.990108051433861,-0.973651996240788,-0.873981383762966,0.3864128497251818,0.9065428904071337,0.9580280043085828,0.9724383413671583,0.9790878642852838,0.9833680303739456,0.9865542088183504,0.9887768385183253,0.9901071930284384,0.9909115117165493,0.9914733669061937,0.991949738029163,0.9924007399384747,0.992880365591864,0.9934236856371301,0.9941191056037503,0.994957678030614,0.9957628265867884,0.9963550596397982,0.9967454098484799,0.9970617047939675,0.9973864001770884,0.99772247934648,0.9979769745476497,0.9981076685628905,0.9981617948001281,0.9981918236673535,0.9982483878112838,0.9984281932371413,0.9987020866206644,0.9988478222786988,0.9987672910077676,0.9984756476733576,0.9978090846796003,0.9962126576672942,0.9927728359234566,0.9858475135644456,0.9710074969680652,0.9284856517931316,0.6898553060705538,-0.5304319886719082,-0.9047740062955237,-0.9595216943979628,-0.9751322832368672,-0.9811096308336584,-0.9840754921437795,-0.9862452601380601,-0.9885261571096802,-0.9909760474416625,-0.9933000782998458,-0.995198804385502,-0.9964324045297024,-0.997139481053481,-0.997531988847864,-0.9978529740269607,-0.9981420792258529,-0.9983727975498452,-0.998557006477751,-0.9987066538259057,-0.9988563215576176,-0.9990251119031248,-0.9992215989593741,-0.999435123154866,-0.999614885592217,-0.9997242471170391,-0.999681517562611,-0.9994421574948898,-0.9990318572929625,-0.9985323669794633,-0.9980020596087864,-0.9975164657712349,-0.9971243592120667,-0.9968821545006472,-0.9967909504605652,-0.9968900358303305,-0.9970998832168348,-0.9963882506783099,-0.9870895310507997,-0.6626555760748661,0.9303763838579936,0.9802555342514598,0.9892753370335964,0.9921231239550132,0.9927215471873843,0.9922443767809505,0.991394107786686,0.9906458604643316,0.9902724041340124,0.9904064477506183,0.9909854282168218,0.991959574853769,0.9932784015511553,0.9948178186225901,0.9962196341593739,0.9972058932370296,0.9978184376540833,0.9982356068367985,0.9986176525386578,0.99894293683237,0.9991208007838338,0.999125231720968,0.999007211165336,0.9988639122389493,0.9987846896091183,0.9987559176476113,0.9986645488958914,0.9984238132131749,0.9980714179975286,0.9977508163079762,0.9974625481957943,0.9969240069540973,0.9958029613832294,0.9938711502036334,0.9910366617346751,0.9870413823802576,0.9808692925846073,0.9699398492440018,0.9452972510886991,0.863550439380772,0.41386785399076176,-0.6270705529081446,-0.9002304421843619,-0.9605731631766545,-0.982157976906347,-0.9913842914067877,-0.9952613019621072,-0.9968277407403007,-0.9972772921923146,-0.9971829778783692,-0.9970845658004476,-0.9974260772890199,-0.9982312144042449,-0.9989461436510589,-0.9992075278451531,-0.999190791120094,-0.9991310152117033,-0.9991232825167597,-0.9991418669945996,-0.9991483216750972,-0.9991576600934099,-0.9991553935138783,-0.9990751501922877,-0.9988247575625717,-0.9984043134845259,-0.9979003230659029,-0.9974175878112687,-0.9969470337803557,-0.9963897691973863,-0.9956981699727695,-0.9949769370172977,-0.9942449167160081,-0.9934248352394913
