-0.9081580258268587,-0.9533473307841126,-0.9701287622657147,-0.9758303403692989,-0.9777309536234097,-0.9785551066975712,-0.9754424400221572,-0.9634021187014526,-0.9412353209818809,-0.9105264681100087,-0.8699173607048843,-0.8107055716094789,-0.7083598735726719,-0.519442743024838,-0.18887864063123416,0.23212537205187198,0.5511454605074397,0.7277064980346569,0.815205265763868,0.8551687119834229,0.8681170743019027,0.8692991148025818,0.8746919097474897,0.8925295861486916,0.9170848090578871,0.9370915551206428,0.9482960900275826,0.9513860264024756,0.9460557710504658,0.9339102094740558,0.9203902861464354,0.9098367532425999,0.9009057896195587,0.8903215005580396,0.8783845154146398,0.8706188084985858,0.8761634680852515,0.8973948510342978,0.925557415799967,0.9427353233103539,0.931436615431697,0.8939681978695947,0.8524893082632263,0.8294466682038376,0.8325829226155739,0.8572867313475637,0.8933527906502687,0.9264851911291107,0.9420498893199178,0.9299402741608763,0.8636607667023682,0.5888122375885618,-0.15150657861964295,-0.6389574109350811,-0.7972730240029274,-0.8673996942137395,-0.9078602905093189,-0.9331221907726591,-0.9470404721026339,-0.9529305908365673,-0.9533916796606605,-0.9532024381753837,-0.95485516013136,-0.9589526267364866,-0.9646979924232101,-0.9706870314029798,-0.9753818198795672,-0.978366712028331,-0.9802313058331034,-0.9814313415000842,-0.9818666893307891,-0.982469376571426,-0.9835590566538821,-0.9851440803879434,-0.9867739221668775,-0.987665147855794,-0.9876812474507239,-0.9871537425542812,-0.986839864172885,-0.9872079607343504,-0.9880107617121267,-0.9891901489840937,-0.9901059209871,-0.9902592921976047,-0.989839302274244,-0.9891060386021596,-0.987525474021921,-0.9842147831710998,-0.9785778366721427,-0.9697029541627028,-0.9547452146898068,-0.9233768345160864,-0.7950260532476547,-0.22675917574000673,0.4888228070320675,0.7905474109543605,0.9078611785923472,0.9570594172904242,0.9778138124853686,0.9857479134951255,0.9875805693898111,0.9853822106198863,0.978622950279084,0.9677314850411307,0.9574184746279027,0.9522048980389576,0.9513586700198831,0.9538130430483887,0.9598142912845012,0.9682652888164931,0.9764997492388984,0.982729018733758,0.9868735517452317,0.9890438474854387,0.9896442881186056,0.9895795591654566,0.9900454238321088,0.9915696555940724,0.9932278171904037,0.9939453987207705,0.9930295011830629,0.9906240620848417,0.9873356187297959,0.9847628142408518,0.9839914329976184,0.9842811284295263,0.9846623808267615,0.9843196650703456,0.9821733680476922,0.9762909642879801,0.9568423059008493,0.8869117280077192,0.6927748146842618,0.30378615569830847,-0.23598187428292608,-0.6573566047035413,-0.8516526200000443,-0.9295444421457179,-0.9625067858971744,-0.9784266629295716,-0.987012663877451,-0.9908917157636576,-0.9911336381078456,-0.9887981505201677,-0.9842654567708232,-0.9781909186916543,-0.9729215035668694,-0.9712533649634795,-0.9739215477692935,-0.979802827507163,-0.9865072919774038,-0.9908922302421209,-0.9919954053481265,-0.9910563231114875,-0.9903068204789913,-0.9909491962298996,-0.9921835650447782,-0.9926315113408894,-0.991929006902602,-0.9905723339705477,-0.9890550733317977,-0.9871229276553996,-0.9848070870870865,-0.9829832707781605,-0.9820555043303426,-0.9815089314457517,-0.9799144203727697,-0.9759022517638626,-0.969666927622299,-0.9628004069983432,-0.9574399568437358,-0.9515859697216839,-0.9359913296880177,-0.8851476824089584,-0.7265330874917515,-0.298562398609151,0.32963864183307523,0.6898982130683822,0.8212253720890436,0.8657720688131687,0.8793495705882614,0.8870362689836616,0.8994377738415392,0.9161578279539551,0.9336418637189939,0.948782631222338,0.9592522907975687,0.9654506627695986,0.9693705808217078,0.9725498011825555,0.9753456079459821,0.9768623844302385,0.9757633672003152,0.9708384640273015,0.9634107269992558,0.95709825089947,0.9557867484800241,0.9593693356570169,0.9661085821161921,0.9734976256639671,0.9797099548142941,0.9842407359973967,0.986748789388627,0.987385239968611,0.9865250621550525,0.9844396762212771,0.9815391584950044,0.9770805827032758,0.9684530900201123,0.9472981486252536,0.8907623207776918,0.7245436823114049,0.013463887998421489,-0.869166398347644,-0.947245207226727,-0.9660755872097442,-0.9822704650156372,-0.9899335115677682,-0.9910433138008834,-0.9900958751243916,-0.989418228830354,-0.9896199237526717,-0.9901176083555696,-0.9902690218176612,-0.9908126348585985,-0.9920652417481242,-0.9931735025771105,-0.9937508244228628,-0.994132722597675,-0.994544926060174,-0.9948652655400558,-0.9949431025439722,-0.9946779676746542,-0.9943400896983874,-0.994026467580815,-0.9935760720109771,-0.9925196215906108,-0.9909909447944754,-0.9897877517300591,-0.9891076375778404,-0.9883689083917498,-0.9865954293861477,-0.9839614862938677,-0.98141008775933,-0.9793879828967619,-0.9773416513660693,-0.9731914579698415,-0.964203885845109,-0.9476427264355727,-0.918953789211809,-0.8691289356796851,-0.77977706245193,-0.6199306102390666,-0.34446758378485953,0.032216521947497946,0.37498541747112796,0.5891327845626914,0.6984304301588713,0.7611128857810124,0.8142632920571147,0.8705568956619407,0.9204075269500623,0.9533699041666569,0.9700223445869173,0.9769263016389725,0.978716590161889,0.9758308946021869,0.9660174035493079,0.9540290958446525,0.949745845567881,0.9560300289752619,0.9675656107355057,0.9780216614283858,0.9842206554601374,0.9848842697012833,0.9807258977999433,0.973992676449258,0.9676189039525402,0.9632900592482585,0.9609495311112562,0.9583151547308142,0.9533965788924352,0.9449857091533024,0.9340724099630823,0.9230375105909192,0.9136475890896426,0.9047887537082553,0.8935247401373487,0.8746480020726605,0.842372899384043,0.7983444400568686,0.7545994207913247,0.7187723392602736,0.6833236492922193,0.6313002565809187,0.5394786961719346,0.3831386298287093,0.13326748717398743,-0.20874508426485652,-0.5264529328186206,-0.721829878781625,-0.823723147641425,-0.879660342651305,-0.9143445658216005,-0.9353298993322389,-0.946501550138613,-0.9510601652836285,-0.9527481838700915,-0.9548027646060658,-0.9589098377434468,-0.964988393304114,-0.9709827146098157,-0.9747361540643484,-0.9762838894957698,-0.9768412222862155,-0.9784728992170313,-0.9823731017716548,-0.9873057530580954,-0.9910141324822141,-0.9926660751634205,-0.993368670183038,-0.9942960001130123,-0.995672387795013,-0.9964106780172063,-0.9959095099789602,-0.9939732445474746,-0.9890702654871939,-0.9735108343655321,-0.9306633534783657,-0.8532340170929947,-0.7727198488969887,-0.7008276698080378,-0.5891109237021318,-0.31634989477934783,0.2356730206576365,0.6975365498655239,0.878457119374386,0.9397286113664846,0.9584657021046682,0.9622118813242934,0.958779967177941,0.950673570380087,0.9419898082871737,0.9374710114532814,0.9384737911097236,0.9439041596701998,0.9519769585126591,0.9612259390331346,0.9689576803536256,0.974292770248829,0.9776984728310938,0.9798307142828603,0.9809693075708334,0.9811080860624168,0.9805430316107853,0.9793596832237617,0.9779284120152519,0.9757673892679282,0.9731519081377606,0.9717004751218832,0.9727020574673113,0.9755384238848961,0.979220660778744,0.9820421858934044,0.9808252573710668,0.9669716849544118,0.9187126179780536,0.7740990592161904,0.41785204125060144,-0.10879459951900469,-0.5174218068322374,-0.6999324690800102,-0.6943048000994059,-0.452966463688579,0.023855633241516624,0.35967077809361225,0.5149030973987769,0.5602651526195754,0.511654474868539,0.3594458241623919,0.07147572524737202,-0.3288346052132841,-0.6627790704843852,-0.8321647696390931,-0.8983640520034349,-0.9222866138324678,-0.9324151223973159,-0.9391329674647662,-0.9448803622919885,-0.949654613012489,-0.9536575074072186,-0.957888291472924,-0.9623059221256042,-0.9663463890758321,-0.9687764964057073,-0.9692101420909924,-0.9680687793778799,-0.9668285172347669,-0.9665501269606466,-0.9666679003004771,-0.9652997938340435,-0.9589123712106679,-0.9448263258276244,-0.9282429899489798,-0.9230427283068279,-0.9370044018177686,-0.9610806994031483,-0.9806579980306157,-0.9888565902846687,-0.9847193171856993,-0.9660438594038766,-0.927177316963982,-0.8613987284886586,-0.7583100610320956,-0.6000690912754063,-0.34460678101775255,0.029540641286021397,0.4055263727181757,0.6455869386628817,0.7682070695016092,0.8266793121825619,0.8542935293451348,0.865258050858513,0.867310795559365,0.8639419387781819,0.8609007401292194,0.8661543564599959,0.8823135785535194,0.9045866638747193,0.9270426770382562,0.946958071887469,0.9626233717721351,0.9730558811323642,0.9782515982306695,0.9784477286462852,0.9747523570529937,0.9679558635564489,0.9591059739902057,0.9476517332719018,0.9339438334213349,0.9211864761147855,0.9162959394937847,0.9208043920158198,0.9334480054446621,0.9516747223017946,0.9708193582578963,0.9854515238481829,0.9877262783674674,0.9680025361914797,0.9226474953512814,0.8512845219700538,0.7402872793312593,0.5463628367868332,0.20511801700375404,-0.23124562145026586,-0.5523679761888617,-0.7171322005576989,-0.7976208447095515,-0.8418079321800558,-0.8706790137842827,-0.889676991939954,-0.9008837428984804,-0.9083361741839688,-0.9164625850616986,-0.9276639649197532,-0.9391565303620834,-0.9472388714744286,-0.9537378501615947,-0.9612668218463967,-0.9682825048599454,-0.9736482751928378,-0.977496425906076,-0.9810627239296242,-0.9847293265596858,-0.9870933094764328,-0.9864198119409825,-0.9835545731950652,-0.9813460591597098,-0.9817492948088595,-0.9824283466727539,-0.9798417847976093,-0.9740501668782944,-0.9701322255475411,-0.971799126844245,-0.9778680386348928,-0.9842747646467037,-0.9889849730825859,-0.9921415704951356,-0.9918325406759,-0.9701911591638592,-0.774745807146239,-0.15738724706142748,0.3726844874563288,0.6674372011006651,0.8451725606569321,0.9434892123965049,0.9784496573889744,0.969466665678763,0.9448779234687052,0.9247123946012887,0.9163890773894574,0.9193681981663536,0.930779017320547,0.9472845833519352,0.9639473989336499,0.9750152127731341,0.9798473130745734,0.9817519518892551,0.9828875410759501,0.9847035983272437,0.9872025036610502,0.9899830615065923,0.99264717214502,0.9950322214191095,0.9968440417973998,0.9979457603742713,0.9984927601822308,0.9982546567931438,0.9967039002436868,0.9935915756632704,0.9895567910651272,0.9857698271287938,0.9831370000339726,0.9816123216809619,0.9808833899695113,0.9794239527195611,0.9758588318232068,0.9702160569719284,0.9625671503433959,0.9499246490737157,0.922497936898769,0.8550455374932385,0.6759954751398132,0.2159426510608788,-0.4138957649487867,-0.7538789981886878,-0.8838319335770335,-0.9353544427628064,-0.9581083951589306,-0.969589344141246,-0.9761076653051665,-0.9811420323461972,-0.9853455746971334,-0.9881307394717387,-0.9894742490701375,-0.9900422203033568,-0.9903829524457508,-0.9905062747805583,-0.9909788847043444,-0.9922929061933429,-0.9941222109631019,-0.9955640942658577,-0.995631531318248,-0.9944214853681741,-0.9927556019384982,-0.9908007255989326,-0.9883970558397767,-0.9855242998830112,-0.9827391722043171,-0.9801521769305898,-0.9784404842913523,-0.9783322337687058,-0.9798572334109162,-0.9823989409741033,-0.9837567055508485,-0.9822690576014722,-0.9752259183386297,-0.9560850908176796,-0.9141225451449576,-0.834945560400197,-0.7014718764220712,-0.4841070357654567,-0.16042854961781694,0.20806176823730296,0.5045227949573913,0.6952212789253063,0.8090777758600246,0.8767178035206573,0.9135448222594889,0.9305539933627833,0.9356629185516973,0.9348924831976723,0.9316121048601501,0.9272958457790269,0.9221189850526127,0.9197887459747247,0.9249057067018213,0.9376525227836184,0.9528997895914726,0.9658081792637878,0.9744757775595597,0.9798162384331528,0.9823078749814509,0.9819130231848943,0.9792474618935353,0.9760457428095962,0.9745033151706053,0.9763151676410526,0.9800153862730682,0.98247183449498,0.9827324051828937,0.9824073600174035,0.983117502299889,0.9852190044399616,0.9865630244398992,0.9846966238527683,0.9781974842919485,0.9664636176571613,0.9492429645537293,0.9265145920231196,0.8931583713246245,0.8275184130144787,0.6322517040985636,-0.0002647579318079106,-0.6294167873586177,-0.8112848097684027,-0.8624289520720938,-0.8840361798652728,-0.9004500947103613,-0.9173554435319984,-0.9353414312657676,-0.9512051868136222,-0.9631693152934393,-0.9711527889544668,-0.9761538420820055,-0.9796150673975935,-0.9824705408073545,-0.9846461928467742,-0.9865417514174354,-0.987991856101468,-0.9885934115841347,-0.9884188840632268,-0.9881890903990365,-0.9885484176840322,-0.9900620148117476,-0.9920653538560362,-0.9936515202988807,-0.994373667012905,-0.9943966149822451,-0.9939560777560051,-0.9930350435855156,-0.9889809296967236,-0.9593020304827179,-0.5063525280492541,0.7712943812579536,0.9245397215893246,0.9544744638427082,0.9610226800087582,0.9558113233611272,0.9362531104447626,0.8907361545491524,0.7995609450587573,0.6817022608136704,0.6469898809802758,0.742463399665421,0.8546067810167004,0.9183803402606281,0.9505562879380364,0.9683385643490462,0.978725300807173,0.9842615290778638,0.9869636016266687,0.9873137421981022,0.9854456668841256,0.9808175755884073,0.9708996468538056,0.9499057012702191,0.916162607794965,0.8795792650333805,0.852744205414602,0.8411996514140099,0.8407598391695914,0.8446141630425716,0.8504330880448613,0.8596954813690341,0.8711632418390857,0.8806019322392334,0.8854017217460571,0.8848698875785137,0.8810429400964938,0.8797277508662565,0.886977503712366,0.9019275934138626,0.9195680623623071,0.9334417446070735,0.9416028021463727,0.9441741739541388,0.9373319795143994,0.8951085034445018,0.6295502533498285,-0.37209067629118914,-0.8039674622196096,-0.9042829200487709,-0.9419938680121436,-0.95217361503197,-0.9305300752056087,-0.8697029922961711,-0.7819877734957906,-0.7052423406078673,-0.6847311250733789,-0.7386503730915429,-0.8351207628457222,-0.9183563080536179,-0.9627448357989143,-0.9787167197054614,-0.9817444742745555,-0.9792513926246939,-0.9747057718252159,-0.9707709296447351,-0.9698221907502841,-0.9719699900091965,-0.9758941290067034,-0.9804120867830951,-0.9847674472946947,-0.9882037948989404,-0.9902632117463368,-0.990748748406496,-0.9898394431300885,-0.9880849755817471,-0.9863058239312369,-0.9849024788449077,-0.9843324880133258,-0.9849663280946842,-0.9870574738352116,-0.9900050121037537,-0.9926741817113992,-0.9927618002723575,-0.9827649824107102,-0.9497012684157558,-0.8889393739861209,-0.8255605793529366,-0.7877765060468135,-0.7424120821771794,-0.5821491075407775,-0.23213505941884272,0.1441888032254516,0.4616780326586083,0.6625634682400402,0.7554903173617079,0.7946900054700127,0.8185768061093035,0.8445261413783601,0.8796299961120243,0.9204280801153226,0.9544597470292157,0.9751750461917356,0.9850957046410028,0.9899467003920313,0.9931469694542178,0.9953502578081241,0.996314806190011,0.9958048528423802,0.9943207358786992,0.9927941572754375,0.9914714783457796,0.990216197773791,0.9887728381942444,0.9872160061337848,0.985905015935208,0.9846759403996219,0.9837233063642175,0.9833638370787002,0.9836661749540873,0.9845381640607905,0.9856283480372726,0.9871493436547109,0.9895685305514984,0.9917696043028538,0.9838421713897112,0.9078192738186148,0.39390621787185076,-0.5276737709750283,-0.8030430289878222,-0.8792834794354828,-0.909415714875891,-0.9225790861234711,-0.9243788980398221,-0.9118069217942854,-0.865975796559505,-0.7387570001731356,-0.455911760601017,-0.07232308053549973,0.17748477146237873,0.18055035459563532,-0.11573830358952915,-0.5849912302317026,-0.8466476402730726,-0.9375351471786729,-0.9712579531397925,-0.9852174830649115,-0.9911081214163758,-0.9935463786340332,-0.9946201510021478,-0.9953305055006084,-0.9959688871299027,-0.9963753855500164,-0.9961241891897159,-0.9940305581785773,-0.9878686151671944,-0.9751495745683547,-0.9561711981053496,-0.9384579731890657,-0.9347490665809234,-0.9474108894014668,-0.9626411490248575,-0.9694683360819051,-0.9475002673529598,-0.7841468446750355,0.011709049177732382,0.632813363455042,0.7474607865932859,0.7112345828393142,0.5730072874433099,0.37173223402502825,0.227646974694042,0.2565341174925318,0.44501748433745814,0.6552824700622348,0.7902358628650833,0.861141005998873,0.9030452650065142,0.9347710305997768,0.9600144964381496,0.9772485216091378,0.986718168164723,0.9911799687298312,0.9930931917853465,0.9935336180963696,0.9932228104332003,0.9927552793273027,0.9924617261454569,0.9922650307495142,0.9917538743310657,0.9906899597466154,0.9888087830456874,0.9854953827346414,0.9815818819724186,0.9783802674920324,0.9773457026740519,0.9783532526363691,0.9809727661332035,0.9821135213364741,0.9756822158790401,0.9607895594470871,0.9390923179239591,0.8777036914336492,0.5658189955541515,-0.2336777819276666,-0.6897932804610417,-0.8311943453070891,-0.8679916514619735,-0.8787749120336792,-0.8926105437649725,-0.9123810597823768,-0.9339945581092962,-0.9514719764176586,-0.9625358472232272,-0.9680127619321625,-0.9695125203809009,-0.9681748498292355,-0.9643714156356384,-0.9590963161366239,-0.9523292368461976,-0.9433790778231983,-0.9311705979889664,-0.915030799003519,-0.8954404208140643,-0.8794475573130635,-0.8753400965118765,-0.887189772376402,-0.9107134468646003,-0.9356664832041044,-0.9552117807150093,-0.9683397219494729,-0.9760970953376826,-0.9797160089517347,-0.9809418940886752,-0.9815968919176029,-0.9820752124538855,-0.9822093645622636,-0.9814647457541472,-0.9792824489955797,-0.9751184220873053,-0.9699497440946816,-0.9651455978309701,-0.9577218661192348,-0.9415026755904181,-0.9137498233729034,-0.8674430564924397,-0.7684198609383435,-0.511211759315902,-0.00023323105205419383,0.4883751232605333,0.7516288842224131,0.8699507045041953,0.9223363235021672,0.9425872881119266,0.948492493260696,0.9520133164512918,0.9568423872272716,0.9605168914094536,0.9599312474940029,0.9546362474224511,0.9480766686617718,0.9454825404990898,0.9489346814430839,0.9557468991615489,0.9633382815583565,0.9710485531091905,0.9783495990720518,0.9840303480628503,0.9873809502532671,0.9884334549393754,0.9877454343721189,0.985642085887662,0.9817018343365056,0.9739127419193873,0.9616979599223016,0.9484102338965946,0.9400879292786952,0.941621226858684,0.9552759475250071,0.9749050688386415,0.9786125199381667,0.948921564432337,0.901179159900376,0.8550378649999367,0.811814296690857,0.7575294575590564,0.6463762146988292,0.2975532470979564,-0.5141705958100972,-0.8700336523681723,-0.9409931796950343,-0.9630110026138318,-0.9712099997591362,-0.9734749365134144,-0.9733422237719317,-0.9746254417447856,-0.9778714887394904,-0.9822338559570685,-0.9861912836991199,-0.9884771921252832,-0.9892869877737436,-0.9895771737308098,-0.9894541471709432,-0.9891838601909377,-0.9891644617464179,-0.9893841720876878,-0.9892084552314261,-0.9882634276163487,-0.9863163066872092,-0.9819307401478511,-0.9738242937177038,-0.9622626406341371,-0.9492712622270386,-0.9370528633144705,-0.9263435489086751,-0.9148792765689336,-0.9012795857384682,-0.8844067358168376,-0.8693671266490176,-0.8687947012962792,-0.8814322345676963,-0.9012268501439374,-0.9189368837439341,-0.9328524976407312,-0.9404429112728209,-0.937384409862282,-0.9153348648456552,-0.8513097932218524,-0.6590400184782724,-0.08475886137651376,0.5850647561721126,0.8460810375859165,0.9387296196495483,0.9763733236540031,0.9880960886305744,0.9861908062258068,0.9803822130662204,0.9735770789602988,0.9656566926528997,0.9563892140155534,0.946120948094945,0.9348260609729394,0.9232100273623958,0.9155297178896433,0.9149555241777133,0.9179420237334108,0.9207644797980088,0.9215096197365134,0.9207914219235387,0.9193323536834898,0.9191386205213506,0.9234091813888241,0.9336179753345127,0.9484991481496844,0.9639134664533442,0.9761157488790672,0.9846429279664974,0.9902990305048088,0.993972935332815,0.9959906585590645,0.9963383159980973,0.9949052014675602,0.9919080701801377,0.9879532242851025,0.9826930887951605,0.969737051783716,0.9332523895021179,0.865672166873283,0.7619714250662005,0.5913237658875552,0.33017374807347305,-0.01887748340788135,-0.38439068365933204,-0.6640399684655993,-0.8322000144122699,-0.9237519086692239,-0.9692457336740448,-0.9883701304885026,-0.9932338477374826,-0.993328427626209,-0.9938738290535926,-0.9952267686054396,-0.9954667563599008,-0.9934124921681194,-0.989988782850963,-0.9872880113639957,-0.9865619984685805,-0.9875133156184112,-0.9889854092917935,-0.9903737535837042,-0.990963416983557,-0.9889784093017308,-0.9828170612089995,-0.9727181159657812,-0.9613925359182517,-0.9528360507842305,-0.9500902575925932,-0.9530473596150899,-0.9590566926439096,-0.9636104663662982,-0.9621005491561435,-0.9479318913179707,-0.9029788041115531,-0.7542716011475733,-0.2080389829653462,0.5959737844238593,0.8732344876602053,0.9462595179512828,0.9699059365922389,0.975071695218649,0.9646427160231845,0.9397309384218083,0.9195575394237366,0.9182898804556371,0.92871901386678,0.9397435840804067,0.9463756038959029,0.9471918727572424,0.9425440200604719,0.9342898354951075,0.9286162983026489,0.9329467705257051,0.94603210922036,0.957922217071323,0.9651938450549338,0.9692154215641537,0.9712742629149385,0.9727885471077605,0.9749447897029244,0.978938390500877,0.9846794771908319,0.9899275170682017,0.9922599097078044,0.9904473332673418,0.9857081535965696,0.9795226623871165,0.9729692121184794,0.9668003026866467,0.9614637330319012,0.9584323032080067,0.9580215200738753,0.9603180829665344,0.9635909732708847,0.9650378316834664,0.9608589340854045,0.9440103497162813,0.8995046358392417,0.8064354579772323,0.6326132473924202,0.2909431636298895,-0.32772866300469533,-0.7925756763549651,-0.9239636456737224,-0.9574148593954521,-0.9675095072543188,-0.969211776386707,-0.969913179054768,-0.9728344640059109,-0.9785995153469217,-0.9840086385535637,-0.9865674926383917,-0.9863199610092459,-0.9852383551282474,-0.9844763664485309,-0.9847396751683167,-0.9863532696810178,-0.9885149330241527,-0.9905863137734797,-0.9922566862978764,-0.993209101142153,-0.9934394176132817,-0.993382864491139,-0.9932770601364891,-0.9931609872033413,-0.9930108978812467,-0.9931259515998581,-0.993518640812094,-0.9937150762061957,-0.9932699751450419,-0.9926381099687223,-0.9927055162575169,-0.9930242933270936,-0.9927115137504384,-0.9903524969740226,-0.9836358173568571,-0.9681292613165661,-0.9304048719983015,-0.7874541509894611,0.4057678147370186,0.9571846908250436,0.9883696621595646,0.9914962678981327,0.9897329284450539,0.9856715912307753,0.9808710217404542,0.9759970723116266,0.9708458634744589,0.96357452588185,0.9539974923076985,0.9433167467101434,0.9256374375859563,0.8923820584854927,0.85841154537135,0.8515088960856624,0.8734637847528584,0.9070005643714454,0.9371243263297632,0.9588337850666493,0.9722983119121864,0.980442395294215,0.9853956851624117,0.9885690653345305,0.9904136093561395,0.990665243598392,0.9890564263492126,0.985747086648011,0.9794890791796822,0.9675908564937541,0.9437796420547256,0.9023719858176434,0.8478709865203701,0.8100771379039283,0.8210607683879726,0.8653769687561431,0.9079580137856248,0.9346929421787709,0.9492354183956726,0.9572671720477336,0.9600078755549035,0.9514255137046217,0.9121157183302454,0.793097562544262,0.512898565246842,0.09680896205407677,-0.26561926497139254,-0.5095233578402519,-0.6757855017810661,-0.7973173883552155,-0.8843834096401897,-0.9400997786982188,-0.9703483288228056,-0.9840179395980424,-0.9888053567334352,-0.9894553237525564,-0.9877671408159018,-0.9844580969025113,-0.9795434433110333,-0.9721131650263696,-0.9606034906313676,-0.9439562880659242,-0.9249135243572373,-0.9117379082479359,-0.908329662677027,-0.9125823975419355,-0.9237179089726915,-0.9393680824423238,-0.9531443825890659,-0.9604293226009107,-0.9620544085783508,-0.9619459709951694,-0.9611312191411592,-0.9602736265010444,-0.9568829028858159,-0.9458133721451351,-0.9229980275992589,-0.8835974976469563,-0.825068804797468,-0.7443552181966182,-0.637524198666247,-0.49764144272103455,-0.3208542592739664,-0.11328569801815136,0.10174360989012962,0.3039305576422411,0.46941843371753805,0.5891453577185968,0.671838632382094,0.7295663745686332,0.7715565493336086,0.8034970806800766,0.8257718750542565,0.8429953378830438,0.8632767722459123,0.8880800526104075,0.912028644109513,0.9310493809506192,0.9451306050125521,0.9565665323769603,0.9661875286234342,0.9734801699405249,0.9776406173572891,0.9795889672105764,0.9794872058744173,0.9780524067390645,0.9776870858638314,0.9796024449128179,0.9826188313735441,0.9843538208842405,0.9848252692189139,0.9850142185613626,0.9845907671849101,0.9824873043524884,0.9782622490193545,0.9725608569144303,0.9662874045797447,0.9607350812332995,0.9524628103890282,0.924347997508688,0.8055596074346406,0.3484023064894992,-0.2934745953587249,-0.6337570493211949,-0.8070541161697476,-0.9075720697293805,-0.959743362057819,-0.9804212241833804,-0.985605866036861,-0.9839928086503484,-0.9782620333515248,-0.9670869249497536,-0.9449414088328867,-0.9020939414361083,-0.8234305403614566,-0.7026093553460299,-0.5823525542314032,-0.5061637700568771,-0.46026781797439875,-0.43074483563184934,-0.4201893897294224,-0.4498460446135007,-0.5378194074881573,-0.6630503633549968,-0.7785501876557419,-0.8625267743478032,-0.9192143463791156,-0.956007844984534,-0.9763269218343578,-0.9803809621764724,-0.9730980028736044,-0.9648537362882524,-0.9605251161454217,-0.9587582678406791,-0.9575345412624096,-0.9547601377701582,-0.949397867107397,-0.9408982248930619,-0.9286149580266216,-0.9128418573158193,-0.8897834944738119,-0.8403204865879214,-0.6493576505091824,0.4412765110373202,0.9386306011246192,0.9786570564311957,0.9851918105714287,0.9875061313462042,0.9877790147562363,0.9859128464918336,0.9826267600157312,0.9803288120409993,0.9819244086823139,0.9868252259727811,0.9915371581673755,0.9934715293489214,0.9927893828452772,0.9908772755634332,0.9881357872336692,0.9844380998629746,0.9797294126342556,0.9736939072539805,0.9678150745684709,0.9655175256317953,0.9695741431444563,0.978247351341738,0.9861568183771068,0.9905966555615142,0.9917815327671955,0.9910339020335459,0.9898604269154736,0.9884978887219252,0.9865758721382453,0.9822347873787669,0.9704829759891964,0.9313438458756159,0.7130546062908956,-0.12260876123252432,-0.5920220979115534,-0.7307296209866389,-0.8091856745510569,-0.880682403926053,-0.9345523346123554,-0.96226373224563,-0.976495756380166,-0.9849436007922668,-0.989827060386436,-0.9924938788758277,-0.9933882593796637,-0.9928578335938215,-0.9912836255485676,-0.9889727184589011,-0.9864822628279099,-0.9847836756160986,-0.9841348915574697,-0.9843257012244966,-0.9854380484897112,-0.9870962312171159,-0.9882641309995857,-0.988037450082754,-0.9858296472818353,-0.9808158715035148,-0.9729657132029951,-0.966190483776055,-0.9646335224189985,-0.9674629709916098,-0.9712081422457863,-0.97428247591033,-0.9759894470735966,-0.9760919464737521,-0.9750092553671648,-0.9739930073786528,-0.9750361851384873,-0.9785094882118829,-0.9817186867733065,-0.9742119004793811,-0.93549577253043,-0.8480323242255662,-0.7197873934461848,-0.5851255924283469,-0.4545631297326495,-0.31685862879727344,-0.15671205857636686,0.015049788129996081,0.17700752393626665,0.32753081336272516,0.468025156634486,0.590353280294959,0.6859088191918863,0.754087904218027,0.8032154279340405,0.843440439631371,0.8784391546343913,0.9050941941138487,0.9227150524851068,0.9320901772865764,0.9349884746571597,0.9320084913583448,0.9231666700981395,0.9103097516589876,0.8986592532412395,0.8959767133266378,0.9032839207291798,0.9152563952924234,0.9267142372486378,0.935955315957293,0.9424311583230167,0.943367916418691,0.9351693171434606,0.9127331126500186,0.8733648102756854,0.8147549865672113,0.73862715778645,0.6535044467353348,0.5761730842209574,0.5039137746608461,0.4082253554537482,0.2512909589514768,0.03174937499836206,-0.17173167619310975,-0.26431366045043864,-0.20713965744395876,0.03232585383475687,0.3934007799287077,0.6766125570095322,0.8214263765169735,0.8871549787774268,0.9139888373170977,0.9189934519006149,0.9068491265309367,0.8682764387665434,0.7517717435609415,0.2738086113619807,-0.6214612349445049,-0.8855309809218318,-0.9439177283283433,-0.963120840461101,-0.9724072722670536,-0.978624658618415,-0.9836035683391775,-0.9870409938139186,-0.9886106638684842,-0.9884453735671088,-0.9874111004157194,-0.9860585508772594,-0.9849178216967333,-0.984496923691757,-0.9842415791233711,-0.9832457067703608,-0.9814397072475449,-0.9789326794449783,-0.9777512940261462,-0.9789543476909314,-0.9810486541370705,-0.9828349581456809,-0.9834315511142641,-0.9820368692798177,-0.9768493627947353,-0.9652501814703549,-0.9432190804905025,-0.9019031848312794,-0.8207028041264983,-0.6488131212592522,-0.28728720044350714,0.24237652077499486,0.6338475101514774,0.8192146040190306,0.8916831426512194,0.9162464877280841,0.9191633846629232,0.9097129600015695,0.8983338132140606,0.8946584365690956,0.9037842643924764,0.9220157264797401,0.9424692281355767,0.9601214034923256,0.9732913311422081,0.9819498300789036,0.9865611591286865,0.9872539206335439,0.9845190709988574,0.9810923815295235,0.9803616841598425,0.9833212943678384,0.9874331564659613,0.9905508885118677,0.9917522904877728,0.9911135233395538,0.9893926245529222,0.9873496005564205,0.9847897351734108,0.9821153823352138,0.9805192438154428,0.9732587047278192,0.9304427762922205,0.7844563069888099,0.47750014941285707,0.08288129520507849,-0.3024242228720671,-0.6142758106538246,-0.7994999229317106,-0.8793452620079553,-0.9075975450570495,-0.9109722778981447,-0.8989481981382973,-0.875776851038262,-0.8470953559649483,-0.8222011703621286,-0.8136977889312279,-0.8258834957111775,-0.8503384713026466,-0.8692927257943872,-0.8670311333796327,-0.8258777127848413,-0.724101862751719,-0.5646298364289719,-0.4233418916463081,-0.3846104807358126,-0.44416947154041414,-0.5399980000810034,-0.6104535841357484,-0.6312948083622882,-0.6374479875754872,-0.6738141861406809,-0.7430980598686594,-0.816271553472445,-0.8802433580620378,-0.9311457144804134,-0.966595761048375,-0.9873080874437381,-0.9961563202060476,-0.9969578855661464,-0.9932206796453723,-0.987254075498675,-0.9801922915638265,-0.9723411965801942,-0.9634435221718594,-0.9510673049539159,-0.9281267796206203,-0.8802524136997572,-0.7610138482158025,-0.41536511961652195,0.26415144838431953,0.6989964479456059,0.8558923881352174,0.9172221431660695,0.9441773996045918,0.9580522055226653,0.9670471911237115,0.9723014327219178,0.9753376027060477,0.9779511401436043,0.9802631737536933,0.9819567688026861,0.9832594536154841,0.984336550008979,0.9845392266752487,0.9837387822544669,0.9822937657546825,0.9806257786285782,0.9793561735690909,0.9791429613493806,0.9804138505541438,0.9824955786436927,0.9841684710067292,0.9840639609642121,0.9821132960066075,0.9787291018642829,0.9745609120393087,0.9715346964882766,0.9703622164072709,0.9701401339853735,0.9700707625106265,0.9692362374625088,0.9658382836838649,0.958120727983092,0.9422916678131176,0.9133741768533019,0.855969939264446,0.6396100872160747,-0.3547507514849015,-0.8330726408310932,-0.9185362635151746,-0.9491344922402942,-0.9658779216459326,-0.9762971359409729,-0.9825729382411875,-0.9859091183749579,-0.9873840693744039,-0.9879255501998129,-0.9878941799545657,-0.9869653091476475,-0.9848980489884948,-0.9813877142968463,-0.9760477563048595,-0.968123962524699,-0.9570512072261897,-0.9427381970335923,-0.926710479365121,-0.9153650599585016,-0.9190582985267716,-0.9368000056192669,-0.9578726320944253,-0.9728007826743479,-0.9798024503811793,-0.9792229953233064,-0.9717189283240731,-0.9571151249811345,-0.9308539893660202,-0.8760250383617287,-0.7335244635306115,-0.2971543778067059,0.45137767527172384,0.8067730980274945,0.9125724642431243,0.9502720958204095,0.9673469647170215,0.9764109352861847,0.9822024910592794,0.983075711260083,0.965295149372984,0.90722522969827,0.8177111854723487,0.7368140562577361,0.6855960736698187,0.6660052483698629,0.6705467694551498,0.6852058804135526,0.6947314474127986,0.6885366982247754,0.6635372518914799,0.6237872734655014,0.5862305693046976,0.5776804308683429,0.6125763811938891,0.6874068838619377,0.7794885911528127,0.8607073236782525,0.917440547119133,0.9508135010482288,0.9680006440501,0.975422677186834,0.9773074444110688,0.975473634105005,0.9709599831273585,0.9641654305478474,0.956733545941656,0.9526592256661579,0.9543793796562704,0.9604311853500686,0.9683180426492867,0.9752385614766012,0.98164455194192,0.9883436717445295,0.9940704395482949,0.9965281060891452,0.9900205642322717,0.9625635883030805,0.8946605645427733,0.7686669673409242,0.5839336396066088,0.36460326268007315,0.1407109853396796,-0.041189656546633424,-0.18405200184780823,-0.35021717747411074,-0.5600483169152506,-0.7394393810326749,-0.842342586267469,-0.8917325922579469,-0.9148580896699562,-0.9283776775756317,-0.9397552149294867,-0.9501419332455836,-0.9591568572030955,-0.9659637527551439,-0.9709187993889307,-0.9748383198695906,-0.9786047984657955,-0.9823858468000062,-0.9860396657748599,-0.9889516050003422,-0.9910924059996692,-0.9923848138188487,-0.9930573832796732,-0.9930627576853966,-0.9925752036650224,-0.9921084829808927,-0.9918359380886466,-0.9917349889613443,-0.9913060181328542,-0.989912385918552,-0.9871195114467466,-0.9836078548083886,-0.9802785592749025,-0.9774056074291159,-0.9731253057789412,-0.9642605222262105,-0.9365089189774635,-0.8201982193220858,-0.3377628035504635,0.442375955227273,0.7584946029694893,0.8572591750579593,0.8999373962869014,0.925973429566702,0.9432606585094377,0.9540399975978193,0.9608422475665315,0.967148624265192,0.9742809268781888,0.9808577414131521,0.9860266018587505,0.9901570528763545,0.9933146792406508,0.9950121077883947,0.9952508594373644,0.9949754384123968,0.9949378164366217,0.9952422774102504,0.9957115718214383,0.9962595425932363,0.9966035539829352,0.9964854447879092,0.9958401763836683,0.9946567484240921,0.9930080762925856,0.9910868699523755,0.9890118201503069,0.9862317517337448,0.9824399060490457,0.9782164088614378,0.9750942388726113,0.9730845159578853,0.9676865761048425,0.9413613627305882,0.8604191011910477,0.6935459935620191,0.4278204150210893,0.04047909319675064,-0.40446214474320774,-0.7091603944637528,-0.8459941861525803,-0.9075565995907784,-0.9407527734987955,-0.9619980389736117,-0.9738914092265528,-0.9789067378871026,-0.9811678331907353,-0.98281594480463,-0.9845429890016203,-0.9863424224709697,-0.9875918217118284,-0.9877636037664859,-0.9874855414017711,-0.9878551683986515,-0.9892127327991601,-0.9912897371999388,-0.9930101032574205,-0.9934600169892485,-0.9925060504893707,-0.9910691550497932,-0.9899457472772135,-0.9890759671461922,-0.9883081702597671,-0.9870921682485142,-0.9845916379554897,-0.9807239821006601,-0.9765900014022437,-0.9744255786356485,-0.9754830727301588,-0.9783767588220943,-0.9811669175405993,-0.9821541691922412,-0.9820451102326665,-0.9813778857556762,-0.9795130664432384,-0.9728979536998472,-0.9560103252770867,-0.9160986800978299,-0.803005207436922,-0.4056655917731471,0.4188603763580445,0.809790781657569,0.9165548282017751,0.9533607196514499,0.9713725220016741,0.9825041127200518,0.9877738483838804,0.985005080676193,0.9723447099713044,0.9501266016773577,0.9240088672866534,0.9067797649896473,0.9092357903875997,0.9282140335406729,0.9494064017760466,0.9629963747144589,0.9704489247087089,0.9764864968232106,0.9832515405752879,0.9889874136129604,0.9922999955979629,0.9937449816279863,0.9942047050532821,0.9936613234319145,0.9902062137635372,0.9819835009936834,0.9701784175633453,0.9604623848143762,0.9593128221672165,0.9651073242731303,0.9717837728395738,0.9722107542393734,0.9616716942622963,0.9410063600260403,0.9149165883292815,0.887216989938554,0.8506842340658417,0.773555418531143,0.5500615900784986,-0.017876679580740452,-0.5390204796858992,-0.7367388040602134,-0.8132391125764923,-0.8533902237627546,-0.878735617776447,-0.8955103165841701,-0.9076339227945707,-0.9195234534099327,-0.9336037776158975,-0.9492286568757192,-0.9643143138311239,-0.9756437478474491,-0.9820587788672703,-0.9847103546280587,-0.9850647081287551,-0.9844720834639926,-0.9842859530223792,-0.9845995241411133,-0.9855269679067691,-0.9869300658140561,-0.9892229494011477,-0.9922176357028188,-0.9950124121400953,-0.9966010274566102,-0.9960607645166829,-0.9928954659684242,-0.9880242490989147,-0.983813933552316,-0.9821905055593337,-0.982263354102536,-0.9810636233571877,-0.9754311869187893,-0.9640169507313895,-0.9439342170523849,-0.9082420088461216,-0.8474232324380148,-0.7402486715432723,-0.5202197481886227,-0.038481770452999026,0.5536272967014051,0.834346368388086,0.9295324441021088,0.9647314774193161,0.9793111934493146,0.9847746239697079,0.9854846361064228,0.9839644112020016,0.9820014001826053,0.9807224935981418,0.9796926112658707,0.9766390481719055,0.9691822053891652,0.9599079599269715,0.9542179066937029,0.9534381518437103,0.9539469561901639,0.9525915741888475,0.9471965071845854,0.9379412410583209,0.9269834810864988,0.9188998452897638,0.9203932559925061,0.9347936590813661,0.9549638235157221,0.9673381551627548,0.9644031475387517,0.9513890320272472,0.9387719742353098,0.9325824345588892,0.9305004925324,0.9262623409498018,0.9144728597403459,0.8915235795525217,0.8545354365572895,0.8006478394414521,0.7255950589023641,0.6112360839356688,0.4180760523980166,0.1366065718891398,-0.14299315393436965,-0.3349222460472595,-0.43745164025629085,-0.4726617264283828,-0.45787957202178337,-0.4137702982613575,-0.3802666645340235,-0.40155998822840355,-0.5064761074101124,-0.6645905708290782,-0.8146683903481551,-0.9154077515240232,-0.9659708815634458,-0.9860558739362939,-0.9928369972879565,-0.9950138748410517,-0.9959372544056709,-0.9965380771683608,-0.9968453330584263,-0.9969134215370877,-0.9969462047876894,-0.9970974503682779,-0.996868478459874,-0.9956334861474918,-0.9933193101614259,-0.9903610752734585,-0.9867312899908383,-0.9809743651164365,-0.9720875938296105,-0.9608063124596318,-0.9497758370207472,-0.9411912731987702,-0.9335852982714369,-0.9198314759765205,-0.8929817921043591,-0.8554929820058215,-0.8206714141460135,-0.7957142733249775,-0.7693873369178381,-0.7098874420609331,-0.5755371577856652,-0.3175428062272319,0.04064474716609887,0.3598400917665915,0.5791923244029351,0.7241791288873523,0.8200897915857716,0.8819870260651722,0.92232318128974,0.9507086142988236,0.9721479410757123,0.9868725470008685,0.9935777827405322,0.992061852447493,0.9840619535194896,0.9735289205371078,0.9645238522534609,0.9593939154849667,0.958779218015365,0.962263403222388,0.9680244649399674,0.9724789288433526,0.9721288007019387,0.9639316519786849,0.9428910301976303,0.9027600291785225,0.85746995162929,0.8699956613704615,0.9339647559078352,0.9716170632612274,0.9853184811877401,0.9907385323322914,0.9930709077094693,0.9933873271549039,0.9923599636461934,0.99027790985995,0.985982912249115,0.9750864006531796,0.9444347993187704,0.8268507888995853,0.18369546542645426,-0.7085077878646694,-0.906774507693929,-0.9564285347069053,-0.9750599946352947,-0.9850265944332209,-0.9911782456469378,-0.9936870117929105,-0.9926066547128611,-0.9893860604678846,-0.9868378504100096,-0.9870348792255037,-0.9892559029200109,-0.9914333884134114,-0.9926397079458332,-0.9930651045684442,-0.9933233013011625,-0.9937436643906356,-0.9939472894552129,-0.9938538168425683,-0.9937611947240288,-0.9937301098300962,-0.9934666165338967,-0.9923168129949175,-0.9904003911940615,-0.9876852497924572,-0.984282848414671,-0.9820416037150114,-0.9817925245040254,-0.9811474888737163,-0.979277540854613,-0.9773050549050613,-0.9770550975774246,-0.9786754881667113,-0.9816604077749361,-0.9847628968444584,-0.9865490634505885,-0.9863572835672528,-0.9841470517639778,-0.9791513593094514,-0.9693250407232994,-0.9440492859820374,-0.8444118474560274,-0.16439570675924337,0.7662962660363154,0.9218402414139444,0.9640516993107756,0.9823266709540078,0.9895522950574334,0.991380922775481,0.9920580515389112,0.9932439453254688,0.9932756625668449,0.9888700994612215,0.9821258538329953,0.9787126293373218,0.9783327026946826,0.9779305524725848,0.9763781382884403,0.9753350495203869,0.9771608639033105,0.9820311492644671,0.9874692867929292,0.99153630921984,0.9940419777691705,0.9950270082778682,0.9946491118498628,0.9930736140338302,0.9906730080879584,0.9885077173650406,0.9876221726028532,0.9881050469175499,0.9891340164104542,0.9901279802767396,0.9895020411080178,0.9861368969231582,0.9764841346818355,0.949106055222285,0.8410586168437244,0.2296443724795419,-0.7090520721756174,-0.8851613927292196,-0.9138482890178241,-0.9089088106769001,-0.8872806850506093,-0.8490069986417579,-0.8033876769465387,-0.7718311179323354,-0.7904147113622679,-0.852465664609952,-0.9085066415550868,-0.9420013607850528,-0.9599772794235963,-0.9697358075974045,-0.974951112770216,-0.9784141227000166,-0.9807477207073678,-0.9809296218806793,-0.9780757221713667,-0.9721983784523015,-0.9629379765040534,-0.953957091516631,-0.9557815799877305,-0.9701904994315599,-0.9848595429955577,-0.9922303586244559,-0.9934278249260075,-0.9912390305759655,-0.9881885628218537,-0.9863811180595948,-0.9865928298419879,-0.9885262301950019,-0.9912207738681058,-0.993654438391649,-0.9950064422129447,-0.9940621194101215,-0.9883199417168432,-0.9654971383753981,-0.7424730611397378,0.8530333629782982,0.9807131821095169,0.9943697952503621,0.9964115759429505,0.9945063645151639,0.9903159171634147,0.9846195468074882,0.9780149024469852,0.9711447476065137,0.9647325562390977,0.960088907913623,0.9579284731285078,0.9585158051676035,0.9606835965518377,0.962160150016054,0.9634082994463194,0.9655385526062381,0.9659893210229399,0.9637616932019101,0.9627893059651859,0.9666799480379732,0.9745347554785893,0.9829178439955669,0.9890564453085398,0.9918176324527445,0.9917594930226623,0.9909198970975739,0.9907361877084421,0.9910720142003826,0.9913157478593649,0.9907284835265949,0.9883725085516621,0.9822245433150886,0.9693817870784021,0.9448960458647989,0.9013815522905847,0.8158553905264385,0.609461878847969,0.06307487130022851,-0.5527720962517603,-0.8003885444906546,-0.8913012405590323,-0.9293001407202459,-0.946374412879767,-0.9563992770963166,-0.9663067444261214,-0.9746406148977097,-0.9807850304532119,-0.986564778320562,-0.9906085620766099,-0.9890676012268024,-0.981024935121541,-0.970818415824016,-0.965803890885632,-0.9689330004132344,-0.9767795508759194,-0.9849249813108306,-0.9909133144323349,-0.9943041920988736,-0.995537831979206,-0.9955989105474153,-0.9954225427852171,-0.995234151284391,-0.9949906038168115,-0.9949898182606187,-0.9951740376678792,-0.995390613404333,-0.9948900271379975,-0.9924086661751803,-0.9875739036010548,-0.9805376506292433,-0.9721705102064134,-0.962580190634455,-0.9509878152995476,-0.9357111602229085,-0.9124261901625491,-0.8719170531466315,-0.7947340845511829,-0.6280717887046563,-0.21016321375936076,0.48455254971571915,0.836908559922279,0.9214672977006165,0.9451565672753226,0.9604302573776379,0.9739543142224423,0.9843693924331532,0.9910354925674266,0.994584642207039,0.9956640912365313,0.9949024957104607,0.9931769290698605,0.9915074297233128,0.9899740344926965,0.987692786913502,0.9841062056105132,0.9801760857985261,0.9777399638698504,0.9774637340529788,0.9775224212243473,0.9762146685804622,0.9738379584188577,0.9704798138214517,0.9661100038073978,0.9613204320613817,0.9566354352756713,0.9527604573805604,0.9503943145414978,0.9506980152104396,0.9547452860169272,0.9617766950143011,0.9693008745661863,0.973952679153693,0.973123708458402,0.963721121540525,0.9420349418333218,0.9028560493154505,0.8436860153299723,0.7750445614655193,0.6942206040472237,0.5631331430450882,0.3173084629313352,-0.05370889850836397,-0.42650107672349863,-0.6708162504553781,-0.797561812644322,-0.8577760774021749,-0.8863338898796856,-0.8999138918733297,-0.9068699995509738,-0.9102271482121114,-0.9104388283099263,-0.9151136968503564,-0.9308056618023153,-0.9511568959480404,-0.9656181432303322,-0.9723001105315506,-0.9752546928200618,-0.9774291664046241,-0.9787966324564409,-0.9787539019397717,-0.9779576795625593,-0.9781216408393885,-0.9805084302024879,-0.9849593664695642,-0.9895213695238664,-0.9926686489135219,-0.9937973815837524,-0.9928934016700056,-0.9905912717410786,-0.9881369624528092,-0.9871439795257757,-0.9880901654790077,-0.9898985918402049,-0.9896320569332405,-0.9806887425615206,-0.9546112133072787,-0.9088352709679232,-0.8414636658075387,-0.7404687149512779,-0.5582314794462969,-0.194385429642643,0.33766663170415,0.7065335507403766,0.8565272050046588,0.9106861084826705,0.9308562970258711,0.9399904424800207,0.9456112769155406,0.9514397975535615,0.9561984701674966,0.9576694556021248,0.9568873150776744,0.9547512929927062,0.9512250524467855,0.9475652496145631,0.9466294019486027,0.9501317978054535,0.9572532149975038,0.9652271165818109,0.9720471687165515,0.9773644639415302,0.9813882416255102,0.9841601277995833,0.985409711696175,0.9847596177794,0.9827973229230772,0.9791865077700046,0.9734454227256342,0.9661971165670389,0.9600644170823007,0.9572357413580177,0.9580548554885017,0.962212266279095,0.9682724520105622,0.9748417687192512,0.9752355961096987,0.9585265925403486,0.9107635178863165,0.802427718636965,0.5119159312308784,-0.1398108382000113,-0.6570187738095502,-0.8407079642213844,-0.9047972233782203,-0.9269801259498662,-0.9343598634460345,-0.9421514469658107,-0.9548895866309458,-0.9697393522358169,-0.9823776519322841,-0.9896320198671034,-0.9910995146035327,-0.9894845228199072,-0.9879612899367219,-0.9879010923748377,-0.9896385815414642,-0.9925089459765949,-0.9947437723275256,-0.9950137177435858,-0.99365504289814,-0.9910487925355788,-0.9866193728616128,-0.9802175147236719,-0.9735055218211801,-0.9702404399903289,-0.9717254462251914,-0.9753437521775309,-0.979576699901532,-0.9844595689791751,-0.9892634176053426,-0.9929349335935875,-0.9943472242186422,-0.9930503231437579,-0.9890232356119798,-0.981186734870805,-0.9653764234709369,-0.933495639237026,-0.8678998585923344,-0.7228429059070873,-0.4130762875241855,0.039427653515099,0.39828355493177436,0.6022782248551923,0.7195946633521797,0.7985463503756158,0.8589339304982194,0.9033165076878803,0.9322653281298842,0.9512636620705296,0.9644148923085905,0.974397081792578,0.9823967620803387,0.9871029951146711,0.9873517316060543,0.9847381639846319,0.9824176297879799,0.982105864575848,0.9832290718740817,0.9847171546639987,0.9857540078421891,0.9859471688099318,0.9848823021047399,0.9824132374872928,0.978838723957473,0.9746185885525507,0.9714583093344025,0.9718978873055194,0.9762694694415521,0.9820559294069445,0.9853791314111627,0.9847993271376586,0.9781350125407329,0.9632070584274628,0.9396275890900675,0.9080705240319638,0.8653695500970606,0.7894520854956832,0.5939412017367348,0.002435038749328295,-0.6514752735483095,-0.8590112607155826,-0.9206616071538887,-0.9476873953756613,-0.9641770788692695,-0.9760118379481805,-0.9849771966800248,-0.9908367759635851,-0.993481239956208,-0.993984850462498,-0.993225003734968,-0.9921216387203923,-0.9910696410535147,-0.9899420532867107,-0.9887423508399257,-0.9874095574745428,-0.9858409043606191,-0.9838900870288676,-0.9818030779122645,-0.9800002620132404,-0.9788552050378777,-0.9783446138504878,-0.9780819248134812,-0.976947525155891,-0.9723828600342839,-0.9558191868683565,-0.9114694298603879,-0.8099679139644848,-0.6368461730962333,-0.47122887737894775,-0.4127553801520358,-0.4408034259300632,-0.4841245251674648,-0.47560373666658295,-0.4053477086751059,-0.3270608208203656,-0.3111110399746529,-0.37966607461176244,-0.47374499638329026,-0.5284912831375982,-0.5155445362968435,-0.4175549123837252,-0.2199345915398383,0.06794850227296127,0.3568157446064115,0.5672177829276237,0.7109992563682016,0.823811208550393,0.9044783269821739,0.9305927849114338,0.8987480233116992,0.8315754445818171,0.7697041360735927,0.757611358984825,0.8117053805421174,0.8957935807662245,0.9384151515912743,0.9376815500823512,0.9318086667073264,0.9370541612714064,0.9509239872791099,0.9668172251798586,0.9795275299135537,0.9858892799134618,0.9857312753993926,0.980724034643291,0.9740387790189121,0.9689074061954677,0.9666602796048562,0.966641210793732,0.9681632083870478,0.9702199688868496,0.9723982477494489,0.9744528993498995,0.9753425493255221,0.9731237044982586,0.9609351721885867,0.9196535554182634,0.7872053135843345,0.43426160820072984,-0.07680623141096435,-0.4243340495591132,-0.6021595057864182,-0.6977589675184515,-0.7519506138219519,-0.782150688412131,-0.7954310406101432,-0.795138348992841,-0.784191826798937,-0.7655462606681562,-0.745938346596317,-0.7426005094801424,-0.7740213420189359,-0.8320115889585409,-0.8923587067388843,-0.934780586555001,-0.9594780993117821,-0.9729161964373555,-0.9803730697495483,-0.9846459789849122,-0.9869538765425478,-0.9877782378525432,-0.9873175779368609,-0.9863748135919033,-0.9846753230805043,-0.9805655140213085,-0.96951267575665,-0.9431919410321558,-0.8959285325106847,-0.8490942438655343,-0.8321376439855273,-0.8400713934687674,-0.8452331083210483,-0.8269835169768098,-0.7685115933087544,-0.618886831042313,-0.23696525334486282,0.39297575474622887,0.7880733380462563,0.931273951835949,0.9755086782338374,0.9871351535551149,0.990975641855624,0.9939162905947032,0.9959729899378146,0.9960510868814804,0.9937584816274935,0.9889697656628794,0.9808863582690722,0.9672794918851476,0.9454181567593142,0.9177312305169446,0.8930365925239389,0.8840785479466798,0.8937939244313127,0.9111017834395004,0.9301419851106973,0.9478593400446214,0.9615904073177429,0.9700138220034067,0.9742187351245377,0.9744873596189474,0.9719831541487887,0.9680496441268486,0.9649420814187176,0.9651205202622287,0.9680956417233385,0.9720351818146076,0.974659720940935,0.9744670091427335,0.9712274367823557,0.9660042916113588,0.9617808776870213,0.9587136993818632,0.9507885860781579,0.9247925712904873,0.854657058199444,0.664265130737153,0.15927413913457147,-0.5628300593522101,-0.8741313869441083,-0.9519926159995471,-0.9727038892162491,-0.976386165781585,-0.9728579261541586,-0.9652381805861885,-0.9565636867216368,-0.949144198732874,-0.9443621480814451,-0.9429954313452834,-0.9471694285459422,-0.9568159579788568,-0.9667250656180827,-0.9743356755426036,-0.9800507936680785,-0.9846617194245637,-0.9884666811689421,-0.9915524029281746,-0.9934247969898693,-0.9937018594130362,-0.9921426771151166,-0.9891679968119951,-0.9859128316774112,-0.983536999670241,-0.9823473130815582,-0.982440355302081,-0.9830555080470587,-0.9838532269985153,-0.9850832469397458,-0.987148123492878,-0.989950715240306,-0.9931082246865575,-0.9953180832351435,-0.9951048568428685,-0.9923933274192145,-0.9858147978199725,-0.9719136171408218,-0.9431388272744556,-0.8707141674011015,-0.6142952901109587,0.18922411863363617,0.7707540804830055,0.919711575802129,0.9618914027435889,0.9748150682060107,0.9777710821808706,0.9770559423824383,0.9757841221783087,0.9746211157354223,0.974992361933978,0.9769962139105423,0.9794813654260364,0.9815160530533427,0.9829180652830795,0.9829033573089101,0.9808980166558119,0.9778271982262953,0.9751160939731177,0.9742991419510959,0.9767177234347783,0.9813611810393457,0.9854435700095987,0.9877172553512711,0.9882065466546385,0.9876944611786515,0.9860897502315343,0.9822100031144084,0.9762175848436913,0.9709003064801616,0.9701492422786112,0.9757210215457598,0.9824111013566386,0.9800369099120727,0.9611368995215436,0.9294107743374208,0.9027886192004556,0.9016447980299046,0.9251465229509923,0.9475258247303114,0.9478069283309241,0.9202089188817655,0.8509930431717121,0.6868140074251771,0.3098491244768792,-0.22967998749034418,-0.580165826249531,-0.7358243150290937,-0.8085184151240666,-0.849518637176792,-0.8803450663826304,-0.9084629570366756,-0.934317194251553,-0.9529497762064851,-0.9647731579875265,-0.9723343701925189,-0.9766726362476186,-0.9778843778589612,-0.9773078062844229,-0.9773790239453276,-0.979613072593231,-0.9833796789846418,-0.9868672389218549,-0.9890855206154654,-0.9898266776941463,-0.989350903996061,-0.987859763466029,-0.9865693689595105,-0.9862090259012929,-0.9866817573877853,-0.9871768503688877,-0.9871664513276608,-0.9859850940357735,-0.9830306942818898,-0.9761861596111318,-0.9629760396399405,-0.9401219533688818,-0.905034854823483,-0.8562531198215315,-0.792848380493813,-0.7088041370886667,-0.5710568125882354,-0.30007736974186133,0.13511599309940053,0.49890502866815567,0.6637945913097357,0.7400909584745747,0.8038140616099534,0.8754744421384255,0.9309347818718958,0.9487681563240873,0.930933279815406,0.897901120536447,0.8732961590942687,0.8754842452103075,0.9048370468836233,0.9427816209055797,0.9685284817884643,0.980585060792005,0.9853359615795587,0.9866229781297801,0.9855006084402643,0.9818193152249867,0.9751539129483046,0.9658310233557609,0.9559330684980857,0.948831905732135,0.946981237234163,0.9516264848208312,0.9617819943445564,0.9718917472273061,0.9780748122903699,0.9803121470815739,0.9803643944053125,0.97920039515774,0.972810858214109,0.9499827709271912,0.8970922022029099,0.8050725080503592,0.659045561570074,0.4340454112936658,0.12037335020338186,-0.21686449443882772,-0.48334347979642134,-0.6600464374125596,-0.7770483340499382,-0.8567436013581846,-0.9110019758828657,-0.9473850638533071,-0.969293218267696,-0.9795847720959212,-0.9824669392885357,-0.9819302913777754,-0.9805002351495351,-0.978951463559953,-0.976354093535363,-0.970664349160874,-0.9599345606915616,-0.9426283853019853,-0.9156308062161203,-0.8701866689686015,-0.7888616746439144,-0.6518197688330832,-0.47898218006420124,-0.3292133740728236,-0.2369278560637446,-0.20184612131824353,-0.20813580068687224,-0.26544345136107583,-0.4075725105375057,-0.630535340165334,-0.8338894754410134,-0.9445155916597292,-0.9844200190415436,-0.9881850148718858,-0.9719576536769906,-0.9436204473350015,-0.9103315808014009,-0.8750160139481238,-0.8290693465207524,-0.7360046842474919,-0.4853831524306022,0.1043669299187703,0.6410062329076388,0.8366392811470174,0.8992925937102126,0.9205764073111967,0.9245466744379327,0.9221171146141496,0.9230100151138415,0.9352279059462152,0.9562958474449362,0.9760517443558374,0.9870298220249664,0.9901761439121325,0.9897997796457069,0.988872178518507,0.9884837592821771,0.9886251110089574,0.9891868612113233,0.9901410401092969,0.9913922209173839,0.9923864506776625,0.9932087431899125,0.9937816676240926,0.9938477970010072,0.9934880503418886,0.9916570346110346,0.9834923031075375,0.9552663087241019,0.8803559509688456,0.7430472029852425,0.5881523645615996,0.4892673687304851,0.4796520095696925,0.5443233882196082,0.6224679613958523,0.5998974855670898,0.372756190738401,-0.05547845180591192,-0.48710087966304877,-0.7320042145344663,-0.8446328046635793,-0.9019929039092475,-0.9360993065568033,-0.9573199319926834,-0.9701590506141291,-0.9763006343477837,-0.9773837228989223,-0.9739794672143314,-0.9703030342021151,-0.9717911214275903,-0.9784040423571984,-0.9858270533330049,-0.9901376119964026,-0.9911507703075334,-0.9909737279504934,-0.9912887635646246,-0.9918121538193817,-0.9917136520369448,-0.9905674563082891,-0.989283975640665,-0.9890113699079564,-0.9907795366429413,-0.9938218857522465,-0.9954368628257825,-0.9945281808140818,-0.9926307768680829,-0.9911507496664578,-0.9903063567218517,-0.9899580374868429,-0.9895052766682936,-0.9883799986919084,-0.9867158277504111,-0.9855136610400235,-0.983081801854866,-0.9761595395632457,-0.9598680613862742,-0.9199783419108851,-0.77140056987475,0.047317489033211146,0.7586796856702811,0.8690522445994164,0.8783921246409584,0.8632754070921048,0.8405494165453739,0.8252895291337634,0.8327751116821978,0.8690727930367077,0.9180169593697063,0.9566446254662109,0.9767403072371462,0.9850145896356872,0.9887550849617286,0.990940237897149,0.9924876277982609,0.9938039764313175,0.9946978471581783,0.9950533950603729,0.9947978089526989,0.9936981266415403,0.9913005357359518,0.9872188745943918,0.9808791727362097,0.9728780136859687,0.9655808901442433,0.962746323078499,0.9662341062952596,0.9725771354899507,0.9777676782094752,0.9800891889193923,0.9785290049815376,0.9726765518243716,0.961341112194613,0.9436089417813454,0.9214243849012295,0.8992418244340369,0.880434856446642,0.8607013202127508,0.8175957392162793,0.6660961635798014,0.13102343852024967,-0.5891335095791648,-0.8497121200338373,-0.92772932208594,-0.960111586303269,-0.9756420119509677,-0.9830350208822828,-0.9856962347079957,-0.9848206503327499,-0.9809931641072305,-0.9769164414712279,-0.9758222846075029,-0.9776924913715827,-0.9802492984122599,-0.9820809091211328,-0.9834408104783021,-0.9847849435229189,-0.98647509068999,-0.9883669237472772,-0.9899332328475573,-0.9907244913558566,-0.9913165668672538,-0.9919912643454782,-0.992318149355552,-0.9910714732695349,-0.9872970878029724,-0.9816348789866199,-0.9790879827527057,-0.9827992143267771,-0.9844466939760546,-0.9773697744481012,-0.9714030450182769,-0.9740835979394137,-0.9811789283904812,-0.9869898028455154,-0.9881184240906524,-0.9817317486161984,-0.9616883567238661,-0.9072778765852996,-0.7098087687159633,-0.08363391359893635,0.4730192168147518,0.6563468991024731,0.6995458357948658,0.6715525493255444,0.6177802307110902,0.6060826393953127,0.6776190318369704,0.80180809735681,0.9053099989263693,0.9555032873483642,0.9705345692561869,0.969411101927966,0.9546710774409031,0.9265878050992198,0.8988148269816247,0.8891327124298853,0.9017974915796748,0.9272866607391326,0.9521283356301763,0.9699182457244373,0.9807711019288708,0.9872505608406247,0.9913650726807016,0.9936641055318995,0.9943308600154872,0.9937963184266312,0.9925974842808261,0.9911782983411488,0.990365328521019,0.990606313783151,0.9915847293108815,0.9924933208288064,0.9923141379964487,0.9895726367996915,0.9815028004604598,0.9659086932741658,0.9451752981684237,0.9261093210048209,0.8927854547388018,0.7280187915923004,0.10507317136011486,-0.49611887488003564,-0.7294268773200394,-0.8292267150247697,-0.8809357228795607,-0.9134754175158258,-0.939760134402087,-0.9609085658631156,-0.9750835644248907,-0.9821016351984354,-0.9847739932156311,-0.9860954038223428,-0.9877040311064422,-0.9891502487251035,-0.9896778092738295,-0.9890584422572904,-0.9876839235579907,-0.986002697038887,-0.9837122999068051,-0.9804381436340988,-0.9749580714137451,-0.9639314509675588,-0.9463689693168014,-0.9301125808052186,-0.9248765088776256,-0.9329667687216125,-0.9509839495981474,-0.9691096735874001,-0.9809938932015907,-0.9837651557344778,-0.97769993316609,-0.9670203872578805,-0.9577056507830677,-0.953268399882034,-0.950342178862622,-0.9429049941905778,-0.9239362770554426,-0.8857431693817875,-0.7984538473412036,-0.5822452889490775,-0.12298140151559603,0.3633263845204761,0.6287196447746047,0.7641129553319167,0.851001008026563,0.9103753392168097,0.9454977084871121,0.9602426171921689,0.9608279706248749,0.9541367392223439,0.9484863233670464,0.9504911951877764,0.9604143577285242,0.9731670967587381,0.983149919175916,0.989307542336289,0.9925599671435474,0.9937797331210674,0.9939704901396021,0.9937623216995733,0.9918774455188666,0.9868617220205234,0.980363766673362,0.9772804106345181,0.9795907555776955,0.9843657919032596,0.9865039618016556,0.9854584579428791,0.9831856945052801,0.9816703415441883,0.9801862982483838,0.9779153522417946,0.976254364259893,0.9769827313767163,0.9789290072551261,0.9776493677137754,0.9653840396970916,0.9190071861474856,0.7647877254368166,0.2818328216553697,-0.44644054028271435,-0.7881012925032317,-0.8958926461194082,-0.9348999978091712,-0.9529924623189837,-0.9594283372781665,-0.9571453445853689,-0.9517657501168566,-0.9521471726694319,-0.9594309875445773,-0.9687197939932116,-0.9765349387427861,-0.9823799603789455,-0.9863798345418024,-0.9891387865376962,-0.9912228428667064,-0.9925193534981943,-0.9932730738248147,-0.9937893774806066,-0.9936916745290312,-0.9923107168351339,-0.9896978908886213,-0.9870636708460616,-0.9866001037699093,-0.988858322010774,-0.9920793173419776,-0.9946622172094615,-0.9958715522983377,-0.9959641331273504,-0.9952605392241823,-0.9937424373340144,-0.9914391309314059,-0.9880902846694963,-0.9820578826312094,-0.971104164142199,-0.9525326680504356,-0.9229302039306305,-0.8726001429215543,-0.766201026600778,-0.50752374029796,-0.048757720097732535,0.32380000631347583,0.5180354755684324,0.6274647863843926,0.7080678904520438,0.7751659673813448,0.8333243971582485,0.8853494018721854,0.9276435949967506,0.957945507236418,0.9760993592491566,0.9853344404308166,0.9893242781265144,0.9905325457825412,0.9901609956762845,0.9888423705545859,0.9867745407147482,0.9845723239893112,0.982625549527273,0.9814414828010289,0.9813837610845194,0.98223851061567,0.9832818727086956,0.983435947035595,0.9823418085190001,0.9800203205821718,0.9763429220289297,0.9708291582864753,0.9632869485890113,0.9539433192717849,0.9463845802824161,0.9434360291826926,0.9410662322065085,0.9333178192405955,0.9145204080865719,0.8828250914356978,0.8288624809576511,0.7113956947364958,0.48952548965569787,0.2235571800137102,-0.004191213664947353,-0.17443623025343138,-0.2829034172505246,-0.32496274996111735,-0.33375858931879404,-0.3479237804351704,-0.38984261145382476,-0.46477888147980273,-0.5683187109327325,-0.6771371181801676,-0.763411198742443,-0.818872018856824,-0.8532054752528402,-0.8803412828220377,-0.9057864835255468,-0.9300257812282308,-0.9508128015884898,-0.966749927847308,-0.9777778300529828,-0.9850242931608149,-0.9899470709899194,-0.9931050261205457,-0.9941597793496377,-0.9932027796530044,-0.9907287929532647,-0.9874027065828389,-0.9839169321284729,-0.981240848051931,-0.9808730493498037,-0.9823672648069663,-0.9836465440568287,-0.983638897720758,-0.9827182097319418,-0.9823318049476784,-0.9828419799867513,-0.9816578362044406,-0.9737167140764265,-0.9453133842088568,-0.8185222650107093,0.005698898158967024,0.8293455352448919,0.9499995027887026,0.9758044160128699,0.9826245056591147,0.9841761544208215,0.9829967394130068,0.9798709486421805,0.9743652895383024,0.9676031485442285,0.9624979132468969,0.9597785202306663,0.9589647929084159,0.9598152060029297,0.9614122817175793,0.9617988585517684,0.9605942614664712,0.9583497964534682,0.9572826480725334,0.960201481734412,0.9675491534396685,0.9767497177729213,0.9847590573158542,0.9899703571984135,0.9925544139826314,0.9938983340052784,0.9944470362021194,0.9933417104478354,0.9893901736839132,0.9834945399634296,0.9787495755522523,0.9782112108562062,0.9816373176900396,0.9828210947430642,0.97055688772521,0.9309833449895162,0.8364607602322953,0.6334538028554261,0.3084943868473589,-0.03842480273469943,-0.3170835286813034,-0.5036905638150936,-0.5908322060724067,-0.6093159743468108,-0.6268181249790289,-0.6810001077776786,-0.7628407881250804,-0.8450437888581891,-0.9117626387582081,-0.9544831096485502,-0.9727876802543677,-0.9746009706422064,-0.9709541917762802,-0.9677312785540586,-0.9654314564790605,-0.9635161569673656,-0.9632697116188653,-0.9650885255588062,-0.9678500702276757,-0.97046865639961,-0.9733301986395911,-0.9759301340403626,-0.9775665511047683,-0.9784767737446557,-0.979275516381809,-0.9798076550480214,-0.9794309861202992,-0.9791117003461444,-0.9804799034531632,-0.9836461722371195,-0.9869136598437692,-0.9885429255787135,-0.9878725873033506,-0.9848781638025792,-0.978119689010129,-0.9620031111614873,-0.9200268973898087,-0.8096432599761898,-0.5622418527398169,-0.1667994549481116,0.25409272830541185,0.593363726182753,0.8013019236497484,0.9059213353307296,0.9566981455518083,0.9806635090806046,0.9908227555934189,0.9943871843294017,0.9952341371892082,0.9950786175044045,0.99498038381139,0.9955392065321034,0.9965937522535201,0.9972906753224857,0.9966022474655398,0.9938055213712689,0.9889744126233873,0.9830053644168506,0.9779783079919235,0.9764159800051921,0.9786596835437201,0.9829098157446073,0.9865127545378561,0.9878217811294112,0.9862554984045587,0.9810191187576224,0.9702540910212613,0.95121726753854,0.924089030744365,0.898570959003131,0.8882571525595823,0.8931145431012919,0.8916546104720565,0.8582234939868776,0.7713389888261111,0.6147638192197139,0.38794918877165396,0.1143969181663761,-0.16645595230850344,-0.42635215448635183,-0.6284941385000101,-0.766723838038639,-0.8574187064799742,-0.9147483515147394,-0.9513110667302304,-0.9729735760264641,-0.9848831001267796,-0.9911570923530033,-0.9948201036132102,-0.9973053508258524,-0.9985124859078789,-0.9977918007056361,-0.9956670183740436,-0.9941638952622814,-0.9945722979564164,-0.9958575209399751,-0.9963190861177997,-0.9955802489803107,-0.9944522154914207,-0.99366076068743,-0.9932959752100056,-0.993119561734529,-0.9930344171389147,-0.9922079831139434,-0.9898654344114571,-0.9861643557971582,-0.9824653670054894,-0.9793606801671467,-0.977254925795443,-0.9758145157107937,-0.9748247428348722,-0.9730042667510891,-0.9668389421552446,-0.9523203819560848,-0.9244680629201674,-0.8803511422592979,-0.8166867086350096,-0.714007495743034,-0.5314408799625037,-0.2389707313665199,0.09002131983985823,0.3603565236930446,0.5573845451825294,0.7001786609825146,0.7987623485473284,0.8647349073919723,0.910085960477366,0.9411975877186687,0.9606212552110397,0.9703250714559634,0.9717650378841182,0.9674473666377414,0.9636290269960306,0.9662246502800701,0.9741885461559537,0.9817394681439222,0.9867114392716174,0.9895424675579054,0.9906530845880113,0.9908732388558674,0.990125101426841,0.9870903557273332,0.98167049395147,0.977168622352547,0.9776178326438765,0.9833362531477235,0.9894533828810562,0.9915973438357222,0.9895156192717356,0.9857261224196691,0.9827618760758989,0.9811032028365242,0.9738119979160247,0.9346879452871033,0.7760716341718337,0.3362300236480174,-0.18574099942438857,-0.4611759731673192,-0.5443380734255558,-0.5243470697090258,-0.4610168881569564,-0.388558707895088,-0.319292898791339,-0.2409255896113952,-0.14660073933418893,-0.045324508401469565,0.0480036137194785,0.11305264500316267,0.12848935058485533,0.06571510857996575,-0.11766684726158849,-0.4172124704262064,-0.6866569132267145,-0.8380174993902912,-0.909907992210801,-0.9454242712212447,-0.9629691030432782,-0.9709356672127291,-0.9744432416388867,-0.9767115000888483,-0.9801160578315009,-0.9845458337127171,-0.9882470403558936,-0.9899512100522094,-0.9900569339816526,-0.9896933755072844,-0.9897610809141024,-0.9903887957460634,-0.9902705808976332,-0.9877444508035463,-0.98342263105693,-0.9798792716690171,-0.9779171683483744,-0.9749334984169717,-0.9659990447165084,-0.9451836052512904,-0.9066274958005844,-0.848222682414566,-0.7639449792072561,-0.6137411087069651,-0.3274373943305531,0.08121790730445862,0.434446560524295,0.6420230490230857,0.7429652468927097,0.785088471474398,0.793684481493595,0.783802308829819,0.7717338598258126,0.7761542745657396,0.8086171559888723,0.8609761479070167,0.908711645728468,0.9398302786218753,0.9583681941743077,0.9711228727748659,0.9804848095126767,0.9868745466234207,0.9908236203812545,0.992749860327405,0.9922107622751192,0.9879844626488192,0.980537852020625,0.9736987279946656,0.9719590209261053,0.9765061839167736,0.98350735382047,0.9887214005673282,0.990707262103967,0.9900540939949193,0.9886215183299477,0.9879588046476034,0.988158337010836,0.9883849912152821,0.9876944866092844,0.9855152205975423,0.981752034137306,0.9762922767675085,0.9688250468839742,0.9570763317050828,0.9325631583275519,0.8572664227249366,0.5458535740705786,-0.26559621539189515,-0.7319787176539367,-0.868995902656566,-0.9203343755720037,-0.9473820693622323,-0.9652135473858628,-0.9780360342627406,-0.9866671530208965,-0.9913392460197757,-0.9932026354804038,-0.9933122268835982,-0.9926579909868134,-0.9917764233105903,-0.9912248091660888,-0.9911833225348106,-0.9916088805289305,-0.9921480001346326,-0.9923139054141268,-0.9921148766156792,-0.9916676866855944,-0.9911109458653691,-0.9904514814508222,-0.9894267354760106,-0.9874225396613456,-0.9844440210536548,-0.9812683557781829,-0.9801550302273477,-0.9824693579522711,-0.9866348700885038,-0.9903954163347559,-0.9921071003958248,-0.9880619663351545,-0.9698667874476872,-0.932611649056169,-0.8843172990416196,-0.8306450399426097,-0.7670286849539496,-0.6851457340598771,-0.5631715279906482,-0.35492832407411984,-0.010744171231940144,0.3656400428491032,0.6157915432877142,0.7509425009227912,0.8294192723562406,0.8780048787591809,0.9084196097110407,0.9262270845339635,0.9387044038938144,0.9496051020212621,0.9600611984363894,0.967616913321082,0.9695046409799681,0.9667290141596736,0.962486582437205,0.9604126171837286,0.9631409128369527,0.9698617515811216,0.9783396727281294,0.9858330747194928,0.9908691297070742,0.9933111055028736,0.9933266393969705,0.9907813401804978,0.986271657801426,0.9821336578332085,0.980077011239039,0.9803279738395169,0.981890253302391,0.9825641465828135,0.9803231943464233,0.9742765426157247,0.9648648347928599,0.9511111006086032,0.9159517949518456,0.8108747373114547,0.5881582179737643,0.22911067201011082,-0.19771932308485796,-0.5630694161126442,-0.768182465040917,-0.8584013949166173,-0.8976729718704158,-0.9190248179350037,-0.934306459638917,-0.9463743600737853,-0.9549259181538973,-0.9586031255235196,-0.9576313807751128,-0.9523387506837125,-0.9447028898399462,-0.9388940792684992,-0.9396758545600855,-0.9483813978543177,-0.9616767219238876,-0.9738665127635792,-0.9801972779715827,-0.9821677298715461,-0.9838685366521954,-0.9866004677563172,-0.989502474366062,-0.9914313782219357,-0.9923624121366598,-0.9925060287542334,-0.9913355648378088,-0.9858948866958045,-0.9643700459071209,-0.8494711676316116,-0.06650050926658639,0.696586926986385,0.8401091460919499,0.869391890241815,0.8563498338231303,0.789535361869274,0.5683633460704443,0.028132525089303063,-0.24956466406693148,-0.003768015189101517,0.3896810439670451,0.6503944398560088,0.802363767604446,0.8895852228113154,0.9354475981255109,0.956957864985588,0.9674091277514084,0.9727074101449658,0.9751939887715277,0.9756711251084884,0.9749032100182896,0.9740604907347291,0.973651951281655,0.9739822311766314,0.9748809263651881,0.9759234741924446,0.9771160220957961,0.9784609429487763,0.9800404798780413,0.9817875448855512,0.9836682156558536,0.9851362071987153,0.985247079170129,0.9835532353646068,0.9799542151607619,0.9752064206633988,0.9705914931125552,0.9681740849198955,0.9695554866234659,0.973777893188947,0.9762175360875995,0.9723822232130821,0.9605908886937351,0.9425111893530583,0.9176745139358301,0.8854588821173895,0.8408583028852477,0.756844066434538,0.587254021678758,0.34458349023877277,0.07892514711291636,-0.2267763004662337,-0.5327342431376315,-0.7512721897637764,-0.8701333065484236,-0.9312132677773203,-0.9627035436402457,-0.9783639726420104,-0.9860132394771437,-0.9895914738574801,-0.9912362402836816,-0.9916146265843857,-0.9905843619675176,-0.9875551327643165,-0.9826861817683648,-0.9771435333605794,-0.9728845783132631,-0.9717682646881277,-0.9751917846171319,-0.9817591295671847,-0.9880182012361153,-0.9918358310708086,-0.9927690681013086,-0.9906679215077419,-0.9844257681650381,-0.9737496234390679,-0.9619199688004816,-0.9556851586413331,-0.9615589119012816,-0.9775564757837638,-0.9926626275285391,-0.9968827881635016,-0.9924496217574139,-0.9871815245590361,-0.9843235370964676,-0.9836911762575836,-0.9832314155685673,-0.9787119116084178,-0.9609290973923763,-0.8861193339202134,-0.2990633059623384,0.807941775383236,0.9574674344573509,0.986043164421259,0.9947920179755365,0.9976063531022736,0.9982993365791837,0.998374679738045,0.9982763070992645,0.9981620173239665,0.9980903591739794,0.997950771506026,0.9973365934637621,0.9955443297696418,0.9923214796268062,0.9887967508404983,0.9865511595794844,0.9856526372806852,0.9844115486410198,0.980053361423339,0.9716328111734192,0.9616431922914956,0.9516635165012858,0.9399515721364937,0.9245136992824744,0.901571070479318,0.868746553958387,0.8191948916702397,0.7374501799309464,0.5983505853656625,0.38236920265966073,0.1075649884823743,-0.1518815173300627,-0.34743997048078834,-0.4963030746434071,-0.6041665579820051,-0.6734162300913382,-0.727799621929002,-0.7899420633071768,-0.8571722347602464,-0.9091366938571671,-0.9364108893069718,-0.9441478071002061,-0.9417509811822805,-0.9368211739217427,-0.9356041595329896,-0.9416819012349688,-0.9522282436121804,-0.9605004667911142,-0.9593075176071627,-0.9462320049233055,-0.9213192433814913,-0.884941506824951,-0.8351586846290755,-0.7731356636304713,-0.7098616501560203,-0.6794815006036394,-0.7060159896638637,-0.7728434532346462,-0.8419184631365084,-0.8952076920820419,-0.9312501766928525,-0.9542040474648459,-0.9682148647362112,-0.9770851935006001,-0.9834698391459069,-0.9882930008821378,-0.9917364258379625,-0.9935019575967521,-0.9921876354565575,-0.9860971855798615,-0.973096811060808,-0.9493604060777103,-0.9131341935851427,-0.8696477753887474,-0.8356112330097608,-0.787478849864277,-0.596649844568283,-0.17736931238390397,0.1102620562526131,0.19088474102144926,0.20433443716870553,0.2356653291708154,0.30279237704275325,0.4088715620507396,0.5526867391685548,0.7046645383871228,0.8227578233615319,0.8953090519887251,0.9333852111716525,0.9529073283323941,0.9648633771840003,0.9739630627472401,0.9807451452289009,0.9842292187222872,0.984407657566148,0.9829572725800926,0.9816579227718312,0.9815848831924351,0.982240199604176,0.9829806365522009,0.983120834334467,0.9818573313605069,0.9785935864347942,0.9734823034818835,0.9674454740813723,0.9614057276978828,0.9568430593159074,0.95582541258143,0.9607633754439585,0.9717414791097483,0.9833082390959209,0.9910290472130455,0.9941433774814235,0.9920800493689416,0.9825649836780391,0.9575516055545688,0.8800813879880875,0.6228228489877541,0.14824751741273595,-0.24444073561370655,-0.49002805433657143,-0.6585817928858559,-0.7833185658335545,-0.8732317971448372,-0.9281263004242689,-0.9562214482985746,-0.9686276959496956,-0.9733452125737247,-0.9733480060425026,-0.9691809975017869,-0.9577911509761134,-0.9295841572377,-0.8657550155428767,-0.7462223622307814,-0.5937023429118808,-0.5008328473359883,-0.5518937349308197,-0.7202542846545381,-0.8760007947825933,-0.9546755532147683,-0.9836320713186505,-0.992192309109212,-0.9934788501637265,-0.9925294113123421,-0.9915386137662867,-0.9908170697382453,-0.9901296082092157,-0.9895798016455759,-0.9892517265297517,-0.9890887277536442,-0.9894103469608998,-0.9898087698405328,-0.9896938474214457,-0.9874171871144173,-0.9794281181034998,-0.9509771707988075,-0.5143879948681843,0.9448430832089834,0.9882226188808167,0.9927047013668819,0.9874563521019079,0.9608289972734897,0.8918115855677575,0.8046425232157736,0.7686853125922278,0.7873070035844787,0.8274590574228227,0.8695467982700011,0.9072338193513462,0.9374165999104108,0.9584725583176971,0.9711011861499569,0.9777564485764677,0.9810993435704229,0.9831400870386576,0.9852756143454506,0.9878548757308536,0.9902803617870811,0.9924264533426813,0.994005746389684,0.9947988852548895,0.9948330364747946,0.9940788378000743,0.9923818896258487,0.9894204263967477,0.9852445764211832,0.9808333039168737,0.9770355076709661,0.973809649222081,0.9688994362572096,0.9591267248652307,0.9379930693241977,0.8923829683323409,0.8002818755138631,0.6508961691590108,0.4931455279638628,0.3441349112767708,0.10193161491644404,-0.2584385586154115,-0.5538210325912108,-0.7122599607265615,-0.7788509865339188,-0.7933375060759544,-0.7835724090257165,-0.7710219861063548,-0.7690589466058723,-0.7826417826825963,-0.8121174499913429,-0.8538449918563851,-0.9039894440379603,-0.9508571453481736,-0.9797896198469547,-0.9904898547363608,-0.9927632044599143,-0.9930032032772191,-0.9933314772777455,-0.9938286906463113,-0.9939977780110621,-0.9935823869088874,-0.9925505470915472,-0.9911320565799019,-0.9886755618804087,-0.9835852466321247,-0.9749411268410509,-0.9633094015028929,-0.9511486935521328,-0.9426406964969682,-0.9405357111484189,-0.9438635777295078,-0.9512389959246784,-0.9601508530873499,-0.9661032181318023,-0.965278452363868,-0.9573809600416512,-0.9447271741066365,-0.9282308301385894,-0.9030227667570632,-0.8609305015535674,-0.7952212576688462,-0.6915911757262846,-0.5217170927772382,-0.23676091378268116,0.1798674266875036,0.5721453556634499,0.7899992272259392,0.8849148464464544,0.9266354206922861,0.9480273280844685,0.9616361446663005,0.9721733627481194,0.9794228571663612,0.9835831573333557,0.9861034960502256,0.9882457923900557,0.9903350567803454,0.9925193400090434,0.9945201319723744,0.9954667921774107,0.9943740873032872,0.9913816109970813,0.9882224770396334,0.9861013084212537,0.9846967485149022,0.9837244987835677,0.982810728862569,0.9811208179961821,0.9776479201458359,0.9733958660609626,0.9699613754923453,0.9678443629167571,0.9655839104244649,0.9604896445991445,0.9511545217143014,0.9382541321708038,0.9230443180695452,0.904280213081813,0.8697151552508436,0.7639300634945765,0.347197744034429,-0.45327127900504005,-0.798981056852939,-0.8934142945636939,-0.9206740153061095,-0.9249338938305426,-0.9183488116219469,-0.9044922477907497,-0.8871811709240911,-0.8714220750023268,-0.8633237406525198,-0.8737727421415586,-0.9033741303043762,-0.9375898987735647,-0.962330009482535,-0.9758927099077515,-0.9828310020485295,-0.9867982813870813,-0.9889749793401914,-0.9900349698067182,-0.9898048312611272,-0.9880589910776576,-0.9842794679583025,-0.9782710222995298,-0.9722169762282694,-0.9707932293397862,-0.9758645168835439,-0.9831619129039939,-0.9882457924721811,-0.9908840949067934,-0.9922848775481863,-0.9931377343790435,-0.993628762622181,-0.9933439628247034,-0.991541854774686,-0.9853092948134589,-0.9710448375433876,-0.942286150112812,-0.8790356574824136,-0.7111690418017814,-0.23631132996863344,0.4040022181560496,0.7118094235089916,0.8299924892789067,0.8830051447956018,0.9134427097163673,0.9329193783722916,0.9451888410934589,0.9527803252547772,0.9563025848899269,0.956805429256163,0.9565475611784942,0.9565669849530792,0.9566655867646894,0.9567105465451895,0.9565986697747573,0.9578177078390434,0.9624937857977669,0.9705072014995894,0.9787139529538168,0.9851054842746603,0.9886792485913993,0.989698420425451,0.9886495440173488,0.9860094638210163,0.9825212142490924,0.9794322929448822,0.9789980152452139,0.9817792759653325,0.9856376069265124,0.9872273510720715,0.9844843805561677,0.9752487943695212,0.9539718510257554,0.9034788557099156,0.7679445423422011,0.39742993611554667,-0.2047445452640283,-0.6054644251291047,-0.7553508523841144,-0.8077119585827186,-0.8330148723271578,-0.8516326715920643,-0.8654514244539753,-0.8750221989443444,-0.8881716540662616,-0.9075476649722456,-0.9282411712064241,-0.943165365149121,-0.9493060627160685,-0.9474993692600558,-0.9418903691223726,-0.9351330731289638,-0.9276698354836113,-0.9200333476888585,-0.913505942596199,-0.9068849187457141,-0.8931332856909271,-0.8523886536125612,-0.7537613521729292,-0.6193935785549389,-0.5767498869472327,-0.6812982071692758,-0.8036444478595436,-0.8627184760827205,-0.8830528953735861,-0.8894392640444063,-0.8885158042648404
