0.295895583362654,0.2945079765923658,0.29968424663502774,0.2976893368821571,0.2648551520171344,0.20102049493224972,0.13873862088250496,0.09597613049806401,0.07357581212958003,0.06977056583448187,0.0777536025612475,0.08372294951826738,0.07444140743813599,0.0559144385776056,0.03521263240624827,0.011442711514823005,-0.020337950796769727,-0.06535227699442608,-0.11927083764372873,-0.16546442993218716,-0.18801098530321816,-0.18596053795828038,-0.1700066471194802,-0.1497072149488506,-0.13262223411273072,-0.12209611413896997,-0.11975228719838672,-0.12243565601467792,-0.12906168353423908,-0.14230553843659405,-0.15630347661701824,-0.16241403104093774,-0.1496307226616217,-0.12184417149086917,-0.09674175988188986,-0.08211958600764792,-0.0798410067167312,-0.09709111815899499,-0.16057028429959713,-0.3071267701108941,-0.3034855561553266,-0.26252311506269577,-0.25059401864673225,-0.24563099869580005,-0.23155526979489177,-0.190638552314358,-0.12489223249532054,-0.06555889533024989,-0.03227077520960868,-0.019789114904776334,-0.019824525361495374,-0.025183534839106528,-0.031114483370023937,-0.03354846899035938,-0.028594829858716725,-0.007280310340653727,0.04823823748258299,0.13178677250823786,0.19286527675982432,0.21600022464418883,0.21915338877442617,0.2136436659724346,0.20470750816624428,0.1859607953057603,0.1546331682926316,0.12335594438465809,0.10462036110859187,0.10120641308077744,0.11154829843748,0.1356085430712659,0.17749584024478537,0.22599162031245998,0.1845063575033515,0.13573730992771027,0.12878583935686125,0.15054224937169486,0.20090615826074135,0.2725894223928086,0.2988563614433582,0.271623888682143,0.24363218537171596,0.22633029357084036,0.2093327562119244,0.18055056899697206,0.13954704524626527,0.09644282367051393,0.06084340331722645,0.03266255407617179,0.008793119952646616,-0.010800747481800071,-0.02465555373526228,-0.033430277052693864,-0.038314439063808034,-0.04232464610324911,-0.055444286152056176,-0.10492931795207087,-0.3310919540729343,-0.39476473683890795,-0.14565418398411817,-0.07244115862223229,-0.04364288024476637,-0.038363582777870116,-0.048635315932568014,-0.06887653516783325,-0.08981496557900173,-0.10297237353032061,-0.11326857003394367,-0.1322078239443129,-0.17461522768242516,-0.2502401470956731,-0.3456360552166171,-0.4089709725746254,-0.4126954789497063,-0.3905896007195404,-0.36958274458703244,-0.3546177054959762,-0.3355222578479721,-0.30139913400891954,-0.2517756259064818,-0.19829722608823355,-0.153253538843177,-0.11384629020146089,-0.07380917080467207,-0.029549800191080604,0.01673034753814219,0.06091570501334958,0.10911339521479152,0.19685621663129826,0.07592071701686566,0.030060751089616148,0.021062491411825056,0.02316964527226947,0.03064570498358392,0.04138101750240384,0.054878025915824996,0.07272764180810153,0.0952127165701694,0.12159983663532635,0.15235096918917257,0.18873336569475155,0.23259112969854712,0.28044359502416466,0.32287180553261363,0.34002438566756477,0.3127254400772839,0.258755994571982,0.20421223561655505,0.1631282737687485,0.13943224571638713,0.12713947075262155,0.12038413473375607,0.1196658124064438,0.12813472236997286,0.14722637602916938,0.17018923568453345,0.1774630027579923,0.1540303112435803,0.12404143366458585,0.10510941518320831,0.09657002766650248,0.0929200610319421,0.09145131075111121,0.0939168253629144,0.10473779118335143,0.125290553773403,0.1514684662288885,0.15912589115834588,0.1278262580373451,0.07051727411732785,0.009006362362989323,-0.056136428838018664,-0.13379524122813205,-0.23830108408698775,-0.3686790199132187,-0.4209255421783649,-0.3373019950316713,-0.23671648337298914,-0.17059036463041868,-0.13941645434369157,-0.13716640454701112,-0.16104538337537694,-0.21445132546020798,-0.30546311669655096,-0.4315960358970945,-0.5429449358323978,-0.5681048069151464,-0.5325356898235857,-0.48797537796812696,-0.44524436404242357,-0.38367129241071624,-0.2547031408083487,-0.07922789503186432,0.013378840433567817,0.019394059986867763,-0.00861111662320254,-0.04002008358397578,-0.06332239024047073,-0.075505797272746,-0.07569114637002926,-0.0604564540696394,-0.023041444945295825,0.04933563112489437,0.18018546550167377,0.39600569226559235,0.43539766856952844,0.32113364430874836,0.2587258745144574,0.23696076706287234,0.2382615305649313,0.2409101642948907,0.22532938258491333,0.1948988190991237,0.1572131113499542,0.11737642939736098,0.08694983525087899,0.07714413468311279,0.08581105711092853,0.1148210352989717,0.167692044909102,0.23440190478197662,0.2866710361435157,0.31573731148802986,0.319311357276748,0.30073344092358484,0.27132643863025363,0.2312330140254996,0.18057989242387315,0.13173288183904935,0.09528984716868774,0.07229385469343311,0.059469456305308206,0.05425426126723032,0.05671574894173084,0.06536967416226967,0.07497945982853789,0.07524428140533264,0.06966829094053828,0.06579370939073202,0.0656001521295963,0.07083226702953789,0.08440642850043856,0.10599115596961188,0.1279956744673743,0.14577278401695165,0.15639895635104503,0.15337715537635788,0.12707044261755723,0.07382698055148536,-0.0059112900690137795,-0.10865125805470711,-0.22339025076594152,-0.3203206552275703,-0.35637981781447564,-0.3264674800688647,-0.278270167970899,-0.25304144984444504,-0.2560883722958088,-0.26785275301092604,-0.27459674854663385,-0.27086001036964885,-0.24636609363137427,-0.1865539393970659,-0.10272334584483014,-0.016085549212182693,0.05508634207479268,0.09392609344383081,0.09992628871318499,0.08831817660164211,0.0712134477409259,0.05471577696502496,0.03579199203999905,0.010429020473324,-0.02639328616679144,-0.0699285357345738,-0.10881874683099431,-0.14148494509202375,-0.1752444290806285,-0.2184208534853356,-0.26916478519524467,-0.31097953159519603,-0.32517696167082966,-0.3181515576737867,-0.3001671396406152,-0.2723772952934521,-0.2403294391188868,-0.21333462547210605,-0.19582161540893508,-0.18100242959889967,-0.15903751252058587,-0.1328619271056038,-0.11284447586780878,-0.10036271072711299,-0.09117385274767091,-0.07959212333810028,-0.05867240702989971,-0.03195329411987796,-0.00959690397772253,0.008729811278495448,0.02773926511600708,0.05343730212977228,0.09536341825062035,0.1758207863547764,0.3192857667224876,0.32990108608749596,0.25002996397787497,0.20341121524082753,0.17455135555612367,0.15168070478648515,0.1317806068204142,0.11426805817838115,0.09778705939447045,0.08329263590584357,0.07478838691541417,0.07681709219495038,0.10122244610480784,0.20522480983745864,0.266696729658209,0.1389925026226861,0.10878598597171055,0.10483974644497562,0.11202545742883456,0.12172853440305315,0.13297154979775216,0.14324937222247125,0.141969834277875,0.10962207225623541,0.04549696867253886,-0.0250336513228263,-0.07536570722493004,-0.09361908127174527,-0.08267989413085493,-0.052207662379505144,-0.018074885358022548,0.012183126098459852,0.03916139459682022,0.0657561814831722,0.086329289605486,0.07892322742638483,0.013069356017055667,-0.06586296593370274,-0.06730479929575815,-0.04014732220743257,-0.02058331478431835,-0.012617035153825285,-0.01184511453788708,-0.01589650693819879,-0.022945495928524066,-0.03238241093319056,-0.04329627790608776,-0.05590782735569354,-0.07440201300734703,-0.11034466297594779,-0.17517773940956932,-0.24677944336957225,-0.28406643765270634,-0.28692708567534436,-0.2643710414875387,-0.22071337009582465,-0.1631615972126857,-0.10211183070796838,-0.0498134506356846,-0.018154777443942147,-0.017660658615481134,-0.04326381894146915,-0.062047882094311176,-0.051127452223291334,-0.02437014588139573,-0.00046711806424531966,0.015479555588740942,0.0251889296853707,0.030982783763035565,0.03398648949738919,0.035319861937681295,0.03520483908434837,0.032844649056138944,0.028770048295549144,0.026761921056017962,0.029084444917437266,0.03696542552146252,0.0514600095488082,0.07499675825640645,0.11575334819061538,0.2024615070980699,0.48815229562066387,0.38238116225557806,0.1686437478511402,0.09961587618471344,0.0685305423766252,0.05386528745093539,0.04852503198094974,0.04726895639546095,0.05064597227190038,0.057982669827608434,0.06622843873132876,0.07217014859445865,0.07445646352336407,0.07293493584844142,0.07073384553286298,0.06805228854321349,0.06066151976749359,0.046039935870454005,0.025694774568985782,0.00044745922889328376,-0.03494096565738039,-0.0875306541235587,-0.15907142050766904,-0.2274303485362474,-0.27080934850068794,-0.2929718803023866,-0.29794655684869664,-0.2783877980744064,-0.22182233209744406,-0.1353331231753596,-0.04849500970716393,0.019363842843349598,0.06367327811310039,0.07155977598366584,0.03658739635254318,-0.0011900639871252256,-0.019125695551891947,-0.018328647727520898,4.562521835561239e-05,0.03866162416687124,0.09582784662500968,0.1463398659716399,0.160770405685594,0.14795650256161944,0.12448320342069387,0.0927560855981866,0.052063199388728075,0.023710385912639693,0.022711426170614918,0.04548531036056113,0.07997665840376428,0.08457853938368366,0.06191363321514462,0.039182304981538976,0.021151529126619568,0.005926945090535098,-0.00561548300977065,-0.012526199753080745,-0.013172876929005211,-0.009677796847581544,-0.0069248410159266855,-0.011233341087848013,-0.02433012719928754,-0.042015872652098815,-0.06528267921150606,-0.09534886115942753,-0.10216876746737812,0.005049651643084372,0.07209662252071417,0.094922423503311,0.08983777659151498,0.06944177557937424,0.04499311925402691,0.02460172489975006,0.0058000246444786276,-0.012839911851145407,-0.032196741940898034,-0.0488091702917758,-0.055473993688519276,-0.045046796000640724,-0.018184438348602585,0.008769877754525292,0.023391043918309838,0.01991392138553774,-0.004662278056958339,-0.053825273266814466,-0.10203617515730275,-0.11753129269074516,-0.10930951578141603,-0.09154881389658744,-0.06987161766912434,-0.05238681878546645,-0.046780931240486844,-0.05358448708047068,-0.06460552542984381,-0.06797202249040542,-0.060714259590040225,-0.04071251991293081,0.011622572755318479,0.05414535447118357,0.03894996065279287,0.02322756304823392,0.007072120831435983,-0.010454499483055537,-0.03106975089606403,-0.05344657601691242,-0.0647571703379164,-0.04877492263848985,-0.005722467445159499,0.052972752829227386,0.11693077745854955,0.1629282585352982,0.16510584769652928,0.14152796756395708,0.10747550969894001,0.06343411759035487,0.011800414416176365,-0.034837624798597665,-0.06809215017174891,-0.08971416632505254,-0.10457559828805639,-0.11912281988686994,-0.14090526122126637,-0.17997555755962502,-0.2181451694553725,-0.15210128727449426,-0.0895950955414715,-0.05244705260407755,-0.02485572950130573,-0.0040589409466429745,0.009333373809129556,0.014374572750246045,0.01286653497811168,0.004751328870122279,-0.015482787812446734,-0.05336060378137973,-0.10437422999411208,-0.15793460622127237,-0.21013544186375435,-0.2584012981479216,-0.2858632351603378,-0.261017238784195,-0.18825300648062826,-0.09647850775557675,0.02234028749406454,0.1640593448777071,0.2554117138423751,0.2724489179247812,0.253046421586698,0.22336537335728304,0.1923870709125479,0.1607091127492273,0.12019819552256293,0.056547329484948776,-0.022861888451365123,-0.06772802253253363,-0.06858235262640715,-0.05436929983630713,-0.0384048036502961,-0.023137117841543587,-0.009162840610954605,0.003327756426369627,0.011971190992625166,0.016511331279653207,0.019443356836720962,0.028394095754732524,0.052713625207383534,0.10172124292933252,0.18518491894832018,0.29181466042453036,0.34998509950731027,0.3240629799996758,0.26197250601551275,0.19394613099255123,0.1270414784508367,0.06308019119609531,0.010244456786184328,-0.01993363838412252,-0.022038279015211652,0.005604670638835592,0.0335870881917866,0.043868389709289926,0.04634719995587887,0.046848026326108703,0.04811334118274836,0.05271924285339529,0.06198727517638716,0.07595594967773028,0.09337842073424182,0.11156420647259171,0.12835411015407044,0.14069602754173133,0.14785477873865022,0.14877446998601643,0.13245572468273759,0.06838304999648576,0.0064553968177529526,-0.024431525543134817,-0.045752586691092514,-0.07545386591533955,-0.12102121391827908,-0.17935966841222442,-0.23486048623354622,-0.27279158228385453,-0.2687511264280471,-0.23142786014355424,-0.20401188829281824,-0.2025195080863555,-0.22839554384071686,-0.283743893167694,-0.364922257522826,-0.4461021586921814,-0.48513938593198697,-0.46959416638690127,-0.41277282192827475,-0.34009565073511433,-0.2804463664988873,-0.24365871528614072,-0.2174102144012121,-0.18532167605479216,-0.15044199874276679,-0.12164286452104829,-0.10193319209420433,-0.09059145043037245,-0.08642272834149015,-0.08724573473864239,-0.09043754762897589,-0.09401406596937119,-0.09622011507556519,-0.09246740794398162,-0.07875382210146478,-0.05246154910489181,-0.0063792729397779855,0.05695896545352212,0.11925988235797404,0.17485533112063226,0.24278680370449612,0.3676503953172248,0.5381113997982673,0.275909707915001,0.1406129970504159,0.0898386195972886,0.06768224708112293,0.05865951577220123,0.06454143830121337,0.07539861638587708,0.08617118268212233,0.11322420330033714,0.16843003721277666,0.2845085670604981,0.5255837273090074,0.44848380923126485,0.2890438262291711,0.22838930194764703,0.20707172804371582,0.20419738181521113,0.21215693812744207,0.2250201307545195,0.2300462139349711,0.2005640026788437,0.12318375040493769,0.03381938131582248,-0.025790829831618168,-0.05470082167387511,-0.06805026005248582,-0.07795355071756192,-0.09217977114633652,-0.12035992624416929,-0.18210220523468323,-0.2155607543776934,-0.128607510036908,-0.08539449884551015,-0.07103062623650748,-0.0722009070178031,-0.08528799978610564,-0.10544726992040422,-0.12444901775225335,-0.13304530022900973,-0.12639274589740332,-0.1089467484259874,-0.09017037407079553,-0.07661116174094763,-0.07029776165763012,-0.07128260793441556,-0.0810249744913685,-0.10850945922391363,-0.07965168020216937,-0.015469378268558053,0.00411261051269715,0.007153829676646827,0.0008023768768360571,-0.00970906347752692,-0.019668796131434803,-0.02618383134905085,-0.02980255629679294,-0.03300777223522407,-0.03667083319251552,-0.04086836314605138,-0.045934891013265804,-0.051711374216917134,-0.05909490667435275,-0.07296450300438309,-0.10801092543659344,-0.23522567376257664,-0.494537886215389,-0.24642896677632384,-0.17873336673149884,-0.14743393852587017,-0.12132529118965277,-0.09664327784938073,-0.074355474525803,-0.05441738287077935,-0.03499526348978287,-0.013123459898753827,0.014596120385169631,0.05030311579525227,0.08599417154039762,0.10514990438876061,0.11363276716099613,0.1266190448715029,0.1508274492107113,0.17675738797379134,0.1737201141398365,0.14097251336350117,0.10668627452691666,0.08153971422401292,0.06570761720260478,0.055957637561274816,0.04407020946497222,0.02761622034583029,0.011907370192949806,-0.005316999316078498,-0.02372460493074571,-0.03550692412433609,-0.03805245130296987,-0.034710944429428854,-0.025888645634902202,-0.011144260112007627,0.01122680112901155,0.04422293293510228,0.09452386586012813,0.16957439780509997,0.2269593608382363,0.18837964918249536,0.14436596778459188,0.12496376558697948,0.12420606051584951,0.1380193630981463,0.16893161742997911,0.2323956080613523,0.34020885306419635,0.22846213847466773,0.12284489115154462,0.08068384895449547,0.062346341208284986,0.055288169683035876,0.05518970430251315,0.05666666886887862,0.04030696528001297,-0.009742731342389968,-0.07146410292720892,-0.13046696965733964,-0.17734297629762252,-0.20536501098638033,-0.21655626876106554,-0.21825352274927695,-0.2149222636259507,-0.20744979460774313,-0.195686127648615,-0.1792659982389859,-0.15818346039945927,-0.13624324365532373,-0.11887874512951474,-0.11362357099806453,-0.12605022039269698,-0.1619106078427879,-0.21975387050632325,-0.26826897878886463,-0.24727107241848742,-0.16687236659632274,-0.08900941226709995,-0.03600267184989622,-0.00657248659903632,0.006990013769459675,0.012941398775593645,0.013188567086915999,0.008179794390573099,-0.0014332811805368329,-0.013430477388853,-0.024163795843662704,-0.034877200558520956,-0.04282997307053924,-0.0405361275099586,-0.020913163713976727,0.018588514463867906,0.07136805810770783,0.1314072376671786,0.20036646228747082,0.2685020483706753,0.2673560678331895,0.16536588636465288,0.062453595725523454,0.0013627818205885099,-0.023968407791432847,-0.02634561035668219,-0.01804418903997033,-0.005291576272267866,0.012656853979486299,0.0471640051954958,0.10017866272813959,0.09890848624825119,0.08415217130360005,0.07357313715847578,0.06461276378909142,0.05659419928786001,0.051277244362786835,0.05272977790193707,0.06684614238889865,0.10175159161676767,0.1515996234430049,0.13240347752224949,0.08832594632570259,0.06128326552718894,0.04629558311187314,0.03138078529291183,0.018788663049266355,0.011590607451816125,0.009582396195633102,0.023339751819447137,0.06315975671277518,0.06279832683766812,0.05934382805670076,0.0575875084592623,0.05643198627825438,0.056136436345142614,0.05633567096806131,0.055961786322037806,0.04960949063910616,0.030696530869521548,-0.003640553718286771,-0.05254939605228264,-0.10728050919691959,-0.12807535111295934,-0.1013667991761395,-0.07925283451914658,-0.07152655079485043,-0.07595480264702675,-0.09089573744373435,-0.09405775190396502,-0.06292158721702787,-0.0364556785089857,-0.020571977131134244,-0.011630971091575727,-0.008811133840854251,-0.012530869855863706,-0.021524268953878885,-0.03471883994354517,-0.05145441299079065,-0.0712567885667123,-0.09467501535830035,-0.12494459472537454,-0.11947840802273697,-0.06005713853084442,-0.028219977298572306,-0.01572573855201621,-0.005321394031605449,0.0021430988374346875,0.006103822725633319,0.009048035777557093,0.014497054389684055,0.029053773615147487,0.05287453869999839,0.06777340916545727,0.07386271654981949,0.07676776483513066,0.07377527046084188,0.06092112539060668,0.03642232848557853,0.00022310015637323766,-0.042190222422912815,-0.08074060974695829,-0.10420290929902326,-0.11002618980849657,-0.10152996271706442,-0.08296067752415484,-0.05665404123460725,-0.02563190777552403,0.004713363398288577,0.027557897049559396,0.038503238845372975,0.03840607906435572,0.03290294503313258,0.028977029583336228,0.030720369518268932,0.038626552846402755,0.04746985570210078,0.05344524394699481,0.056682217240071046,0.05953923023230641,0.0663141512615565,0.07900371334028632,0.10518173596734035,0.1819987489161014,0.2015036952134669,0.10726324131361034,0.07452518673155246,0.06976215908487446,0.0649024855717878,0.05361875299568927,0.03741523227381038,0.023317339081311284,-0.013481761839593548,-0.14070105367159197,-0.10541791811051544,-0.09693764459315589,-0.09813754593824552,-0.10312566550224302,-0.11039448074202984,-0.12222819718750763,-0.15091754588524628,-0.20845871689940068,-0.19952753665817766,-0.14731957388530376,-0.11586620028434372,-0.09444375114554439,-0.07507592537679282,-0.05522722529583858,-0.035073333948833045,-0.015397857087706676,0.0023310900730800343,0.017950400282267652,0.03240392693982136,0.04609874707961759,0.05818847896033142,0.06634670468240736,0.06788561054836854,0.06021306167728514,0.04523582534549169,0.02890065684150365,0.0164949291067957,0.01105675202387894,0.013567003423750612,0.023396674250007802,0.037458076215220064,0.054426014672233285,0.07348767407668093,0.09613363523431229,0.122869387572291,0.15477649782616715,0.19314728961106356,0.1811916653798767,0.036236754988628196,-0.03612165533937776,-0.06853584434933747,-0.0847859044492011,-0.08969463426092139,-0.0837571123320005,-0.07028846734613688,-0.053969634590263764,-0.03666668102278018,-0.01912088375783614,-0.00041014682542467995,0.021497352615813793,0.04572559496073961,0.06811528456500018,0.08367359335431013,0.0914065317208366,0.0943195429553724,0.09677818995764138,0.10162231295619226,0.1093743228278826,0.11821052119343532,0.12672986130494343,0.13246151628887087,0.12553895265024992,0.08886544192885254,0.03334649495090555,-0.018211742445475743,-0.05886435517374342,-0.09285827607820148,-0.12616703024089418,-0.1502283611051083,-0.15808556425801099,-0.15011101553028322,-0.14053356407055775,-0.14223179096229593,-0.15607749899199633,-0.1488702757455242,-0.10392114485963282,-0.06284540032775748,-0.034388583239518836,-0.018680996639344496,-0.01398160471919237,-0.020052098773805194,-0.03469428375730161,-0.05496388836789871,-0.07778677563466467,-0.10201876492861904,-0.1273796049441966,-0.1535777448870872,-0.1749594811260039,-0.1864073778840158,-0.1900956301317573,-0.19363232215117546,-0.20686035878822656,-0.22442195881403354,-0.2278298020550545,-0.2023345135758591,-0.15663840116784214,-0.11060640056359156,-0.0756425105508579,-0.05423759815300184,-0.045292419556458824,-0.04721879089812506,-0.060154942925456964,-0.07577294657537355,-0.08404226196203653,-0.08559064604396315,-0.08306529322082908,-0.07729109750890605,-0.07162106592652535,-0.07222249030422766,-0.07765598671509676,-0.07757968426789609,-0.06109246042958027,-0.008055562089032187,0.12257451509667276,0.26536491878306434,0.27815803281635826,0.26059055137056636,0.22985125296401937,0.1740124187570112,0.11236502359870994,0.07130053084657331,0.04982644958630628,0.03993097715724832,0.03704923291524473,0.040085987530254476,0.0460730468470562,0.06277219713319475,0.10548738055436155,0.2155160675200868,0.1672111884369315,0.09755617180606434,0.07089145928325581,0.06044011341467932,0.047633333814129375,0.03609816180457637,0.02911143299503974,0.027508927222940564,0.029245919310129615,0.0312278145605324,0.030939948746514737,0.027335052144315326,0.022804871718245048,0.018167379305020385,0.014991316749574664,0.014549687759510547,0.020290851635474633,0.03729162242610426,0.08550051014233385,0.22138773578447454,0.3147475828776305,0.29887415436504317,0.24600396871112915,0.16234462335236935,0.09230363854798754,0.05024718593734549,0.029286447711891244,0.021094882442468838,0.016985699203115375,0.011632559700778526,0.003249410829430903,-0.008868373717808383,-0.023878059017064118,-0.038186734797171676,-0.04735549056287397,-0.0577985993425524,-0.07447995176725415,-0.14392392129577103,-0.0783751370480683,-0.03312957566546744,-0.02689934432347602,-0.03026292442972265,-0.03712060994385988,-0.04525184535604569,-0.06944637760717498,-0.109968947983589,-0.16448428055827918,-0.17011309831073956,-0.11431118507176023,-0.06878994418408596,-0.04536098601000658,-0.03763947437821613,-0.03806811790803884,-0.04154340110313186,-0.044864241119857914,-0.04481865124579617,-0.038796256275743186,-0.026431858671819054,-0.010399163684580494,0.004881909884777606,0.01609820256671184,0.02082163655363221,0.018211433663668942,0.010380377784775307,0.0021523309652647553,-0.0033792579787958175,-0.003678905143588052,0.001957597272014173,0.01266792177321334,0.02675142842639056,0.04248957163760771,0.06040914109261463,0.08034360692842474,0.10454385515867846,0.13463353292034685,0.16572717464816739,0.19225537319740824,0.21602278570780106,0.23161783951441167,0.21659498961203466,0.18046443179189112,0.14174030591205708,0.0952616616243041,0.037269004354949994,-0.0228453143485618,-0.06930555115492744,-0.09403869536002928,-0.10033019922955742,-0.10331555811426452,-0.12303941392184149,-0.1684175505712596,-0.17516439215413704,-0.13631595138399588,-0.09524284061229939,-0.05359595556124631,-0.012685366479225302,0.02301627372854411,0.04858970550691043,0.06274756726928853,0.06737081785046245,0.062014330318117934,0.04457618698892837,0.015859808974383122,-0.013812093755984122,-0.028053036961991868,-0.02417736628958701,-0.014598826584465614,-0.003520941526043816,0.00852612466147332,0.019254691128520088,0.019993348465840555,0.009295371578904527,-0.0003388846401959189,-0.0060652222772975715,-0.007798547130204689,-0.007248689101668426,-0.005756452365334482,-0.004883793047019938,-0.006723637291055495,-0.014845273929305777,-0.03843146091518299,-0.06733689091956224,-0.05843471310040049,-0.05265367580448453,-0.05786805632856208,-0.06474778958881554,-0.07505216820888078,-0.10217951354219737,-0.16622573861130507,-0.37148569606678344,-0.4378563283957413,-0.2513670920424923,-0.19656882510039506,-0.1755943945856234,-0.15885591202537336,-0.13843860863740137,-0.11669725282962361,-0.09502571692858393,-0.07311582309062295,-0.051807601239075435,-0.03347783997028625,-0.01869040566058274,-0.007655542252581545,0.0030584222512552816,0.018551770794352527,0.03975021619836869,0.06433809768931638,0.08613392663642326,0.10061056987360849,0.10641967459136187,0.10176028645708696,0.09006325894765559,0.0785314085769422,0.07732672763954429,0.10211707360781788,0.17769590980254948,0.3726771422723144,0.4506883926232339,0.2598534675070915,0.17324494811558747,0.12931402704583958,0.1019633080666317,0.08312724088904676,0.07111657205636475,0.07058288651328617,0.09098927107329742,0.11890010905798386,0.13018440812605875,0.13100234680312786,0.1293708459910249,0.13272710575981278,0.1458559564530582,0.17666214480267606,0.22849769526405325,0.24761200176973275,0.1985123250829453,0.15433283552179827,0.12053574455842485,0.0907610402461954,0.06522089557145808,0.04069302150619349,0.02148473047590468,0.01605894183680617,0.015378791038371609,0.010899696538594326,-0.00034521390521641396,-0.014874474866163771,-0.023111003895268947,-0.013734587657031198,0.01466470096486957,0.05725234335345465,0.10703714536300633,0.13469816216365926,0.048598495975310664,-0.04021450389511502,-0.09584666196288147,-0.1509435336228686,-0.24984820915446984,-0.22713015858221394,-0.09312973119944573,-0.0435141993538009,-0.022929370381197176,-0.01653017863711844,-0.022882232366452253,-0.047458354994258364,-0.0835670998200302,-0.09820874003807732,-0.10437172586389588,-0.11551293312014285,-0.13454559732263963,-0.1651780564462403,-0.2179928483764901,-0.313311632603102,-0.4676390995850237,-0.5729284570764518,-0.4779366058000382,-0.3427108661772665,-0.23876471832959575,-0.16825053011166566,-0.12315428805149559,-0.09033497408281597,-0.05508194739266045,-0.00978280764996601,0.04182435516919664,0.09035156591680826,0.12942486075598755,0.1548685146441987,0.1634987633868303,0.15257954801350077,0.13261401022672073,0.11774272290917476,0.11194003447816601,0.10757847931854103,0.09590911841906713,0.08055508404730284,0.06638598732876436,0.05702698036832181,0.052908494375867976,0.054368214073430954,0.06240655645677165,0.0752404388433215,0.08157562686027872,0.0724636188250617,0.06333429564199067,0.06720618980381948,0.08837029393836202,0.1256347303614021,0.17562297741347832,0.23390198876091478,0.2945860243190375,0.3504957967268452,0.38427631829417846,0.37443577389905747,0.3249882413502955,0.26402118939950375,0.20915055894707102,0.16231979337262217,0.12353199487247145,0.09079050470865101,0.05702731263588618,0.015687559554866042,-0.03511711498718223,-0.09625444872067583,-0.16190133645549912,-0.1872570727246212,-0.1528288652813772,-0.11162157718710973,-0.08165361447913606,-0.06207836445180656,-0.05163925594749521,-0.05036723924304703,-0.06010673350968085,-0.08561424930710126,-0.13354921697878033,-0.20886425740308162,-0.3006604225182039,-0.3363276871026811,-0.23386360337697984,-0.16554655179235833,-0.16323624315290994,-0.19764833466941828,-0.2544862446316182,-0.31335032314083106,-0.3545762156318612,-0.3711975199173724,-0.36794159812864613,-0.35519043745624496,-0.33897399521170707,-0.30690462014085546,-0.24865776547782853,-0.18536140079379945,-0.15063432453803222,-0.15054655216228896,-0.1773507381824523,-0.2144630157669661,-0.23646137333122386,-0.2250741760635666,-0.18655982512915423,-0.14061806447374123,-0.10509257294274889,-0.08518990104773906,-0.07935998144635067,-0.0849682641736185,-0.09955486637370464,-0.11711520678389548,-0.12685867286640665,-0.11144008577213745,-0.07112042789257633,-0.02938648023438392,0.0016923125114047541,0.027017554651491055,0.05376599693125668,0.08661094804121176,0.1311697718253848,0.19264914778730816,0.27082813669366984,0.3334186931973167,0.33945792751289033,0.31681866366354694,0.29391045321284204,0.2594972693031282,0.2080145252704604,0.15624018018524619,0.1204934258497447,0.10451248594117137,0.10938980156543954,0.13962242104949749,0.20342827393182614,0.3089938706627294,0.4080211468663865,0.37087144495613256,0.3061752371594015,0.28961935893604895,0.3230552522881063,0.36353553835756197,0.2769789385371947,0.18447748293042432,0.13886435812251896,0.12031287424242305,0.11745222953389058,0.13062472818919488,0.15548849501504358,0.06551006771631343,0.023516447414004025,0.009392839549875938,0.003778847287050026,0.001824222725774532,0.00062144630608652,-0.0059927909686413,-0.062242871287255114,-0.13010267278620927,-0.16398982921202535,-0.20178008211555207,-0.22846228271886776,-0.23799204868539975,-0.22613340183879663,-0.19086170672978378,-0.14062329146715574,-0.09771524243731289,-0.07080472560879543,-0.057823048749024664,-0.05419643369601481,-0.05655224518590965,-0.0631807675812416,-0.07215423650080802,-0.08128991090179041,-0.08966025623694217,-0.09901106238264533,-0.11238272491597488,-0.13354135174194767,-0.16263264119750237,-0.18945206022802633,-0.19897789667311364,-0.18970565779419332,-0.16981260788588992,-0.14220931775372062,-0.10834048316818368,-0.07369464173236714,-0.04780651881545,-0.036729526614355974,-0.040975345080913446,-0.05382570771709897,-0.06478257652197597,-0.0671251783271694,-0.057752753819908784,-0.03273450865255465,0.0010763931427897693,0.018196518260203194,0.019867199921008546,0.025131504080257636,0.03463185443113471,0.050943306399215835,0.07212988431453068,0.09266904100627207,0.10721052522422163,0.11339221934340124,0.11205509134810522,0.12957169197973392,0.15740486241106852,0.1708710887192621,0.1556815549005841,0.12425794566044404,0.09677930975487385,0.08108433772321116,0.07640263213748057,0.08014506879130766,0.0902900196850525,0.10641157713246653,0.12983033443128694,0.152446528156472,0.14591018698409178,0.11470315090989451,0.08597186140492184,0.06690359352970708,0.05862602983037918,0.058395274706190894,0.05600964298268813,0.04458153437433723,0.025590368746155806,0.0062892663148918625,-0.008625517710688377,-0.018866725182273822,-0.025408754414231252,-0.02982805707033212,-0.03330819199581806,-0.03745479720701212,-0.04395227374776848,-0.05405247559728982,-0.06958425869429694,-0.09650751961236642,-0.14130176567222263,-0.17949008040456638,-0.19239886360190264,-0.20255603071018155,-0.21132720711597616,-0.19847527166806575,-0.16263806500616845,-0.13802574030075546,-0.14215542266507838,-0.1725645024468422,-0.16690961340282084,-0.13037421640455632,-0.11438284921825032,-0.11534478294426213,-0.12841227638769181,-0.15111718930868878,-0.18224178011255965,-0.22451580023652504,-0.28121444049807137,-0.3375336982939599,-0.35900833404662563,-0.3426869751879117,-0.2950797224655737,-0.22405895819137633,-0.16044804203926974,-0.12269261114543305,-0.10867238427317637,-0.10535730246376823,-0.06584936513995934,-0.007294497219624167,0.028651147079481586,0.05294503910188393,0.07418964512782576,0.10070346544957762,0.13965818388700618,0.17796560245093943,0.17057684013644067,0.13220460112118657,0.09793955941094899,0.07298043018588334,0.05592889383379835,0.04729169006684843,0.050166840815915346,0.07115164663875223,0.11847951009576498,0.2027204085966691,0.3294800343184562,0.48153294612213926,0.5869747036874964,0.5489661983689066,0.41124162129270075,0.2795409562111685,0.1875523606132504,0.1423444472997821,0.14789836945576948,0.1887765840983256,0.23873159665171845,0.2789419841320918,0.30230816550774836,0.3199757675018552,0.3485302289261063,0.39564666750163036,0.4397547423146628,0.4442626657069935,0.40466175215037115,0.3419752243582963,0.26724741879082264,0.18995322894749214,0.12856380360176556,0.09614353222128234,0.09090867974824077,0.09371013946482164,0.08229341340504208,0.031214949822311534,-0.07160413566178396,-0.21002635612069495,-0.34411156369276535,-0.44588963755786687,-0.5093961353898923,-0.4723214452419938,-0.28198318557990887,-0.17387082104180634,-0.15883287604325272,-0.18234535067187344,-0.2021572011748214,-0.18785620267512776,-0.1506509806613305,-0.11438810602371385,-0.08624072245061204,-0.06488212850610134,-0.04718343474667403,-0.033440386623269036,-0.02690251971705483,-0.03077575278479879,-0.04582765037394963,-0.07108447699562354,-0.10659306962806368,-0.15683077212639288,-0.23041018431011265,-0.32300843809521634,-0.36365761969066623,-0.3213586135555146,-0.2660536652153047,-0.22307059795357642,-0.19555903395240964,-0.183587832994615,-0.18120307756399648,-0.17796435761304252,-0.17074544001517492,-0.1601849591459283,-0.1457050798935542,-0.12930284350661653,-0.11592981504873248,-0.10556514067173492,-0.07972013832093695,-0.03599143403873743,-0.0021534406860506013,0.018184722294148224,0.03329413054280123,0.04832993752699531,0.06595430046073845,0.0886555172769067,0.12048528394831251,0.16792812877164134,0.24628280637094896,0.36394245161579863,0.3832167388542079,0.29776545181464387,0.256466691164107,0.25486357286827,0.27463050667890093,0.2984841733249579,0.30668161982435144,0.28328790818661914,0.22720477829938163,0.1576985057825746,0.11093884669498177,0.11394376456585072,0.186782726811853,0.295604556341808,0.35472115870376025,0.37879467034349124,0.3996144655740021,0.42251230555393493,0.4104439415466736,0.28596056678644394,0.12965404550058204,0.028333196401249882,-0.0353504468082589,-0.08332584757254011,-0.12920137496865003,-0.1914567275777584,-0.30414061580005813,-0.46743058919544966,-0.47351769752806255,-0.37893609105821624,-0.302239128277606,-0.24200212364619123,-0.19125034958130363,-0.1517542961174152,-0.12482906119247529,-0.10828781509068136,-0.09705470309926881,-0.0802888977371083,-0.05427856028492319,-0.025164154877640017,0.00456853657850775,0.03754121895446695,0.0733848998308922,0.09693524110620765,0.09712136618281277,0.08767525761792495,0.07683898612942866,0.07036435645992466,0.06254510108467401,0.04842256706065491,0.030997142685961925,0.015672992584840905,0.003301802837238431,-0.011063899700525901,-0.030722219003875267,-0.0205146089570636,-0.009725927042779752,-0.007687357041138974,-0.009587766804796402,-0.011577301147944183,-0.011994785047338969,-0.0095052239058122,-0.003945859367943525,0.002549317766285555,0.008394666620298802,0.015894371521715266,0.021463180920211277,-0.0020227214391187764,-0.0264235772223885,-0.03888767242620381,-0.04777266963706526,-0.05653832418091429,-0.0684828992810047,-0.0813925495679343,-0.0925168753705914,-0.09748616498659966,-0.0945371114371576,-0.08613365686919416,-0.07764418683783024,-0.07126578864352064,-0.06752685783920293,-0.051209002507678694,-0.03271741671175239,-0.026480344950102517,-0.028033869301450437,-0.036944523050385175,-0.0563763640615794,-0.07763797226115199,-0.07611977925863879,-0.058624324206526475,-0.04514088161173974,-0.03832556089510521,-0.03695846270078786,-0.03973508096723508,-0.04625257556725623,-0.05832087768423302,-0.07361250695257014,-0.08448404531614322,-0.07406836392712803,-0.026578287578524807,0.05054215183484592,0.11558901914908881,0.1428837177340714,0.13769623299459222,0.11674725182021163,0.0893798080431636,0.0593600159685699,0.02816780956725051,8.59275296473999e-05,-0.021951752447052084,-0.041250461367570206,-0.0564633214036517,-0.06712737992012666,-0.074052744049602,-0.0791181403434296,-0.08367967491158382,-0.08878002834217691,-0.06829352426256087,0.006773311911684808,0.03115710293959721,0.027951188992802314,0.00877126492755405,-0.03774743159890719,-0.09485506037815052,-0.08450392074011404,-0.07255355659269254,-0.06807054235472099,-0.06806983162883062,-0.07085177826720757,-0.07630490478034636,-0.08651939755132776,-0.10949459276941333,-0.17134185221256856,-0.24643764669800142,-0.13259986776242283,-0.07900744331850862,-0.05663204231038313,-0.046970600460729574,-0.039881771030321686,-0.032207547643018655,-0.02510398310888234,-0.014010277230510675,0.006563955797734237,0.04963533996295163,0.12301245851372658,0.2045363880228491,0.27851583411334757,0.3366436263688258,0.29082031414842524,0.2120292239134099,0.16311286424061294,0.13240689253039345,0.11204361525256387,0.09989482686909439,0.09539811391252156,0.10089393703247568,0.1266923406242625,0.19977913581638465,0.3368348926266936,0.3525877541169443,0.29980868127552207,0.27022559381931754,0.25115170331715286,0.2258765198841893,0.18637632632080472,0.1339525145896544,0.07617186234440078,0.022606763564599577,-0.019932005600898507,-0.048604111908744876,-0.0638056365055045,-0.06869525545259185,-0.06675515595246662,-0.06241729971644913,-0.06432638749008954,-0.08941742476819432,-0.11984118850334563,-0.0764867359451645,-0.041571412316838814,-0.020320598083440004,-0.006752823635881374,0.0030609570228338164,0.010537721368026108,0.01626992969439453,0.021543299150126274,0.028866119953807844,0.04049819818449553,0.06177575059438464,0.09543223681490096,0.10686251775378651,0.09670725864249849,0.09221257568436216,0.09339196064090528,0.09577572404392333,0.09455356151252729,0.08509243524631435,0.06141001623699369,0.02226781338196593,-0.02069536199837468,-0.0464580928088274,-0.049949612777211154,-0.04378606270351618,-0.041078141132121694,-0.043614825057123593,-0.046493808299069954,-0.04875184638117314,-0.05195252431775098,-0.058739542804794834,-0.07206884854337228,-0.09446506531579808,-0.12690265530943395,-0.15127948351398832,-0.14877273851627776,-0.13465254668431073,-0.12319978727494679,-0.11647662750988692,-0.11274705856515031,-0.11104751911342933,-0.11221099589345315,-0.11684719227698778,-0.1256547173086422,-0.13827387746038244,-0.1555135667893649,-0.17824684428416016,-0.20838179187932096,-0.24341179915508354,-0.2765305042751975,-0.2935852367870054,-0.2776734089728079,-0.21227087547942244,-0.10104770250662623,0.01948826071044662,0.10725843292149301,0.14932423750325366,0.14211740386950542,0.09467542491434328,0.05589541443574324,0.051101716698704884,0.06624476341564281,0.08691496441610695,0.10234580083190853,0.1068568348766012,0.10099550244254527,0.09404634488277974,0.09681800209573314,0.11550830919528852,0.14592158923094634,0.1700303837620766,0.17528272664768857,0.16818713426708173,0.15383729338185803,0.1336689967633903,0.1080109391663836,0.08049261049454602,0.056931774714500616,0.03874614105107131,0.024023757137292934,0.008916595145942872,-0.0096191502239364,-0.02858731102365763,-0.019163245469237786,0.006570135905001383,0.022766657151849112,0.03215012784946435,0.039255954305102155,0.04381033169901593,0.045474263961484386,0.041700100467643116,0.029820508037786523,0.009209212642797912,-0.010819790480756207,-0.016463101893318496,-0.003103776836030522,0.025884626310235182,0.06357628015651058,0.10794863130053947,0.15254743682730718,0.1136641915125353,0.04605713268191645,0.017773873276360194,0.00849588252887544,0.006730800667925837,0.008878476037259534,0.013170191900368784,0.018737804385273636,0.023862467459917894,0.027046847378188955,0.027265888869963374,0.023015246480521043,0.012874577618769065,-0.003935069922795347,-0.024981531006638583,-0.045270915105491874,-0.05959399004615738,-0.06464907040641839,-0.057783301482591025,-0.031457119062376436,0.02298776050432514,0.08399719098054817,0.05952600671391278,-0.0018341418669071798,-0.053436611348019754,-0.09073861945983416,-0.11542282836959794,-0.13128858163165452,-0.14198975965420907,-0.15019493210671933,-0.15731546741319663,-0.16260944503859665,-0.16201232941389831,-0.15057010210539895,-0.12373373339148193,-0.08519129897925087,-0.050586174684140256,-0.025969028542201015,-0.008410449332828723,0.00579682135369396,0.016867337525957465,0.021900935992732108,0.01933139427766692,0.01095945876704029,-2.6771811595235185e-05,-0.007991320401432253,-0.0017766743503926901,0.040170779774841354,0.11787324399766001,0.15895157739942126,0.15844748700331712,0.15386769773003534,0.15615066665883254,0.16739690046148328,0.176842017974085,0.1773811908289577,0.16165067313577286,0.1271025275645977,0.08009257160664957,0.0544596776755237,0.04592505138366639,0.04552630061312064,0.050993256988436264,0.06526238157100556,0.09872340700401878,0.20289029876601505,0.36717369559798435,0.13635820189014095,0.07390235163585653,0.046229454742340366,0.027816211308533154,0.011201164791848095,-0.0072475470099671035,-0.029848394367030875,-0.05622876376523026,-0.08671771237492024,-0.12292533373607989,-0.16629122645107913,-0.21765622211835986,-0.2758996358822263,-0.33888936453442625,-0.4083694726355025,-0.4896790630635391,-0.44319627302585624,-0.1390239280007509,0.018829317486334304,0.0730705719499504,0.0832110601548668,0.07443192465148629,0.054880460704707826,0.021377364869598743,-0.04325900802805384,-0.20601720306671664,-0.24202522574735635,-0.16189714109857783,-0.13263172286964642,-0.13421837904846282,-0.16845090118695996,-0.23068244945758912,-0.2670232649200861,-0.2422795778074853,-0.19789132671773513,-0.15963237954144038,-0.13194575921661347,-0.11110743384798677,-0.09297073374851733,-0.0748102613002437,-0.056259926662798915,-0.04217287026374171,-0.03720611517043514,-0.04072187035921949,-0.04730895373468871,-0.04865790198743251,-0.03998911434540542,-0.031134059034330325,-0.022329912243552484,-0.0034332852476963924,0.03780438454935603,0.10081695393252843,0.18631666407011072,0.30835006729783476,0.4901681681875503,0.677920899867988,0.6457468632373247,0.45567410255985225,0.29470279513698766,0.1934524622546083,0.13502240163350082,0.10440402809427418,0.09062649419054306,0.08920603234234623,0.10292424808399597,0.1443107579120259,0.2533057368115772,0.49654825540796804,0.4960493418941747,0.38244623008233997,0.3435472228311585,0.3345714837948879,0.33985176246910664,0.344749380059582,0.33475144073473784,0.3025663720561708,0.2531569188560536,0.19572318723192111,0.13616736603890034,0.07878010700478427,0.02537140340825012,-0.0256148623768468,-0.07625485866747084,-0.12537310233791776,-0.1690585219842802,-0.19863022624520615,-0.20774819666076083,-0.19671038401187654,-0.16926238275660202,-0.12791526079534085,-0.0760563709691703,-0.03219370078909622,-0.009870246933788107,0.0008464110380469417,0.010917163766585237,0.024629904911680375,0.04496018907191457,0.07866169539814687,0.13594484325540507,0.21765604385730558,0.2757486629947854,0.2779856134569765,0.2601842051192442,0.22123048675115034,0.12964094443973467,-0.003387877070736866,-0.0999811772111307,-0.1438358293408858,-0.15664232963647806,-0.15264108340793398,-0.14182057242470894,-0.13150467699256962,-0.12435922781067288,-0.12077361618461067,-0.12093296137500244,-0.12447836848099227,-0.1262902419083304,-0.1221511379490335,-0.11048157153121516,-0.09147769447070328,-0.06456269982877406,-0.030646089860983126,-0.0041144200702810515,0.0016991379296781843,-0.010870161631613365,-0.03677447589914504,-0.07170388328265404,-0.11122759493789344,-0.14904402843380904,-0.16973502383667313,-0.16084223028341113,-0.1323243585551101,-0.10238937679388807,-0.08058929210481616,-0.06919868515816144,-0.06174528658718939,-0.04310049899839044,0.0032912676339096015,0.05574663135216341,0.08842868065893561,0.11213206569127163,0.13619080921395454,0.1783787178119158,0.28175154005032593,0.1992140629687976,0.10651312724646152,0.08303823766412458,0.08163007202403914,0.08747120253709381,0.09545366434629457,0.10439050596039523,0.11632819224069808,0.12984809651873097,0.14139608112253071,0.1433586563352096,0.1403773046967852,0.1391532118278415,0.13374457414019875,0.1078399290748281,0.06324369194030284,0.021697528441239997,-0.006533903144529107,-0.023255648522116118,-0.030532899617227684,-0.028620241923408007,-0.018166568443789156,-0.004929501440407163,0.005395569287091299,0.010199321070343865,0.011530779607616315,0.013881542130383883,0.01581200006703256,0.013057491192785205,0.005466131929255607,-0.009188792523398949,-0.03311402726302005,-0.09209928995509717,-0.22789322012342372,-0.0860978437624662,-0.04880161694058532,-0.03597766633550382,-0.03194803336015275,-0.03130302762420586,-0.0292581227181091,-0.01824911579559697,0.005208629886011053,0.028249798376905316,0.028481297561045275,-0.016394779450054197,-0.09846328133519194,-0.18043997828302322,-0.21568054438701886,-0.1973388821321021,-0.15715656994578556,-0.11672451864819224,-0.08431143597866168,-0.059968421005679604,-0.041375191633026276,-0.026859585460620946,-0.012858987688103148,0.006236797034013655,0.029082915463477195,0.039279149801297736,0.04279176411568567,0.04458327950235347,0.04450062960764464,0.04252314511146084,0.037239700892825904,0.031216051082486995,0.03300411029991393,0.05110517684182715,0.08810947153898241,0.10768576612338558,0.10441708080219125,0.10390057066920802,0.11214306405286323,0.13232965455031848,0.17055411776598123,0.23757760176433904,0.33899120531283594,0.43517845345237965,0.47721694878961124,0.47342075245274284,0.43590302996585034,0.35017039705174485,0.23305495754704142,0.13976185489362522,0.09380516031933663,0.07878869316617376,0.07597969136261945,0.07840817408500815,0.08295199846423118,0.08449024568270025,0.07677994928373578,0.05873548210930141,0.0364768750162943,0.020460812514660153,0.01714285971870843,0.02814982165681164,0.05210728476997531,0.08166649489574848,0.09877586168065021,0.09275658020803641,0.06191661097934376,0.018070882582395694,-0.01592655732624075,-0.02908499010452166,-0.03529517848775735,-0.04322267743866221,-0.049098720190700405,-0.0442306619269929,-0.020945412473193897,0.03132051879732116,0.1285259277663921,0.2723889905725773,0.35184552108751554,0.29676375261364657,0.18680999988096336,0.07027174611408109,-0.030766196983551618,-0.12984426643107624,-0.2547122195452783,-0.42697141784104664,-0.6189012348030067,-0.7495443938836948,-0.7794007796718535,-0.7239719650713378,-0.6116372247877534,-0.4692387537311752,-0.3260566556315419,-0.217919131304165,-0.17757716160009498,-0.21367587605310417,-0.289006347869287,-0.3590293081310572,-0.40787570651829214,-0.44344470938348335,-0.46409675329205374,-0.45773174804460137,-0.42129904220332026,-0.3632229223812455,-0.2970592137300863,-0.24852143373392355,-0.23790344528252713,-0.27528044256140455,-0.35905486730716485,-0.4500298573685231,-0.4653797273983789,-0.39351385967007335,-0.2918273316310375,-0.19439234929054328,-0.10976219036017572,-0.04139558701493954,0.008954313010842088,0.0419502731362282,0.06061090353474022,0.06883947626090468,0.07211822532941632,0.07789542809031874,0.0959447961431497,0.12238981764226155,0.11422282075713812,0.08924616263262439,0.06951873137711377,0.05672086881385966,0.05514734308996939,0.058574113812742856,0.06090849868971131,0.06316067440548359,0.06935663313314325,0.08282502143087171,0.08799381590952055,0.08322414867281278,0.07923067797490765,0.07656891436506325,0.06990413526638439,0.06175441858699051,0.05539917407978812,0.05369357942659172,0.061776806156091005,0.07254053027436856,0.08127829192782232,0.08374069485101078,0.08028366061752419,0.07909472835050323,0.09587793253411567,0.12752410720611437,0.08969773990457604,0.059490471120311965,0.04594172504451775,0.04101879199996501,0.03645793868468097,0.03163085974506857,0.022054501123149627,-0.002417642345769647,-0.05472011046507692,-0.1276096019951102,-0.20263272698283616,-0.2787024832452316,-0.3464666818289018,-0.3918822431971647,-0.41812453696874957,-0.4055998162418808,-0.3446357311052993,-0.28287473127648016,-0.24063685038677624,-0.209987779945299,-0.18188908564805104,-0.15283241869197345,-0.12529576048494023,-0.10492326167951385,-0.09601831524587405,-0.10030695784810614,-0.1163169619553602,-0.13984418117761538,-0.16273859353714287,-0.17327861702625388,-0.16306366258202498,-0.13176660450841263,-0.09073618156421162,-0.052708260602637495,-0.024349415617837728,-0.013502604777403704,-0.03712814750347682,-0.10370039572905475,-0.1678292396063503,-0.19140927386007914,-0.19150861626059293,-0.17907090837279682,-0.15553282575360503,-0.12116306404901711,-0.08383582334476745,-0.0549220486805836,-0.03491610338761019,-0.01993302371937156,-0.006827648693406385,0.006229041886606386,0.017931996304986528,0.02679537359499219,0.035874948697781996,0.05257597979745942,0.09136660420490235,0.1470181392937855,0.1279349804651495,0.08550179781590132,0.06036814509063349,0.048774018174535194,0.04815896261724232,0.05940779416527421,0.08429747953446572,0.11905367716021528,0.15187314613710357,0.17046107901627797,0.1756537593895725,0.17441918993902508,0.16990018462836154,0.15898575253125585,0.14269074532660328,0.1269193875224763,0.11803321261446761,0.116048799438255,0.11753021507158073,0.12229043999085629,0.1332024763204071,0.15787111052003994,0.21283200107790276,0.31721786459207113,0.29222580310313134,0.15854184941012744,0.0896075099471113,0.05671569090600426,0.04577083095616653,0.04758363845057563,0.048734269666720426,0.040445668692707694,0.0273085238849871,0.012158065126202294,-0.006169611992952834,-0.03231161846187935,-0.07429018325613937,-0.14530750142705484,-0.26732522741620957,-0.34305455072834223,-0.2879908899288316,-0.25981637591044077,-0.2688502055639713,-0.29320599078779375,-0.3158325951243768,-0.33336687494006606,-0.3485881850822166,-0.356998600335251,-0.3449163022425671,-0.31156431368168785,-0.2848322693902396,-0.28159528251319804,-0.3090331185907712,-0.35662884682650975,-0.35604061887681127,-0.3035095309371132,-0.2595168534177921,-0.22797735312725584,-0.19834815891159732,-0.16012186244727725,-0.10783292301685365,-0.05671600561559619,-0.025203017382921904,-0.004172049825864064,0.017216615656694797,0.04052278831674279,0.06376862802984343,0.08275465451058385,0.09668658858550441,0.11055528027438705,0.14367500419498921,0.22989290796970174,0.38865933452131624,0.4461051606430616,0.3686900800950211,0.32127503060586415,0.30700656023396505,0.306919775085318,0.30313612506075927,0.2835091248375679,0.24716068201057512,0.20495125280794205,0.1703048642669967,0.1525183650425945,0.15670679903936144,0.1870700987484124,0.253330324365626,0.30580600894959564,0.2839636011384692,0.23696562385825176,0.22339280464180616,0.27068166071317884,0.3417515232356894,0.33928062240973395,0.3104906849480651,0.29079849045775574,0.2775109576887721,0.2685306913416909,0.26006372709638154,0.2483316110535918,0.22614616959855857,0.20410089574939302,0.1846181825679231,0.14959333916249246,0.10057951906959327,0.05793446142972987,0.024169795543569735,-0.0074263905976017066,-0.0447340354614651,-0.09014779774771173,-0.14367328332449428,-0.1944183745741829,-0.21317179330179725,-0.1858408517397803,-0.14333631226734211,-0.10857655688495076,-0.07937134567079393,-0.04904011930052107,-0.018603029548645476,0.0020217222228779666,0.0063201689792299716,-0.0024377091679547605,-0.018241091463000552,-0.037040651902237064,-0.05590002892548573,-0.07400128079403392,-0.09062147527528905,-0.10677847131850272,-0.1244061892166782,-0.14722324185575048,-0.1691939635840247,-0.07946083984394298,0.003176436706425136,0.0279242456067219,0.03344036877532914,0.031141020315008823,0.024396299560196486,0.013500027484421235,0.000293071211855564,-0.01165832565055403,-0.018289388005422156,-0.016961273532865306,-0.004359593086297209,0.017361102388918876,0.03588925429458821,0.038618352526827195,0.026357305661261564,0.009057987271739412,-0.0015161554560548956,0.009304830273269586,0.05059557548854014,0.11023033614569484,0.1664858574514118,0.2056493455823316,0.22833664665453104,0.23869054416142874,0.23841103749989995,0.22401335429711514,0.19169664339073864,0.14123590861483867,0.0815946558257152,0.03181995889742501,0.00528312599363028,-0.0037846657004465723,-0.007702368726584961,-0.012994335635523947,-0.019337068302028845,-0.02140570218044523,-0.016403481838766627,-0.004096561927235855,0.018000077281269462,0.05835955551411144,0.1324276084687993,0.16787363178363784,0.14084640037151575,0.12180555324619297,0.1092231477392739,0.09773585043216818,0.08705733319655629,0.07809053537224965,0.06962135180755512,0.058648211609862666,0.04438441749003249,0.02439112396296446,-0.00822653641524798,-0.028345959596821183,-0.0202294542686715,-0.006067071964126798,0.008929967860193799,0.01776850402984499,0.016903578813347832,0.008468567634865485,-0.002529624179347176,-0.015561791840859715,-0.03228516220788008,-0.053527376800384135,-0.0767448509631664,-0.09922553376067729,-0.11421194974305658,-0.11944942474266389,-0.11805715864228457,-0.12341529707350976,-0.14431284900187327,-0.17613470853635899,-0.2094515813870042,-0.23827077318988416,-0.2596737281292766,-0.2735939300073876,-0.27903348279338863,-0.27837541993974063,-0.27541131591520207,-0.2733982021747975,-0.267380280463575,-0.2551326860027063,-0.23752595366623863,-0.2141885649232798,-0.18814217830241015,-0.17145013738982862,-0.17504248596804511,-0.1998181604468625,-0.23237216095707927,-0.24243014943793004,-0.2179980354618475,-0.17627703504932482,-0.1325950796600778,-0.08933623829779305,-0.03812710125829842,0.012466707876152868,0.035869760355024635,0.035426527946987696,0.027759165360518142,0.022480153310897328,0.023620799158241203,0.03179161500294305,0.04642727914439028,0.07022785081805494,0.10745696100996228,0.15434054661737723,0.18261525863479305,0.1708520515488688,0.13993147698016978,0.11029884576197542,0.08673732609646818,0.07106540475187263,0.06697408708852716,0.08492026731508498,0.11646729913099342,0.13530308414116587,0.15056226024940095,0.16470170744144288,0.17004014246758775,0.1594490500495641,0.13476796481606967,0.10662792812158634,0.08654508284922055,0.0764655976398974,0.07511832996608572,0.08135627573146227,0.096707332701589,0.12292696932790978,0.16947262327433515,0.32228774571153646,0.2644125804445682,0.08069314495211927,0.0348502715044184,0.014566852603516594,0.001212106436892828,-0.012013747024325585,-0.031397312620095305,-0.05989396291263443,0.012249196951805982,0.03714895198876805,0.05313083810718996,0.059778529711392324,0.04694730871257921,0.002815125156963466,-0.08173164157446196,-0.1847609637877169,-0.2146856321448433,-0.17080426642263488,-0.12518913847401475,-0.09442448615121962,-0.07191590779044879,-0.052755308579245035,-0.035276786563282765,-0.019939078533604195,-0.007787496206245218,0.0016316341223196595,0.00977006847041377,0.01804421411173111,0.02723699619958962,0.03506786295516124,0.03551282518670242,0.0197774259574041,-0.030883437462744204,-0.15877979516487317,-0.18612296233500913,-0.12617790027362175,-0.0892831629093375,-0.0707271892831228,-0.061742770545452616,-0.0547186957713179,-0.04572973271668072,-0.037398828949249834,-0.03403975546453738,-0.03744617589806742,-0.046730143452329585,-0.05823658179998615,-0.06657195444240693,-0.06491982512762202,-0.05074231529858839,-0.022888220619222913,0.023250761615045967,0.10948294752192787,0.21247955379999345,0.23213073111573412,0.20035194556165234,0.14935992600223988,0.10193447818444647,0.0706115049427463,0.058751680763580276,0.0638053210820975,0.08360290043371935,0.11446655120663964,0.15046622642532922,0.1754157530053451,0.16522734046244653,0.11644957128570116,0.05303434856899046,-0.0027581210425561453,-0.033679944899257755,-0.03680953458811845,-0.01973820700687163,0.009269709426055216,0.03045553016560358,0.011218161133567226,-0.03386949680044598,-0.06366508322359556,-0.0792539146271016,-0.09096664289871674,-0.10164492912364247,-0.11151109366018798,-0.12122945771214359,-0.1270413054218037,-0.1260247283958537,-0.11397396391777993,-0.09147892721861615,-0.06030232091056946,-0.027640530235815825,-0.001278103388325253,0.015630708157702292,0.024115762788290425,0.02888268077000437,0.03209979960767581,0.03304350225575764,0.03278459863816148,0.032976185463946164,0.03530833922323294,0.04058463879544922,0.04760381848584817,0.05366539771924001,0.05772743475412576,0.06369673163615645,0.06744763568472745,0.06481343043001359,0.06062933650374416,0.04882899327248006,0.015332942462706674,-0.049697778647202304,-0.13187950081598948,-0.20491276542583609,-0.26986649859567463,-0.33219345377700954,-0.3680801515388492,-0.33613710235665767,-0.26539744047525043,-0.2075765146536322,-0.17385191026656022,-0.15902338560838428,-0.15652824119214115,-0.16321677567847542,-0.17284216048171594,-0.17105342300983556,-0.1328421149550883,-0.06250930389931651,0.0024257242654156805,0.05235150238295701,0.08779425164906776,0.10882842329756336,0.11264313668273096,0.10790868321960045,0.10694874088104045,0.11496604435181644,0.12547488434984605,0.11433243192909727,0.07776153361505858,0.042980326661575856,0.023420992206496873,0.018574847969790878,0.024254527913966466,0.033660189326238966,0.03988232483299029,0.04667587883578017,0.05643448487259371,0.06643908038575799,0.07238641418687554,0.06999420326053632,0.06124513078907451,0.050900040623361016,0.04177740042875516,0.03165887811876974,0.02092878672619291,0.01391661558075519,0.016148406611450346,0.032193636022963115,0.05245199479405927,0.05971548949107562,0.05388240998301605,0.041171301838831574,0.023394747838359355,0.0004510211286464693,-0.020803986992238392,-0.028103295881060125,-0.01595673182788181,0.008189436860894194,0.03742981061392529,0.06874089780874135,0.09938991237978421,0.12378156893952097,0.1352579909473193,0.10729308441909652,-0.05697974666411944,-0.14084402604496582,-0.16360360509280303,-0.1794845169674988,-0.20321494242660984,-0.23727945897936703,-0.25576856581990676,-0.23170255482614585,-0.19964328684745222,-0.18791802989826423,-0.20109926122423435,-0.18671243268562784,-0.11324189050243752,-0.0687839218770378,-0.04569006579763811,-0.03183017664205542,-0.02253315749908704,-0.01650988132457447,-0.015118034167084288,-0.021296195436597897,-0.016531175612693374,-0.00176494192413574,0.010548229443785664,0.024584848516291037,0.04183579470814312,0.06357076035357645,0.09044908214879806,0.11890297098608234,0.13843750899666094,0.14048649658022375,0.12868446167259562,0.1091573825915619,0.08671448209685,0.0636485674109788,0.044149678467209796,0.03100244669896929,0.02461458655359967,0.02710271195051097,0.04754850872959802,0.10038724087173594,0.1776305072600118,0.2530165203619663,0.31587296298336365,0.31793826770592826,0.21016994622930357,0.09665049295374777,0.02877889296946965,-0.005104629236596681,-0.017705426283938012,-0.016784674895964587,-0.008350265264328105,0.0012714629145500935,0.002657979292779737,-0.015254416059252651,-0.05052518159658336,-0.08417112522595727,-0.09976907193469553,-0.09536919135793508,-0.07046069149482746,-0.032705886718947454,-0.0022635351110583653,0.01734979096478561,0.034646767204457606,0.05777505517079469,0.07830575942421167,0.07689898526845594,0.07115597650614024,0.07563286756834398,0.10179303060672641,0.21126640634298152,0.49925574137651674,0.1791436497815201,0.12844270639364408,0.11735642512954986,0.11873015881484972,0.12292269299505001,0.12319908400654156,0.11766593488465092,0.11129129441764189,0.10976254920590624,0.12136835690583601,0.14620829425374554,0.09371413941356224,0.06639674193687396,0.056994152706494265,0.046030311827542816,0.025051791429320593,-0.007619456990814355,-0.04823260384379101,-0.09225451083978001,-0.14086420299655578,-0.2032292084991453,-0.2789715348222583,-0.32785484562206113,-0.3289120085574461,-0.32183607340399184,-0.33353691651016454,-0.36748601459718727,-0.39023157165257366,-0.33114792237241814,-0.24042929718284511,-0.18682466033073933,-0.16767101232820966,-0.17036944249529162,-0.18804038983636015,-0.21742220076621757,-0.2531581048549332,-0.2839520220789736,-0.29542407336212995,-0.28356205228784687,-0.25671423571106966,-0.22466594984067284,-0.19485984287610417,-0.1727464730593864,-0.15790150829607982,-0.14704005866412198,-0.13751841740172224,-0.1282259393486478,-0.11764940308820143,-0.10340938885568109,-0.08221406352410758,-0.05554465021796346,-0.02849211078597265,-0.0053750884407776055,0.013918618503675822,0.033764081777755424,0.05246148433144331,0.06486424885524032,0.0707014907354059,0.07212521522392132,0.07181122406951779,0.07275224211228833,0.07816190392879555,0.09178344548976088,0.12086743302680429,0.1800580729123891,0.28476464253760386,0.3490328716965662,0.2687984523956993,0.18927233447814779,0.1371639067062348,0.10177927907793627,0.0766113017130463,0.059324821820300085,0.05155483684076649,0.0591621613171821,0.09191699506115171,0.153905605323684,0.18248704348168143,0.1658801403813846,0.14859165582123404,0.13591243430615074,0.1263843897657367,0.1190830805215326,0.11682866955256639,0.12290371678181063,0.1172187561377203,0.05640767158012855,0.013783211491979842,-0.008719291978711331,-0.026672997972152376,-0.048082200567515124,-0.08426037895606228,-0.1719786476036556,-0.25353271365098395,-0.18942147172131332,-0.16755651897104704,-0.1636153609629821,-0.16279703251743874,-0.16095878739244102,-0.1562119263954516,-0.1463930394248597,-0.13161698108493253,-0.11752923462450562,-0.10695691247808646,-0.11177561129571302,-0.14663083112555253,-0.21497137271591904,-0.2796185992588038,-0.2956001192873788,-0.2853000139617624,-0.2749868587064161,-0.27350574892975765,-0.27850674521516716,-0.27914260602423707,-0.256873857254727,-0.2056776508962245,-0.15846372022637997,-0.12837432522566408,-0.10904272051066918,-0.09042865144281227,-0.062074644633573914,-0.02194450175199088,0.0156198640544735,0.038594024190537306,0.048281221049036864,0.050730619129565696,0.05089501539868942,0.052155804065332094,0.05437242729959561,0.05573515467409366,0.05583337731028159,0.0574892418567721,0.06446106931440317,0.07791952731442191,0.09155432569494032,0.09202256241229324,0.08273587821972204,0.07208748162858579,0.06288802059070725,0.055859512082187805,0.052426242400838215,0.053781638300811514,0.05632662924495333,0.05401753781595321,0.04611330340128596,0.03997019509476239,0.03475073184605827,0.028541233724737065,0.023104080790644764,0.019153937816618515,0.016698398820209417,0.015069035168604797,0.013653360876574892,0.011758385104163376,0.008661797359643121,0.005055845613336449,0.0018521136692590927,-0.0005915334076586066,-0.004240182054971352,-0.014120901815235787,-0.0429205524132202,-0.1491779293066567,-0.18602626478497125,-0.10743813699812409,-0.07279784828561602,-0.05016310229096672,-0.0330568884275291,-0.022596498529824677,-0.017056842409762667,-0.013755279310439504,-0.009511139605437669,-0.0026939760740827983,0.004873012270614529,0.01016084772911505,0.011023690520355305,0.006015583977143397,-0.004376703040364429,-0.0172716817515008,-0.029312592971639774,-0.03853479299927088,-0.044196584288191336,-0.045432356369685824,-0.04198000489550874,-0.03665029375911954,-0.03665088303969575,-0.052253491299621535,-0.09314588082165379,-0.14836438195311727,-0.17442515239292813,-0.17538737856816194,-0.16341912735560596,-0.13927653664423262,-0.11133511368530412,-0.09532289783332508,-0.09802736638275472,-0.11748920125197919,-0.14227742674392194,-0.15583586112649114,-0.14560564779828536,-0.11515038599707962,-0.07894706592291355,-0.047318776520745794,-0.02440065359431531,-0.010289306621913427,-0.004056199052271879,-0.0020940134602435404,0.0005216874419286668,0.005662488455849781,0.013773705836950765,0.02333358999813325,0.0335810158507026,0.042961624851935803,0.0536092971519676,0.07004724348716831,0.09449956582356339,0.13143576226631104,0.1898412492198925,0.2407747839857124,0.1507138490627674,0.08765914176950235,0.07692225269150169,0.08151932848336922,0.09051300978489128,0.10001891036573729,0.10621286207192471,0.1069632859528108,0.12257370333144206,0.12795229293374838,0.11546571274144826,0.08800640479405078,0.05960281498580692,0.038871726441881006,0.0256188984730615,0.0178997341847856,0.01269240567936686,0.009810094520808051,0.010841902790469994,0.01676569752091992,0.02288627125137768,0.0245856645152624,0.02049517894619105,0.010939707372359638,-0.0033860484602530787,-0.022271674269937473,-0.04637215361224238,-0.07337422503334058,-0.08437403398438319,-0.07068513076965738,-0.05314591851559595,-0.04728811802070345,-0.03935895886365979,-0.030869923780944535,-0.025680782667741705,-0.024543568323924844,-0.0266524781349896,-0.029395485168453677,-0.030553754216023767,-0.028379044197733388,-0.02376601146649856,-0.01713641743269213,-0.01316219012575155,-0.017763724754520503,-0.05147971401189073,-0.19794822668693482,-0.19630398875894423,-0.15110888466000974,-0.14015416953474535,-0.1412128357650245,-0.14872558894799834,-0.16062346248182532,-0.17267649831021312,-0.1784670800203467,-0.18043623673148584,-0.18424550058418018,-0.18679198517688175,-0.17881806020966823,-0.15801641639505518,-0.13300164572404963,-0.11271246315849348,-0.09890811121403693,-0.09240820957965738,-0.09164210671012453,-0.08670428545794388,-0.0690607005799355,-0.05663963550117968,-0.051387744509574465,-0.048035278155435054,-0.042468364082276625,-0.03469974296459469,-0.029785373234661554,-0.030970388556907504,-0.03633346437408444,-0.04515741664588683,-0.06025891673973632,-0.07916803310791429,-0.09559981876661386,-0.10401944808268285,-0.10292915577300513,-0.09419491621874178,-0.0758925154409849,-0.048082870365068246,-0.016916709194569644,0.011151693552243562,0.03602986812779082,0.06386675034309293,0.10563291336637576,0.1548996712278109,0.16563157836184733,0.1576910568411607,0.1578448319546052,0.1690815007823151,0.19598567962492336,0.26395269443880487,0.3968288761792135,0.22264923966018962,0.12558085284904077,0.1141436752885472,0.10086437135983661,0.08707282603477347,0.07457588920104365,0.07258298316290317,0.07850875460702397,0.06791641268726782,0.04883430349893213,0.034952885970186504,0.026726727999765224,0.02008511912290927,0.013675140561500234,0.008500257417937453,0.007786660401214397,0.015099824939730009,0.021819678466052986,0.01948849023961421,0.004471513041708542,-0.026471163132575748,-0.06289443144549553,-0.08777658416184261,-0.0939026842828712,-0.08663896634184264,-0.07602821766724685,-0.06920242760512565,-0.07084338884244591,-0.07722818675155836,-0.08449690506203854,-0.09796697387974523,-0.11414144063423931,-0.139664041479965,-0.1929748886203531,-0.3137673810854472,-0.3631890789941186,-0.21395334757392453,-0.1340213023586501,-0.08518231066900753,-0.04721478943485456,-0.02091460109244805,-0.007763651942450463,0.0015369319274934688,0.0066900496711775285,0.008734481098094153,0.009398112015245519,0.011720952222869471,0.021924027199807,0.05235396013174162,0.1433092426872638,0.12147302725961064,0.07231629024726448,0.05137780726801129,0.04049815099976802,0.03390575194415399,0.03010930804372265,0.02953589354050157,0.03625090919530471,0.0665428746458524,0.17815032924716004,0.11428632085610786,0.08998752870739533,0.08876320755103222,0.09351329689002763,0.09930861589345406,0.10431498698410133,0.10733402641751413,0.10966510676093275,0.11689962420497681,0.1366555285405351,0.16801797700614415,0.13540933515574993,0.0759425935532065,0.05242366895656362,0.04618013440098075,0.046292404475026916,0.04578638071734826,0.039272965815362985,0.024864795651610785,0.0038370782982161925,-0.016300746168420734,-0.02699279958114935,-0.026008260162889495,-0.019251573693726272,-0.011898825842593354,-0.006395587842613223,-0.0027383208145135038,-0.00039124799915973916,0.0019853126161226064,0.008253190356378408,0.020949163289949394,0.03622515157691314,0.04793957701420081,0.05274759302971726,0.051839785156785605,0.04831551935936627,0.0450646690364982,0.04168218452114554,0.03349137737776289,0.012146735785233495,-0.03021044552350486,-0.090831051106014,-0.16359030200024258,-0.2534726541435386,-0.3507897686017637,-0.43935589392857977,-0.5176328038939682,-0.5674311834751053,-0.5346263845927005,-0.42110390916595636,-0.31240949974142496,-0.24007271141256384,-0.19605649132568173,-0.1704216607038319,-0.1611861343837917,-0.18472329588178485,-0.29213763211788324,-0.1039065213184389,-0.03273340272229921,-0.00846166981049016,0.006436618855706721,0.022734832653424783,0.049846962415745245,0.09608567915842733,0.14545786094858265,0.15047761965429313,0.12433760121280596,0.09389612871270243,0.0654960010533592,0.043440139458451196,0.03361125197710573,0.04694802559982615,0.08358153879353405,0.11152313592288932,0.12619517689494916,0.12811340003963761,0.1081930756502545,0.06838161630995186,0.0245360314065913,-0.0102805982317646,-0.034568081260789904,-0.051774281704963024,-0.0646179326754426,-0.0726535440492896,-0.07032699544660057,-0.05716127275033388,-0.03513189404966657,-0.01075909505116876,0.007110433584733634,0.015643179385057486,0.018356761497552554,0.01967800084737135,0.023685815204713922,0.03266430946007302,0.049211738670807324,0.07526597420834186,0.11954957629196698,0.21529485555869468,0.3983691959963526,0.2525577101666333,0.15496685859996454,0.11378194689626886,0.10540271277493841,0.09243612437540735,0.07608887265388613,0.061855775639431836,0.05360931736981332,0.04143077171544656,0.02218785078334109,0.0005822245626077651,-0.011837247526324085,-0.00979528415203534,-0.0017090682727453632,-0.0038730317250472704,-0.024287865795159427,-0.06022938519376119,-0.10397646872189466,-0.14036582797930244,-0.15515030399852356,-0.14600730748502044,-0.14087738530827454,-0.18923257632884877,-0.3303907389482892,-0.5280539139833447,-0.620008149709431,-0.5925978846776311,-0.5415812200409612,-0.49580122123844006,-0.4544292799729405,-0.42133384107884225,-0.4132736938544275,-0.4722855409950434,-0.6555857117210991,-0.4967058253696733,-0.27971733297380336,-0.19400331746753904,-0.14903314967527065,-0.1182331440116472,-0.09644553342068389,-0.08199831723505528,-0.07159701369955965,-0.06560041397972777,-0.06648491194165233,-0.07235299504506292,-0.07687816169922794,-0.07197110250161631,-0.05676293897823062,-0.0368443544942469,-0.019511615647580954,-0.011123990100591664,-0.013876909898824447,-0.024468975138325567,-0.037204817457918204,-0.04566557504704753,-0.04464981932025257,-0.03423613543971781,-0.01855572748935286,-0.0012639564274685307,0.0185403214321699,0.04441795732524689,0.08272569802814758,0.13805448102902257,0.1750941817676568,0.15545089873671616,0.12622718433604194,0.11194105491244774,0.1175565925555132,0.12730894110993535,0.09787761783328633,0.06911773119818965,0.056529609945497536,0.06546365541236991,0.0733819644514021,0.07861826470402948,0.07990110183892432,0.07672016307309615,0.06947164615199723,0.058716057817285235,0.0457557794236302,0.04355712431099882,0.04164630427688063,0.046498689294831315,0.0713709570008477,0.1142427635114172,0.15292045260007464,0.1663368052528782,0.1522233955715145,0.11804239869076784,0.07477271969555813,0.030768925697790387,-0.008012200106721953,-0.03786482567886563,-0.0570864657667307,-0.06859209693391842,-0.07846975718936271,-0.09472891678175621,-0.12442707039310288,-0.17031683122200983,-0.21853555987272272,-0.24042429730025924,-0.22927861306640146,-0.19973585811425534,-0.16647667500462116,-0.13906393431896666,-0.12212834283483119,-0.11790330688918688,-0.12800267781855734,-0.15554329798849384,-0.19328037613301108,-0.18837052816229807,-0.14242625065946365,-0.10779399349897527,-0.08685245511426873,-0.07119513215099735,-0.055648948336673776,-0.04230661695694019,-0.04579689913731424,-0.0695035889723627,-0.0934475679411222,-0.10223318757637945,-0.09670948338632407,-0.08134800061568023,-0.06085193908278453,-0.039119423847613306,-0.01830088411445925,0.0010323118369502666,0.02240601680789071,0.06486348140506366,0.15361162149174576,0.05580222216319318,0.03093873474909233,0.019145055373298782,0.0119365740276513,0.00865964736064287,0.010752211391778475,0.019470820471731497,0.03403876329165897,0.05159291931931603,0.06988117158612474,0.08716723817952961,0.10179429306053239,0.11052790700662346,0.11489056082098965,0.12065390391131414,0.12692432753070418,0.13125590907601106,0.13365411126801466,0.133844575658258,0.13165077494578553,0.12887193615393275,0.12622390080777635,0.12562766879857828,0.12913491839341074,0.13845022264006202,0.1554593746497677,0.1813059300411796,0.2136637872712272,0.24499910195863883,0.26571349943938255,0.26750161069750156,0.2515045187716819,0.22732738552576895,0.20371968296094006,0.1875329930842511,0.17749580580726648,0.15732209626281893,0.11693740152532925,0.07618719522783786,0.04725243097727535,0.034395065284349824,0.019614171056759815,0.005135683807628128,-0.00682734832890304,-0.01481372418110704,-0.02254440062920277,-0.03387070238616354,-0.054802037909981983,-0.0958439699751219,-0.16875738153765663,-0.2999649507721096,-0.5062313580470045,-0.5045954593565432,-0.36655563639025995,-0.2949572462218172,-0.2729475879151336,-0.28488409325285724,-0.32969621782430547,-0.4125542587461508,-0.4288825554649629,-0.274229976575034,-0.16814240256912,-0.11873755693468932,-0.10087205555112033,-0.11012644093879011,-0.16274207393636175,-0.3216541697667848,-0.301788142454063,-0.18465944340816745,-0.13925876943956683,-0.1204593762454318,-0.11267106184841419,-0.10966436530524415,-0.10763113780907019,-0.10696398196665927,-0.10837420324920768,-0.11151265671656023,-0.11237266882481615,-0.10573024846563184,-0.08845730235658518,-0.062173811392108765,-0.031719425338349365,-0.00566800723354637,0.006958359438464965,0.007116273052450832,0.005678208570254722,0.011368336426600636,0.02520280558265813,0.04588062053759667,0.07589401412621616,0.11924587964055776,0.17494341318397105,0.230740033645658,0.2737938920236571,0.2999666207247646,0.31512239074396553,0.38077428694455157,0.3809480886657673,0.11094055655889266,0.045306725654138534,0.024907374577887786,0.01870324394182595,0.01680243010852169,0.022406259155449283,0.040150133042103194,0.07504561942730435,0.1205665967394984,0.13936324252741522,0.13183320367298845,0.12239321841696424,0.1189105992008415,0.11933581017284281,0.11813591577191415,0.11173687752208912,0.10084209104899614,0.0855757479108272,0.057382779062825205,-0.022563520849284136,-0.05270405216218944,-0.045111609127578126,-0.0337153530873195,-0.024909372847141113,-0.019390022335652433,-0.017886387059478936,-0.021062123417031897,-0.03083688894182284,-0.009740697445380189,0.01515189837334152,0.03351423289500333,0.054033079197634476,0.07927923401628376,0.09577999567670495,0.016236991954869866,-0.03141163138098986,-0.042788588019744056,-0.04334873705195657,-0.040937859477608585,-0.03883713861124589,-0.03923994182107044,-0.045358814527949855,-0.06264501718322235,-0.10073605388371837,-0.1631156005485713,-0.21723860146921378,-0.2377293025349509,-0.2306590436623385,-0.20058257216291883,-0.16049034385805888,-0.12387441671403761,-0.09758921828373676,-0.0844595327054917,-0.08362865400943228,-0.09150256259808884,-0.10158933093931105,-0.10617847874570545,-0.10170594920840446,-0.08729289215382913,-0.06521098980458069,-0.03694646379470204,-0.006922225522693147,0.021361873114168563,0.045872389473265086,0.06704427230512021,0.0835129888183022,0.08779949336701627,0.07444396748256298,0.04737272786563733,0.020646239450584268,0.00898944182178283,0.01690773262197589,0.03354181481144919,0.049997526610721696,0.06024969664849214,0.06385955804669911,0.059191465095477284,0.04776753901179679,0.03291296207747856,0.018972565376909153,0.009594140258294878,0.005763789446440527,0.006917215010079478,0.015241494866805405,0.033597094132797295,0.06057719341217004,0.09170393511306725,0.1195477240784392,0.13418308265368897,0.12929057664639176,0.11190996658577369,0.09319904248080133,0.08069020554617551,0.07951936204160492,0.09747685876067395,0.11249386881262133,0.05716856983956798,0.029670119239351374,0.0182999577437886,0.01416026015170599,0.011990802839890896,0.010269741152886204,0.00888867837007285,0.008884894127531656,0.013127416806237167,0.02395698510715702,0.033649712259949734,0.024139455735858746,0.013058982483655298,0.0046186707913379,-1.8224567488678588e-05,0.0002241831635753921,0.0036076614984616377,0.008576816001529073,0.013411015196235585,0.015507610106984353,0.010267154851894437,-0.00512844902816225,-0.016702638918193992,-0.022756515565552214,-0.025975130438593935,-0.02707264829640243,-0.027521904628278207,-0.025704749604182727,-0.02379557188826037,-0.02693349732856069,-0.0355355812287629,-0.054851113044159294,-0.09576918139243559,-0.13834872017570854,-0.13596095400936234,-0.1329179246617239,-0.14001373112332263,-0.1501349563695137,-0.15852455634507565,-0.16690268966745506,-0.18196881877380866,-0.21290702089377417,-0.26357587483364164,-0.32267566488414123,-0.35849757104326574,-0.3351544191596592,-0.2797506219179166,-0.23616033407282308,-0.21623108709311525,-0.2083698514055984,-0.17634074855424642,-0.10788360219258035,-0.04538798968285685,-0.0005696375215796933,0.036527970475957384,0.07831208700554983,0.1347423654509276,0.20761225485808874,0.2820222349759849,0.33403924933689616,0.3363029146874968,0.2953931919446974,0.25257922625546875,0.23037496408308603,0.2279840371852745,0.23403993571889672,0.2285555758195705,0.20469114496314145,0.17741689371062347,0.15629885932382725,0.14086238283915858,0.12912142803493024,0.12317110618558917,0.132486227759933,0.19759417747123245,0.10150849341871221,0.026852945817221495,0.011018604857357799,0.009315417622659672,0.013693888878486975,0.021540502699929857,0.038292472436403505,0.09321270323767043,0.10713957891317488,0.09543667568039985,0.09622946221284412,0.09368465389317042,0.0805144167490034,0.057012310617208226,0.025675265574626065,-0.013119906360080157,-0.060301939041404226,-0.1123964275653595,-0.16141355763178702,-0.19677320054226952,-0.21287655777090575,-0.21539103216800637,-0.21479149471650238,-0.22397789602939241,-0.24432136986343897,-0.24521526819429756,-0.19733693348924508,-0.13724265811097203,-0.08966724997074481,-0.05458148113965824,-0.027751562025525412,-0.007902587525708864,0.005151716688312547,0.011201549799969616,0.008605739662355958,-0.004396972612540717,-0.026619990312671964,-0.04139165521233831,-0.03459900864724858,-0.022391714270885255,-0.013619039668869678,-0.010399163922693702,-0.012748971193411755,-0.019721406082939263,-0.029571959817731284,-0.03982100972997279,-0.05040668109040462,-0.06290102284489492,-0.07859258332407822,-0.0974678775808299,-0.10782750591822834,-0.09047327899980447,-0.061166303350258695,-0.03369787591065724,-0.008666732755758917,0.017973138619318076,0.050473330544561365,0.08994539054097722,0.128047194082688,0.1476040893283808,0.13604721700529845,0.10810555784100093,0.0847294660423587,0.07230929535324138,0.06652762149277182,0.05911200480924575,0.047797601824532014,0.035728136163951714,0.026221734121510566,0.02061465793327825,0.01835573135159969,0.01988452468760343,0.02637095163957997,0.0392111312182894,0.060480794034368936,0.08793958464498661,0.11539349714275693,0.13461387408399758,0.13006793069896463,0.0919996016385654,0.058396440152685546,0.04238019265029559,0.03614537871777653,0.03552882305016308,0.04197271891780401,0.05906494558104222,0.06714787593204781,0.04307512791861176,0.03922763236045158,0.042597011779534455,0.04291970612733212,0.038835010553076615,0.030428939016912574,0.036545958057018706,0.04371505415268155,-0.005454423212573474,-0.018231667089979506,-0.02755586458020314,-0.03464443869527966,-0.03560945881172853,-0.02782416472166018,-0.009660833873421409,0.03093545951039624,0.020321374316087635,0.012273713671223674,0.005623054702007448,-0.003324377660395545,-0.017835323324182587,-0.04240638993326863,-0.08319937528756811,-0.146535216087678,-0.2172189540374331,-0.23520669267939062,-0.20168497541972472,-0.16974497146203849,-0.15539425867775764,-0.1477952097597457,-0.12489733316228777,-0.09325866519241766,-0.07463060451084816,-0.06571726438955378,-0.05926376800443263,-0.05355095449963923,-0.05092806460036449,-0.05666507508117743,-0.07780306668556322,-0.11606101582996874,-0.15948619105445697,-0.18850734344566064,-0.19672392042246853,-0.1921931901161544,-0.17916032271986534,-0.15651518997780348,-0.12739758709071108,-0.0989870191252657,-0.07569555223616835,-0.05890607287220636,-0.04871359324949699,-0.04380413137239343,-0.03702087667259425,-0.022217884566677143,-0.004415659671776598,0.01060662968758611,0.02246885766529018,0.034376609556341545,0.048805859373826886,0.06561739023197981,0.08327928319551713,0.10602856981691096,0.146765317667649,0.19346466792173436,0.1918535393854332,0.1783570867427813,0.17774090095269846,0.18272206183458073,0.18361606322013388,0.17374521240846377,0.15672687553110495,0.14284041622626903,0.13824529188355758,0.1316093043351129,0.10868086984158348,0.0785151092516869,0.0531134521519349,0.03571707376822872,0.025525413706396955,0.02053049531135385,0.019009412237032786,0.01939066738275282,0.020716095636510695,0.02189649755038401,0.023925527192576967,0.029160837668437703,0.039842545919486376,0.05535422244272524,0.0696980241209622,0.06920422005166357,0.04231187925676505,0.0003914676744295363,-0.03310302085025863,-0.05045234616342087,-0.05648939816300093,-0.05794955710518409,-0.05909823692971099,-0.06332798115641618,-0.07496348739688777,-0.10332843929219847,-0.1488144497804424,-0.15805312822272016,-0.13865345019267428,-0.11841719619640506,-0.09844360458313967,-0.07817735966866207,-0.06064314720359464,-0.048892656496647,-0.043886982403638836,-0.04426801169901299,-0.04744669091359017,-0.046660813334675894,-0.035228141747074324,-0.024619383377013356,-0.018375771043423354,-0.012111811238153965,-0.0029740404553598126,0.007864387170963851,0.015516856708026007,0.017670065590949666,0.01693355256367367,0.0198927679748979,0.02512420964169552,0.02345422903074213,0.014386366305658952,0.0025418347381272388,-0.006805468117558933,-0.011135399136495104,-0.0068045105136688225,0.01725682239991249,0.08096476497220105,0.17184617456904241,0.2169974510419378,0.25061177478397234,0.28666331757910785,0.3014096719652183,0.28632483851457297,0.25692770894126477,0.2169707762219644,0.15580335738532877,0.08512066598890967,0.03283505362289858,0.003205896116269989,-0.011961199987697818,-0.020585596889114766,-0.027857793857570142,-0.037319031795982414,-0.05308719302029398,-0.08312467320708446,-0.11852909181560094,-0.09718902241891077,-0.056431236852444895,-0.02594961529612576,-0.006206153129649608,0.003824146155238736,0.007850095263200086,0.009689366374017143,0.012249294920085432,0.019949105943565814,0.04378232963930995,0.044261077379491094,0.03973996349277958,0.04089480955783579,0.04486674908337102,0.05333465319554498,0.07409642075605045,0.12456678439815314,0.19498976544382596,0.2072523448512905,0.220286817092534,0.24728432607963094,0.2699669103686176,0.27205236775548736,0.2435845327150469,0.18052537787508038,0.08710548934941993,-0.023870674858741777,-0.13074262357502286,-0.21056837070608406,-0.2460061161832293,-0.2438866708422069,-0.2287311495108695,-0.21493280343687207,-0.20069053836747938,-0.1802796096504405,-0.1556021890020519,-0.136722890555819,-0.1283417583818349,-0.1320187266888685,-0.1489577020727678,-0.18095079013952337,-0.21486620344781354,-0.21154128682194354,-0.18144408473524282,-0.16174445568040677,-0.15701153047862842,-0.1583978188116393,-0.15870025000366964,-0.15457186352985974,-0.14683420517972315,-0.13578053621820813,-0.12088740427676267,-0.10098002332482466,-0.07724969734147821,-0.04778698761969302,0.020823111833264914,0.039433258658529285,0.035893781009905104,0.03744851883353827,0.03718850047862968,0.036724210132525574,0.03886162225156074,0.05006028139643271,0.06899824300480198,0.092528670210659,0.12224338324560044,0.16572481442163003,0.2271693946322669,0.26699172379252256,0.2440954171904766,0.2030865309978802,0.16780246420473377,0.1396650194479897,0.11720329117471663,0.10061163367377231,0.09569475504823872,0.11373554965733147,0.1649187818450288,0.25014965280629237,0.33471568942835367,0.3072781288504664
