-0.011299257550556042,-0.010201056544197817,-0.006936156387686195,-0.002884707727967346,0.0020423293444503886,0.008126922784340953,0.014805133019319256,0.020756162932135135,0.024317878354010378,0.02457016542324447,0.022240216366220734,0.019064353372072868,0.015814290453348624,0.012267418679225858,0.008215965440960508,0.004283240323401066,0.0016416360160984365,0.0008847720612682602,0.0018048813444222728,0.0034521736968666093,0.004951061621611686,0.005826650034310572,0.005693085591526586,0.004951061621611686,0.004817497178827702,0.005960213561385256,0.008631498754227737,0.012816514603858471,0.017595143585739745,0.021676276793835648,0.02353132985080315,0.02215117279389188,0.01760998723349222,0.01103565231437435,0.00441680476618505,-0.0006141155887640266,-0.0038048170111213584,-0.005570832905725104,-0.006683868402742804,-0.007960149228084341,-0.009592604342741302,-0.011328935688967996,-0.012902023538289452,-0.0143563896768701,-0.015350703463146992,-0.01524681624306566,-0.013495641249086492,-0.01023074383970277,-0.0066987083876580795,-0.004502319194871831,-0.005066256935838319,-0.008360841640726993,-0.012709101902972263,-0.01601852109852041,-0.01733933103570078,-0.017116722104878638,-0.016448895312412216,-0.01598884296010846,-0.015870121249367652,-0.016300495463259457,-0.017042513023209256,-0.01759161810493487,-0.017279965601783874,-0.01566235596629799,-0.013406597676757635,-0.012174840468999127,-0.013510484896838967,-0.017116722104878638,-0.02100492452056435,-0.022132803665334527,-0.018793697174281428,-0.011002448695157522,-0.0007179989628662987,0.008705700510222717,0.014730933094742875,0.016556308013298424,0.014894176591648111,0.011599591886759438,0.008586977883772608,0.007117770844567384,0.007399739715050628,0.008290168112664788,0.008453413440988624,0.006791280187919711,0.0033186092540826253,-0.0010296491767440448,-0.0044577983244167025,-0.005155300508167175,-0.0027214623996435097,0.0014338698173194725,0.005143987835475375,0.007102929943942807,0.007117770844567384,0.005693085591526586,0.0036747807962701495,0.0019236048865816809,0.0010183365040522443,0.0015080724890237525,0.0031998857119232174,0.0055001593776628985,0.00817144457050538,0.011644113672923865,0.016214977371735478,0.021468511510765984,0.026261984140399736,0.029408159839042648,0.029897899486851353,0.027671828492815957,0.023561017146308098,0.019301796793554486,0.01674923880570861,0.017283500239681747,0.020681963007558757,0.02497086149872432,0.027790550203556762,0.028161568140624663,0.026632992920374632,0.024926339712559895,0.02476309621565466,0.02639554949889302,0.028725498555916752,0.030432151763731492,0.029897899486851353,0.026440071285057445,0.02020706700750252,0.012400974880626144,0.00478781629328785,-0.0006289561231048826,-0.0024246535442449895,-0.0010148082761194687,0.0014783906877746005,0.002576586199877025,0.0007215269160862841,-0.003285401056319298,-0.007411051472033129,-0.01023074383970277,-0.011714788116695372,-0.012560692896726504,-0.013465963110674538,-0.015128094532324854,-0.018021992318826674,-0.022770934005202997,-0.02921170356582758,-0.03663194326497659,-0.04365147773155274,-0.04890500271349025,-0.05173953506607516,-0.05203634392147368,-0.04998836007209599,-0.046560210008714034,-0.04227131151754847,-0.037284917252597534,-0.031601018056768224,-0.025679666282364295,-0.020544872168260595,-0.017205765677207493,-0.01561783418013356,-0.015009372821584046,-0.014178302532212387,-0.012857501752125024,-0.011432822909049328,-0.010260421978114722,-0.009533238908824399,-0.009132546496181745,-0.008167915426863305,-0.0057785991045040674,-0.0015490651315461052,0.0044761665372647546,0.011510548314430583,0.018678500944345495,0.02494118336031237,0.029348803562218743,0.03151550912233724,0.03126322205310315,0.02829513349911795,0.023011921221675488,0.017001525874942705,0.011866722603746006,0.008646338739143012,0.00765202769999402,0.008453413440988624,0.01017490388659074,0.011792522679169627,0.013128167107009467,0.014864498453236159,0.017194456667352892,0.0198508927181871,0.022388616215373497,0.023991391360199905,0.023753947938718288,0.021572389573754316,0.018129405019712882,0.014359924314767975,0.011080174100538779,0.008601817868687885,0.006865481943914691,0.004772976308372574,0.0017158386878027166,-0.00249885530023997,-0.007366530601578,-0.011878031613600609,-0.014668042180021096,-0.014920329249255187,-0.013109797978452116,-0.010764996116582905,-0.009221586405673401,-0.009444195336495542,-0.01141797926129685,-0.013955702758483247,-0.01631533911101193,-0.01796262688490977,-0.018660131815788142,-0.017903261450992865,-0.01502421646933652,-0.010304943764279149,-0.005006895164758615,-0.0008664036652783487,0.0006621649618647201,-0.0005250728405735406,-0.0029589103996716256,-0.005170140493082451,-0.006283175074390852,-0.006223814219020448,-0.005837961791293072,-0.006357378661804432,-0.008197597228112457,-0.011017283185816998,-0.014237667966129292,-0.017161243891043065,-0.019550558381983704,-0.021435298734456154,-0.02248896879755695,-0.022266359866734812,-0.020366785023602885,-0.01687926952630402,-0.011818675336776701,-0.005600513791264956,0.0007512078016261361,0.006271863317408351,0.009937460465109125,0.011347304817525347,0.010605278100482545,0.008260487227124937,0.00579696914877072,0.004772976308372574,0.006271863317408351,0.010085869471354885,0.015606525170278959,0.02234409442920907,0.029497203411371502,0.03607153833048937,0.04096889818020446,0.0426755513880192,0.040375280469407415,0.03446876318566297,0.02602453156182512,0.016897638654861373,0.009121234739199244,0.004075474124622102,0.0021016911155300926,0.002710150642661009,0.004995583407776114,0.008023039227096821,0.010991130528209922,0.012564227534624377,0.011837044465334054,0.009106393838574669,0.00530723316379921,0.0014635507028593244,-0.001682629574330089,-0.004042265011149474,-0.005511471134645399,-0.006149611547316167,-0.006016047104532183,-0.005348225806321563,-0.004146147652684307,-0.00249885530023997,-0.0004805513291219025,0.0017603595582578449,0.00389738789567369,0.005455637591498471,0.00579696914877072,0.00441680476618505,0.0014041889317796205,-0.0025878988725688257,-0.006728390188907232,-0.010334621902691101,-0.012456814833738172,-0.01253101475831455,-0.010809517902747335,-0.008865418526323077,-0.00874669406845437,-0.011106326758145855,-0.015380381601558945,-0.019684123740476987,-0.021910194734512386,-0.021732107589854676,-0.02045582859593174,-0.02015901974053322,-0.022132803665334527,-0.026154571439513524,-0.030740269628984615,-0.0338419326985561,-0.03436134132768376,-0.03259533184304512,-0.02993888663511791,-0.02824707707505564,-0.028187711641138737,-0.0287664857041833,-0.028647763993442495,-0.027148876068697418,-0.024388552797781883,-0.020930724595987972,-0.016671504243234356,-0.01112117040589833,-0.004413276538252275,0.0021313720010699448,0.006895162829454543,0.008854105853631276,0.008735381395762569,0.008720541410847292,0.010857574326809638,0.015354228943951867,0.021349789800025176,0.027627306706651526,0.03331120590248084,0.038045322255290684,0.042067090029469685,0.04574752716208573,0.049279564445549026,0.0526335145843546,0.05506735086145966,0.05545320328918704,0.05318261050898721,0.048671103086999505,0.042987203891170195,0.037407182758329216,0.03311828426716365,0.029972099411427734,0.027300810555748057,0.023739104290965814,0.01851525744744026,0.012119009672980099,0.005871170904765699,0.0013893480311550446,-6.501815321106931e-05,0.0020571693293656647,0.006657715745135727,0.011718313597500246,0.015621359660938436,0.017520943661163364,0.017298334730341224,0.015562003384114531,0.013321088742326653,0.011614435534511913,0.010798208892892734,0.010679487182151925,0.01036783467900093,0.0092102773958188,0.0065538331036008955,0.0021016911155300926,-0.003923540553280766,-0.010750161625923429,-0.017116722104878638,-0.02216248180374648,-0.025457066508635152,-0.02740116313793151,-0.028321276999632022,-0.02873680756577135,-0.029360103414980344,-0.030814469553560996,-0.03327799312617101,-0.035518898610865886,-0.03594927282475769,-0.033812245403051146,-0.029983408421282335,-0.026154571439513524,-0.023794925929891842,-0.023973013074549552,-0.02658493649631233,-0.029983408421282335,-0.03226883569214164,-0.03238756655997545,-0.030027930207446766,-0.025560944571623487,-0.01993641080971108,-0.014727407613938,-0.01097276139965257,-0.009444195336495542,-0.010245578330362246,-0.012738780041384215,-0.01529133802923009,-0.015899799387779603,-0.013465963110674538,-0.008598289640755109,-0.003374443712938854,0.00024663174016842186,0.0017455195733425688,0.0015377524588543047,0.0001575889004070058,-0.0017123104598699413,-0.0031963574839904423,-0.0033299219267744263,-0.001652948688790237,0.0018494031305867006,0.0069842064017834,0.012682949245365185,0.01746157822724646,0.020681963007558757,0.022611225146195634,0.02357586079406058,0.024169478504857615,0.0243624001401748,0.023739104290965814,0.021913720215317265,0.019197918730566154,0.016526629874886473,0.014627045874661543,0.013885028314711743,0.014211515308522216,0.014805133019319256,0.015220672742551584,0.015057420088553349,0.013959228239288125,0.011599591886759438,0.008097241898801101,0.004060633223997526,0.0006176435419840121,-0.001148372718903453,-0.0010890109478237488,0.0006324840763248681,0.0034373337119513333,0.006702237531300155,0.009685173395875032,0.01155507010059501,0.011584757396099961,0.009492242603464844,0.0055001593776628985,0.00033567457992983793,-0.004784288065355075,-0.008093713670868325,-0.00852408696905083,-0.0067135502039919566,-0.004264872110553015,-0.0030627939569157583,-0.004472638309331979,-0.008598289640755109,-0.01413378074604796,-0.019105340520339423,-0.022266359866734812,-0.02318647372843532,-0.022696734080626616,-0.021657907665278295,-0.01998093259587551,-0.017799383388004533,-0.015142938180077328,-0.012189684116751604,-0.009310629978002258,-0.007322008815413572,-0.006758071074447084,-0.007930468342544489,-0.01060175261967767,-0.013970537249142724,-0.01684959138789207,-0.01784390517416896,-0.01628565181550698,-0.012456814833738172,-0.006772911975071659,-0.0002579443212892924,0.00579696914877072,0.010545921823658641,0.013662419383889603,0.015146463660882204,0.015606525170278959,0.015294872667127963,0.014152159031698312,0.012356453094461713,0.010442034603577309,0.009566451685134224,0.010634965395987498,0.013469497748572416,0.016482108088722046,0.01798099601346712,0.017357700164258128,0.015057420088553349,0.012029966100651242,0.00928447732039518,0.0075036223565854605,0.0068209610734595635,0.007028728187947827,0.007429420600590479,0.00831984899820464,0.010160069395931266,0.013410132314655512,0.017639665371904173,0.021765320366164503,0.024911496064807415,0.026454905775716922,0.02523799221571089,0.020310954227583854,0.012252575031473381,0.0031998857119232174,-0.004294552996092867,-0.00852408696905083,-0.009384839059671638,-0.0076039786016061164,-0.004413276538252275,-0.0014748633755511252,0.00051376025945267,0.0014487098022347485,0.0019978075582859607,0.002561745299252449,0.0032147266125477935,0.004075474124622102,0.005173668721015226,0.0058860118053902745,0.006034415317380235,0.005485318477038322,0.00493622072098711,0.005322073148714486,0.006316385103572779,0.006524152218061043,0.005529840263202751,0.0034521736968666093,0.0008254101986176262,-0.0018458749026539253,-0.003923540553280766,-0.004665564523195667,-0.003953222354529919,-0.0021723655593015975,-0.0001985823670677284,0.0014783906877746005,0.002635947970956729,0.0029475977269798254,0.0018790840161265526,-0.001222575390607733,-0.006936156387686195,-0.015009372821584046,-0.024314352873205502,-0.03286246256003168,-0.03902124859882422,-0.042226798888477045,-0.042968816448426844,-0.04219711159297209,-0.040297536749840164,-0.037181039189609195,-0.0330999059815133,-0.02875165121352383,-0.025160257653236637,-0.022696734080626616,-0.020901037300483018,-0.018838218960445855,-0.01579592132479127,-0.011699944468942895,-0.006936156387686195,-0.0021872055442168736,0.0017900404437976966,0.004505847422804607,0.006049256218004811,0.0065538331036008955,0.005975054462009831,0.004505847422804607,0.002487543543257469,0.00020211032028771383,-0.0018607148875692014,-0.002914388613507198,-0.0024394935291602656,-0.0003915084893604865,0.002457861742008317,0.005292392263174635,0.0073552188445955,0.008943148510250833,0.01118406132062011,0.014448967887096832,0.01798099601346712,0.019821214579775148,0.01861913551042859,0.014849654805483684,0.010768530754480782,0.008779904097636296,0.009477408112805369,0.011881566251498481,0.014775454880907304,0.017372534654917605,0.01888626622741516,0.01884174444125073,0.017550621799575315,0.016526629874886473,0.016986682227190228,0.019049509724320395,0.02175047671841203,0.023724260643213334,0.02366489520929643,0.02123105893219137,0.01701636952269518,0.011896400742157958,0.007013887287323252,0.0028585550703602693,-0.0006734775429855906,-0.003597049896633094,-0.005971526234077056,-0.007633659487145969,-0.0081085536557836,-0.007188444372629588,-0.005214662279246879,-0.002899548628591922,-0.001192894505067881,-0.0009257656194999129,-0.0026175797581086775,-0.006060568890696612,-0.011076648619733903,-0.01759161810493487,-0.024433074583946307,-0.029538199716731058,-0.03142293091211051,-0.030962878559806756,-0.02984984306278905,-0.028914894710429066,-0.028187711641138737,-0.02710435428253299,-0.025442222860882678,-0.023631682432986606,-0.021331411514374822,-0.01788842696033339,-0.013584684821415347,-0.009295795487342782,-0.0055263120352699755,-0.0025730579719442496,-0.00031730618393992644,0.0017603595582578449,0.005040104278231242,0.010204591182095693,0.016407908164145665,0.0217059549322476,0.024481121850915614,0.02403591314636433,0.021023293649121703,0.016585995308803374,0.011762835383664674,0.0072216534861022155,0.00389738789567369,0.002339138199848909,0.002635947970956729,0.00389738789567369,0.005351754034254338,0.006405427760192335,0.007325537959055647,0.008676019624682865,0.01051623452815369,0.012326774956049762,0.013499175886984367,0.013870184666959266,0.014033428163864502,0.014285724390191596,0.014582524088497115,0.014196680817862739,0.013053958025340085,0.01237129674221419,0.013365610528491084,0.016407908164145665,0.02175047671841203,0.02924491634213741,0.037125217550683175,0.04177028117407116,0.03967777553852904,0.030491517197648397,0.01674923880570861,0.0030960021546790856,-0.006238654203935723,-0.00993393498430425,-0.008924779381693481,-0.005081097836462895,-0.0003766681381614905,0.004001271452917822,0.007963677456017117,0.01140667025144225,0.014092793597781407,0.015146463660882204,0.014152159031698312,0.011124695886703206,0.006924844630703695,0.002517224428797321,-0.0015639060321706812,-0.0055263120352699755,-0.009874569550387347,-0.014935172897007664,-0.020500350382096168,-0.025353179288553823,-0.028469676848784785,-0.02949366877347363,-0.029226538056487058,-0.028677442131854445,-0.028721963918018876,-0.029805321276624625,-0.031497130836686885,-0.03332251491233544,-0.035118211692479036,-0.03645385612031887,-0.03695843025878706,-0.03596411647251017,-0.033010862409184445,-0.028425155062620354,-0.023824613225396796,-0.02082683737590664,-0.020218376017357122,-0.021850829300595485,-0.02458147443309907,-0.026926267137875277,-0.027148876068697418,-0.024180787514712216,-0.01793294874649782,-0.009280951839590306,0.0001575889004070058,0.008438572540364049,0.013974071887040598,0.01631886459181681,0.016452429950310092,0.015502637950197627,0.014894176591648111,0.015695568742607816,0.017773230730397455,0.020147710730678618,0.021646598655423697,0.021765320366164503,0.021127180869203035,0.021320102504520225,0.02388750414011857,0.02835448977594185,0.03253950104702608,0.034290676041005254,0.03294019712250593,0.029378481700630697,0.025430913851028077,0.02262606879394811,0.02103813729687418,0.01921275322122563,0.0165711516610509,0.013692097522301556,0.011896400742157958,0.012193209597556478,0.014523167811673211,0.018366848441194496,0.02229957264304464,0.024688887133985274,0.0246146872094089,0.022433138001537924,0.019049509724320395,0.01579944680559615,0.013692097522301556,0.012771992817694044,0.012104166025227622,0.010724008968316354,0.008438572540364049,0.005069785163771094,0.0006176435419840121,-0.003893859667740914,-0.007633659487145969,-0.01060175261967767,-0.01356985033075587,-0.016745704167810738,-0.019105340520339423,-0.020440984948179263,-0.020767471941989735,-0.019758323665053368,-0.01699799123704483,-0.0125013366199026,-0.007707861243140948,-0.005036576050298467,-0.005882482661748199,-0.01060175261967767,-0.018511722809542382,-0.02747536306250789,-0.03465815934017528,-0.037566882460243575,-0.03565246396935917,-0.031170643842876416,-0.027564406634836745,-0.02665914557798171,-0.028618085855030544,-0.03203139227066002,-0.034851080975492464,-0.035978960120262644,-0.035459542334041985,-0.03360448011998148,-0.03078479141514904,-0.026837223565546423,-0.0217172639421022,-0.015632677827886035,-0.009221586405673401,-0.0035228481406381143,0.0001575889004070058,0.0011370600462116522,0.0001279080148671538,-0.0016974704749546652,-0.003478326354473686,-0.00457652186657611,-0.004353914767172571,-0.002543377086404398,0.0002614722745092779,0.0035412163534861655,0.006331225088488055,0.007191972600562363,0.005425956705958619,0.002072010229990241,-0.0010593300622838968,-0.0023207699870008577,-0.0009851273905796167,0.0029624377118951015,0.008928308525335556,0.01622982101948795,0.023991391360199905,0.031337421977679525,0.037303295538247884,0.04129538517401493,0.04319496917423986,0.042749751312595584,0.0401378278908328,0.03607153833048937,0.03153035277008972,0.02731565420350053,0.023768782429377765,0.02118653714602694,0.019939936290515953,0.019717336516786813,0.01992510179985648,0.019539249372129103,0.018188761296536786,0.01631886459181681,0.014404446100932403,0.01251970574845995,0.011065339609879302,0.010204591182095693,0.009759373320451412,0.009373520892724037,0.008705700510222717,0.007266175272266643,0.004876858949907406,0.0019384457872062566,-0.0008218822453976407,-0.0027659841858079376,-0.0038344978966612106,-0.004442957423792127,-0.004621042737031239,-0.00457652186657611,-0.004903011607514483,-0.006505783089503691,-0.010171378405785865,-0.014935172897007664,-0.018645288168035668,-0.019669280092724513,-0.018571088243459287,-0.0173244873879483,-0.017547096318770442,-0.019520871086478753,-0.02248896879755695,-0.025649988143952345,-0.028885207414924112,-0.03213527033364835,-0.034450384900012614,-0.03468783747858723,-0.0327288972015384,-0.029553034207390534,-0.026154571439513524,-0.02342391714991694,-0.02196955101133629,-0.021850829300595485,-0.02263737780380271,-0.02339423901150499,-0.023097430156106467,-0.020990080872811876,-0.017487730884853538,-0.014000224544647675,-0.012323249475244887,-0.013228519689192923,-0.016196608243178125,-0.019728645526641417,-0.02253349058372138,-0.023498126231586317,-0.0217172639421022,-0.01722060016786697,-0.011180535839815233,-0.004947533393678911,0.0008402506413875522,0.006731918416840007,0.01352885402539632,0.020637441221394326,0.02698916720969006,0.031767796191571336,0.034913981047307245,0.03614573825506576,0.03524046804111772,0.03329637141182136,0.032242692191627564,0.033326049550233314,0.036338669047475944,0.03991521896001066,0.04242326431878511,0.04368469966495557,0.04405571760202347,0.043655021526543616,0.04215613360179854,0.03969261918628152,0.03665031239353394,0.03378610190253707,0.03173811805315938,0.03038762997756706,0.029348803562218743,0.02817640263128414,0.02688527998960873,0.026351018555635593,0.0275827849204871,0.03072896977622301,0.034171954330264445,0.03575988582733838,0.033904823613277874,0.0283248116375299,0.020251588793666953,0.011614435534511913,0.003956749666753394,-0.0022614082159211537,-0.0073516897009534244,-0.011180535839815233,-0.013198832393687972,-0.01379245010448501,-0.01413378074604796,-0.015810755815450748,-0.019179549602008805,-0.023067752017694516,-0.02576870985469315,-0.02688174535171085,-0.02735664135176708,-0.028083824421057408,-0.029597555993554958,-0.03145261820761546,-0.03355995833381706,-0.0360679945354985,-0.038175343818793096,-0.03873928339117818,-0.037002952044951486,-0.033411558484664296,-0.029256225351992012,-0.02566483179170482,-0.02281545579136742,-0.02070811566516583,-0.019817689098970272,-0.020411306809767313,-0.022236681728322858,-0.023809769577644316,-0.023631682432986606,-0.020619072092836976,-0.014653198532268619,-0.0075000941286526845,-0.0017123104598699413,0.0010034956034276684,0.0008996125040381861,-0.0010890109478237488,-0.003953222354529919,-0.006461262219048564,-0.007826584785300357,-0.008197597228112457,-0.008167915426863305,-0.007915628357629212,-0.007084560815385456,-0.005184980477997727,-0.0021278437731371692,0.0015971151456433087,0.0055001593776628985,0.00869086052530744,0.010545921823658641,0.011362148465277822,0.01133246116977287,0.010501400037494214,0.008497935227153053,0.005425956705958619,0.0018494031305867006,-0.0016677886737055132,-0.0047100863093600944,-0.006639346616578375,-0.007040039944930329,-0.005630195592514108,-0.0022762482008364298,0.002650787955872005,0.008661179639767588,0.0150871073840583,0.020637441221394326,0.023753947938718288,0.02390234778787105,0.022091807359974975,0.019717336516786813,0.018530091938099732,0.01876754451667435,0.01891594436582711,0.017268656591929273,0.013499175886984367,0.009076712953034817,0.006316385103572779,0.006598353974056023,0.008809584983176149,0.010634965395987498,0.011154383182208159,0.011095017748291254,0.011495713823771106,0.01274231467928209,0.014775454880907304,0.016675038881132233,0.016808604239625515,0.014137315383945834,0.008438572540364049,0.0009589747329725402,-0.006476102203963839,-0.012783301827548643,-0.01771033981567568,-0.020960402734399922,-0.022474125149804475,-0.022652212294462185,-0.0213462551621273,-0.017754861601840106,-0.011581222758202087,-0.003730614339417078,0.0035560572541107416,0.0073552188445955,0.006375746874652483,0.0008254101986176262,-0.007173604387714313,-0.015053894607748473,-0.021153324369717112,-0.02502669229474335,-0.026822389074886946,-0.027119197930285468,-0.02625844950250186,-0.024418230936193833,-0.02127204608045792,-0.016745704167810738,-0.01119537033047471,-0.005363066706946139,-0.00024310378694843642,0.0034670145974911855,0.005693085591526586,0.006242182431868499,0.005322073148714486,0.0033779710251623297,0.0007512078016261361,-0.0020981628875973175,-0.004799128050270351,-0.006728390188907232,-0.007322008815413572,-0.0065651448605833955,-0.004502319194871831,-0.001222575390607733,0.0027843523986559892,0.006227342446953223,0.008527616112692904,0.009625807961958128,0.009685173395875032,0.008972829395790685,0.00765202769999402,0.00575244644689699,0.0037935052541388575,0.002517224428797321,0.002502383528172745,0.004357442995105347,0.008527616112692904,0.01427088074243912,0.01958377115829353,0.021661433146083174,0.018826900793498254,0.012059653396156195,0.00374898255226513,-0.003344761911689702,-0.007114242616634609,-0.006758071074447084,-0.0027066224147282336,0.0030960021546790856,0.007637186799369444,0.009343842754312085,0.008082400998176524,0.005099466049310946,0.002220414657689501,2.4024677393253732e-05,-0.001578746017085957,-0.0026324197430239536,-0.002884707727967346,-0.0022020464448414493,-0.001222575390607733,-0.0009406056044151888,-0.0020239602158930374,-0.004264872110553015,-0.006639346616578375,-0.007648499472061245,-0.0062534951045603,-0.003122155727995462,2.4024677393253732e-05,0.0015674333443941564,0.0011519009468362283,5.370561787566375e-05,-0.0006883179857555166,-0.0008070418026277146,-0.0007773608255169328,-0.0009406056044151888,-0.0019497584598980574,-0.00346348636955841,-0.004442957423792127,-0.004279712095468291,-0.0030627939569157583,-0.001370979818306993,0.0005434412365634521,0.003021800398684105,0.005975054462009831,0.008394050754199621,0.009328999106559608,0.008779904097636296,0.007384899730135352,0.005871170904765699,0.0048620189649921305,0.004802656278203126,0.00575244644689699,0.007295857073515795,0.008631498754227737,0.009017351181955112,0.008112081883716376,0.006197661561413371,0.0036154190251904456,0.0007512078016261361,-0.0017865131315742213,-0.00316667659845059,-0.0026769415291883814,-0.00024310378694843642,0.003288928368542774,0.007013887287323252,0.010709165320563877,0.014196680817862739,0.016823438730284992,0.017595143585739745,0.01624466466724043,0.013321088742326653,0.009343842754312085,0.004906539835447258,0.0009441338323479642,-0.001207734489983157,-0.001163212703818729,0.000780888687165988,0.004520687407719883,0.009536764389629273,0.014805133019319256,0.019301796793554486,0.021987929296986643,0.022284738152385165,0.020132867082926144,0.01622982101948795,0.01155507010059501,0.0072364934710174925,0.0036896216968947257,0.0008847720612682602,-0.0016232678032503851,-0.004190669438848734,-0.0064315813335087115,-0.007767223014220653,-0.007974990128708916,-0.007455573258197556,-0.006965837273226048,-0.0067135502039919566,-0.006743231089531807,-0.007277487029249145,-0.00874669406845437,-0.010764996116582905,-0.012842667261465547,-0.014445433249198955,-0.015365547110899469,-0.016181773752518648,-0.017398687312524683,-0.01934279309891404,-0.021687585803690245,-0.023453595288328896,-0.023542648017750748,-0.021539176797444486,-0.017873583312580914,-0.014059580821471579,-0.011373457475132423,-0.010764996116582905,-0.012323249475244887,-0.015573312393969132,-0.019669280092724513,-0.024106578433042838,-0.02863292034569002,-0.03265468811986902,-0.035800872975604935,-0.03729976090035001,-0.036602255969471635,-0.03367868920165087,-0.028618085855030544,-0.021583698583608917,-0.0136143721169203,-0.0060457279900720355,-0.00027278476405921844,0.0027991932992805653,0.0031108430553036617,0.0017900404437976966,0.00040987697692132795,0.0003950364425804719,0.002383659986013337,0.006182821576498095,0.010382678326753405,0.013128167107009467,0.013246888817750276,0.01066464353439945,0.0066725566457603025,0.002992118597434953,0.0013448271606999165,0.002635947970956729,0.006464789531272039,0.010976296037550445,0.014463802377756307,0.016511786227133996,0.017595143585739745,0.018262961221113164,0.01864882280593354,0.018337170302782545,0.0169421604410258,0.014834820314824207,0.012816514603858471,0.011569913748347486,0.01162927002517139,0.012801670956105994,0.014478646025508784,0.016363386377981237,0.01827780486886564,0.01988058001369205,0.020741328441475658,0.020147710730678618,0.017357700164258128,0.013143001597668943,0.009254799181983228,0.007073249058402956,0.007414579699965904,0.010026504037437982,0.01355853216380827,0.01631886459181681,0.017476421874998937,0.01686796051644942,0.014864498453236159,0.012460340314543045,0.010026504037437982,0.0075926659289143154,0.005930532675845404,0.005574361133657879,0.005900851790305551,0.005633722904737583,0.0039270687812135415,0.0010034956034276684,-0.0021723655593015975,-0.004813968950894926,-0.007173604387714313,-0.009770682330306014,-0.0128723453998775,-0.01564751231854551,-0.017576774457182393,-0.018437522884966,-0.01830395752647272,-0.017413530960277156,-0.016345017249423884,-0.015142938180077328,-0.013703415689249156,-0.012293571336832936,-0.011239892116639137,-0.011447657399708804,-0.012634901978395882,-0.013747928318320583,-0.01394085911073077,-0.012605214682890931,-0.009741004191894062,-0.006387058631634984,-0.004472638309331979,-0.005466950264190271,-0.00948871712265997,-0.015380381601558945,-0.021464976872868108,-0.02584291893636253,-0.026926267137875277,-0.024447909074605784,-0.019209227740420755,-0.01257553654447898,-0.0057934400051286436,-0.00040634902370134245,0.002769512413740713,0.0037786643535142814,0.0031998857119232174,0.002428180856468465,0.0025320644137125973,0.004327761193856194,0.007830113013233133,0.012148687811392049,0.016140777447159096,0.01924244051673058,0.02091941558613337,0.020756162932135135,0.01921275322122563,0.017179613019600415,0.015680725094855342,0.015205829094799108,0.015740090528772246,0.017194456667352892,0.019034675233660918,0.020355476013748285,0.020251588793666953,0.018337170302782545,0.015161307308634681,0.01177767903141715,0.009180599257406849,0.007844952998148408,0.007859794814482284,0.008646338739143012,0.009239955534230753,0.00861665785360316,0.006598353974056023,0.003407652826411482,-5.017768296986431e-05,-0.0021278437731371692,-0.0021278437731371692,-0.0006883179857555166,0.0008847720612682602,0.0017009977871781405,0.0019384457872062566,0.002443021757093041,0.0032295665974630696,0.0037044616818100017,0.0033482901396224775,0.002146211985985221,0.0002763127172792039,-0.0023652917731652855,-0.005288864035241859,-0.007960149228084341,-0.009162230128849497,-0.008509246984135552,-0.006372218646719707,-0.00331508102614985,-0.0003915084893604865,0.000573122122103304,-0.001252256276147585,-0.005555992920809828,-0.011269570255051091,-0.017294809249536348,-0.022681890432874142,-0.026495902081076474,-0.02824707707505564,-0.027935424571904646,-0.02576870985469315,-0.02231088165289924,-0.01852656645729486,-0.015365547110899469,-0.013451119462922064,-0.012545858406067027,-0.01253101475831455,-0.013332397752181256,-0.014742242104597477,-0.01588495574002713,-0.01601852109852041,-0.01506873825550095,-0.013629206607579774,-0.011818675336776701,-0.009473873474907494,-0.00610509067686104,-0.0017716722309496452,0.002828874184820417,0.006746758401755284,0.009774216968203889,0.012534540239119426,0.015547159736362054,0.018663657296593018,0.02152786778758989,0.023917191435623524,0.025712888215767123,0.02703368899585449,0.028591933197423466,0.03028375191457873,0.03157487455625414,0.03151550912233724,0.02939332534838317,0.02523799221571089,0.019717336516786813,0.014389602453179927,0.010531078175906166,0.008334688983119917,0.006895162829454543,0.005841490019225847,0.005025264293315966,0.004698773636668294,0.004965902522236262,0.005425956705958619,0.00579696914877072,0.006242182431868499,0.006895162829454543,0.007830113013233133,0.008883786739171128,0.009848416892780269,0.01036783467900093,0.010382678326753405,0.009551608037381748,0.006850641958999416,0.0018939240010418287,-0.004027424110524898,-0.008761534969078945,-0.011314092041215518,-0.011848353475188655,-0.011551544619790133,-0.011596066405954564,-0.012412293047573743,-0.013406597676757635,-0.013733093827661106,-0.012738780041384215,-0.010245578330362246,-0.007336849716038148,-0.006208973318395872,-0.008687331381665366,-0.014994529173831568,-0.023587160646822175,-0.03231335747830607,-0.03945162281271603,-0.04347339974398803,-0.043028181882343745,-0.03793790039731148,-0.029315581628815913,-0.018867897098857805,-0.008583448740130534,-0.0004805513291219025,0.004090314109537378,0.005143987835475375,0.004683932736043718,0.005129147850560099,0.007414579699965904,0.01036783467900093,0.012029966100651242,0.011228583106784538,0.008275327212040213,0.00478781629328785,0.0025914261847923012,0.0026062670854168773,0.004090314109537378,0.005589202034282454,0.005292392263174635,0.0028733950552755454,-0.001074170047199173,-0.0059121644629973515,-0.01067595254425405,-0.01391118097231882,-0.01416346804155291,-0.010943083261240619,-0.004992055179843339,0.0028140332841958414,0.011569913748347486,0.019895423661444527,0.026039375209577595,0.028710664065257276,0.02780539385130924,0.024228834781681523,0.019776692793610717,0.015220672742551584,0.010145225748178789,0.004535528308344458,-0.0007625203827470067,-0.004903011607514483,-0.007767223014220653,-0.009325473625754734,-0.009295795487342782,-0.007707861243140948,-0.004917852508139059,-0.001682629574330089,0.0014635507028593244,0.004491006522180031,0.0075036223565854605,0.010145225748178789,0.012015131609991766,0.012445496666790571,0.010768530754480782,0.00728101617289122,0.004016111437833098,0.002710150642661009,0.00404579232337295,0.007384899730135352,0.010872408817469113,0.01234161860380224,0.01103565231437435,0.007978517440932392,0.004891699850531982,0.002428180856468465,0.00029115316004912987,-0.001519384246006253,-0.0029737503845869017,-0.004250031209928439,-0.005036576050298467,-0.004992055179843339,-0.004146147652684307,-0.00286986774305207,-0.001356138917682417,0.000573122122103304,0.002977278612519677,0.00530723316379921,0.0060195753324649584,0.0042090376516967865,-3.5337212728659304e-05,-0.005615354691889531,-0.010957926908993094,-0.015306181676982564,-0.018363322960389623,-0.020144176092780745,-0.021286889728210395,-0.022147638155994003,-0.022370247086816144,-0.021925029225171862,-0.021034602658976304,-0.020277741451274027,-0.019520871086478753,-0.017754861601840106,-0.014920329249255187,-0.011507022833625705,-0.008390522526266845,-0.00655030395995882,-0.0057934400051286436,-0.0052591831497020075,-0.003122155727995462,0.0015229124739390286,0.008394050754199621,0.015057420088553349,0.018960466151991536,0.01891594436582711,0.015636203308690914,0.011124695886703206,0.007488782371670184,0.006316385103572779,0.008349529883744492,0.013039114377587611,0.018826900793498254,0.023204842856992678,0.024659208995573324,0.02370941699546086,0.021735633070659552,0.0194798839382122,0.016764082453461088,0.013514010377643843,0.009907782326697173,0.006524152218061043,0.004134834979992506,0.0035115354679463137,0.00530723316379921,0.00869086052530744,0.012252575031473381,0.014909020239400588,0.016214977371735478,0.01631886459181681,0.015398750730116295,0.01370694117005403,0.011451192037606679,0.009225121043571276,0.006895162829454543,0.0038231861396787097,9.822703775637177e-05,-0.003879019682825638,-0.0076188185865213925,-0.010215900191950294,-0.011299257550556042,-0.011314092041215518,-0.010750161625923429,-0.010453352770524909,-0.010586908971925194,-0.010883717827323714,-0.01077983976433538,-0.010022978556633106,-0.008687331381665366,-0.007203285273254165,-0.005927004447912628,-0.004650723622571091,-0.0032111983846150184,-0.001578746017085957,-0.0007031584285254426,-0.0021872055442168736,-0.00721812525816944,-0.015172616318489282,-0.024789248873261734,-0.03462847204467032,-0.04323594716541341,-0.048890168222830765,-0.04998836007209599,-0.04605563587024585,-0.038145665680381136,-0.02855872042111364,-0.020351941375850408,-0.016048208394025362,-0.01628565181550698,-0.01971380187888894,-0.02440338728844136,-0.028573564068866113,-0.03085899133972542,-0.030131808270435097,-0.02606552786718467,-0.019105340520339423,-0.010319787412031625,-0.001192894505067881,0.007013887287323252,0.013350766880738607,0.017669343510316123,0.020058667158349763,0.02017738886909057,0.017891952441138264,0.01430055888085107,0.011302783031360918,0.010456878251329786,0.011970609823827338,0.01449348967326126,0.016304020944064333,0.01701636952269518,0.017817752516561883,0.019376005875223867,0.02178015485682398,0.024555321775491995,0.026944645423525627,0.02829513349911795,0.027820228341968713,0.025356713926451696,0.021305268013860748,0.01668987337179171,0.013321088742326653,0.01259390567303633,0.014478646025508784,0.01780290886880941,0.02100845000136923,0.02321968650474515,0.023813304215542192,0.022833834077017775,0.0209639373722978,0.019064353372072868,0.018530091938099732,0.020014145372185335,0.022611225146195634,0.024481121850915614,0.024585009070996942,0.022848677724770252,0.019865736365939576,0.016630517094967805,0.013588219459313221,0.010783365245140258,0.007933996570477265,0.0053814349197941905,0.0038231861396787097,0.004223878552321362,0.006435108645732187,0.00876506319701172,0.00876506319701172,0.004906539835447258,-0.0023801317580805616,-0.011017283185816998,-0.018452366532718478,-0.022993552093118135,-0.025115735867072206,-0.02594679699935086,-0.0261100496533491,-0.026347493074830714,-0.02695595443338023,-0.028410320571960877,-0.03054734799366742,-0.03314442776767773,-0.03602348190642707,-0.0387244489005187,-0.040520145680662305,-0.04077243274989639,-0.03890252688808342,-0.03483624648483299,-0.029315581628815913,-0.0235723261561627,-0.018793697174281428,-0.015528790607804705,-0.013658884745991728,-0.012070962406010795,-0.009741004191894062,-0.007054879929845604,-0.0049772142792187625,-0.003374443712938854,-0.0011335318182788769,0.002650787955872005,0.007681708585533872,0.012831349094517948,0.016734395157956137,0.01851525744744026,0.01798099601346712,0.0150871073840583,0.010724008968316354,0.0066131948746806,0.004357442995105347,0.004847178064367554,0.008230806341585085,0.013721784817806507,0.019747014655198767,0.024644374504913847,0.0272117761405122,0.027523419486570198,0.026069053347989545,0.02388750414011857,0.0217059549322476,0.020221910655255,0.019494727585964673,0.01958377115829353,0.020459354076736616,0.021720798580000075,0.022715112366276966,0.022952555787758584,0.02234409442920907,0.020756162932135135,0.01817392680587731,0.014671567660825972,0.010427200112917834,0.005767287347521567,0.0012112627179159323,-0.0026769415291883814,-0.005570832905725104,-0.007336849716038148,-0.008004671014248768,-0.007663340372685821,-0.006832273746151364,-0.006342537761179855,-0.006461262219048564,-0.007010359059390477,-0.008049191884703896,-0.00934030811641421,-0.010646274405842097,-0.01178898804127175,-0.012545858406067027,-0.012115484192175223,-0.00978552597805849,-0.00580828090575322,-0.001504544261090977,0.0016119551305585848,0.002576586199877025,0.0013745080462397685,-0.0017271513604945172,-0.00595668533345248,-0.009815204116470442,-0.011833509827436178,-0.012011596972093891,-0.01190771890910556,-0.013599528469167824,-0.018170392167979433,-0.024863448797838115,-0.03133389649687465,-0.035459542334041985,-0.036498377906483304,-0.035073689906314605,-0.03314442776767773,-0.03269920990603345,-0.03372320183072229,-0.03422778512628348,-0.03212043584298888,-0.02737148499951956,-0.02145014238220863,-0.016686347890986834,-0.01490549475859571,-0.01610756467084927,-0.01855624459570681,-0.02001061073428746,-0.018645288168035668,-0.013733093827661106,-0.005452109363565695,0.004238718537236638,0.012727471031529613,0.017520943661163364,0.017654509019656647,0.013885028314711743,0.008854105853631276,0.005871170904765699,0.007562985043374463,0.014478646025508784,0.025252835863463365,0.03665031239353394,0.04518358758970065,0.04853753772850622,0.04715738067159495,0.04289816031884134,0.038089844041455115,0.03387514547486593,0.030120508417673494,0.026351018555635593,0.022789312290853347,0.019999301724432858,0.018352004793442022,0.01734285651650565,0.016140777447159096,0.014538011459425688,0.012831349094517948,0.01103565231437435,0.008809584983176149,0.006331225088488055,0.00419419766678151,0.0030514812842239573,0.0037786643535142814,0.006331225088488055,0.009774216968203889,0.012920392666846803,0.014434124239344356,0.014137315383945834,0.012727471031529613,0.011228583106784538,0.01017490388659074,0.009047032067494964,0.00728101617289122,0.004891699850531982,0.0019236048865816809,-0.0017271513604945172,-0.005630195592514108,-0.008761534969078945,-0.010022978556633106,-0.009369995411919161,-0.0076039786016061164,-0.005674716462969236,-0.0040719458966893265,-0.0029737503845869017,-0.002038801116517613,-0.001370979818306993,-0.0016974704749546652,-0.003893859667740914,-0.00818275541177858,-0.014252511613881769,-0.021019759011223826,-0.027163719716449895,-0.031882992421507265,-0.03486592462324495,-0.035518898610865886,-0.03372320183072229,-0.02993888663511791,-0.025160257653236637,-0.021093968092893208,-0.019535714734231227,-0.02104944630672878,-0.02480408336392121,-0.028187711641138737,-0.029107816345746253,-0.026985632571792182,-0.022874821225284326,-0.01815554852022696,-0.014371233324622574,-0.012486492972150123,-0.012293571336832936,-0.012323249475244887,-0.010957926908993094,-0.007514935029277261,-0.002484015315324694,0.002828874184820417,0.006657715745135727,0.008408891654824197,0.00831984899820464,0.0072364934710174925,0.006360905974027907,0.007147451730107236,0.010916930603633542,0.01716476937184794,0.02408043493252876,0.029779177776110548,0.03362285840563183,0.03524046804111772,0.03402355448111168,0.02970496869444117,0.023160321070828247,0.016289186453404856,0.011169217672867634,0.008957989410875408,0.0099523041128616,0.01311332345925699,0.016897638654861373,0.019969623586020908,0.021394311586189603,0.020978771862957275,0.01939084036588334,0.01780290886880941,0.016927325950366324,0.016808604239625515,0.01701636952269518,0.016511786227133996,0.014523167811673211,0.011317626679113393,0.0075926659289143154,0.003986430552293246,0.0003950364425804719,-0.0030776339418310344,-0.006194133333480596,-0.00874669406845437,-0.01067595254425405,-0.012397449399821268,-0.014341555186210624,-0.01643406082175274,-0.01811103589115553,-0.018660131815788142,-0.017799383388004533,-0.01521713810465371,-0.010468187261184385,-0.0039383814539053425,0.0030811621697638095,0.009225121043571276,0.013321088742326653,0.014701254956330923,0.013202367031585848,0.008898627639795703,0.0017009977871781405,-0.007930468342544489,-0.019105340520339423,-0.03008729564136367,-0.039318057454222746,-0.045402652725531914,-0.04762872371956731,-0.04654536636096156,-0.043310147089989794,-0.03879864882509509,-0.033367036698499865,-0.027089510634780514,-0.02045582859593174,-0.014489955035363383,-0.009726169701234586,-0.006060568890696612,-0.003136995712910738,-0.00016890148152787636,0.0035560572541107416,0.008527616112692904,0.01430055888085107,0.019791536441363194,0.023932025926283,0.0261580969203184,0.02623229684489478,0.024392087435679756,0.02118653714602694,0.017298334730341224,0.013276566956162226,0.009462564465052892,0.006628034859595875,0.005470477576413747,0.0060195753324649584,0.007904315684937413,0.010620121748235022,0.013766306603970935,0.017060891308859606,0.020503875862901044,0.02390234778787105,0.026588471134210208,0.028028002782131377,0.028591933197423466,0.028962951134491367,0.029378481700630697,0.029586246983700357,0.029111350983644126,0.028117037197367235,0.026558792995798258,0.024451443712503663,0.021587233221506793,0.017595143585739745,0.013350766880738607,0.009803895106615841,0.007488782371670184,0.006138298874624367,0.004876858949907406,0.0031108430553036617,0.0005582816793333781,-0.0024543344297848417,-0.005377906691861415,-0.007989830113624192,-0.010126856619621438,-0.011774153550612274,-0.01356985033075587,-0.01601852109852041,-0.019105340520339423,-0.02234056894840419,-0.02508604857156725,-0.026466214785571523,-0.02636233672258319,-0.025219613930060537,-0.024091734785290364,-0.023127108294518424,-0.021687585803690245,-0.019758323665053368,-0.017725174306335155,-0.01613725196635422,-0.015870121249367652,-0.017398687312524683,-0.020500350382096168,-0.02412142208079531,-0.0272230759932738,-0.029167181779663157,-0.029449156144402203,-0.02751988484867232,-0.023512960722245794,-0.018689809954200096,-0.01484612932467881,-0.013183997903028495,-0.01391118097231882,-0.016463738960164693,-0.01959508016814813,-0.021999229149748244,-0.02272642137613157,-0.021702429451442722,-0.019535714734231227,-0.01673086967715126,-0.013525328544591443,-0.00963712612890573,-0.005274024050326583,-0.0011038509327390249,0.002576586199877025,0.005336914049339062,0.007666868600618596,0.009418042678888464,0.010308469245084025,0.009744538829791937,0.008512775212068328,0.007741070356613576,0.007889475700022136,0.00898767029641526,0.01103565231437435,0.013662419383889603,0.01674923880570861,0.019910258152104003,0.022878355863182206,0.025579322857273837,0.02777570655580429,0.029675290556029216,0.030654760694553633,0.02976433412835807,0.026900123637361203,0.022908034001594156,0.018589457372016636,0.01412247173619336,0.009685173395875032,0.006360905974027907,0.004876858949907406,0.005440796690873895,0.008097241898801101,0.012297096817637809,0.0173131783780937,0.02259638149844316,0.027627306706651526,0.03181231797773576,0.03430551968875773,0.034572650405744296,0.03302924069483479,0.030773491562387442,0.029051994706820225,0.027953802857555,0.026855601851196773,0.025312192140287272,0.023086121146251866,0.020310954227583854,0.016897638654861373,0.012549383886871903,0.0075926659289143154,0.0026953097420364335,-0.0022020464448414493,-0.00758913770098154,-0.013183997903028495,-0.017754861601840106,-0.02011449795436879,-0.02030741958968598,-0.019684123740476987,-0.019995767086534985,-0.02201407279750072,-0.025100892219319732,-0.028276755213467595,-0.03068090419506771,-0.03189782691216674,-0.03134873098753413,-0.029152338131910677,-0.026495902081076474,-0.024566639942439593,-0.023883969502220697,-0.024284665577700548,-0.025457066508635152,-0.02734180686110761,-0.029434312496649722,-0.030265373628928383,-0.028721963918018876,-0.025189935791648587,-0.02048550673434369,-0.016003686607860935,-0.012798145475301118,-0.011091492267486378,-0.010557230833513242,-0.010883717827323714,-0.011655422682778468,-0.012620058330643408,-0.012931701676701404,-0.012293571336832936,-0.011284413902803565,-0.010735317978170953,-0.010616596267430145,-0.010215900191950294,-0.009177064619508974,-0.007143923502174461,-0.0035080081557228382,0.0015525933594788804,0.007384899730135352,0.013246888817750276,0.018411370227358927,0.02240345986312597,0.025208314077298934,0.026662680215879586,0.02657363664355073,0.02529734849253479,0.023130642932416297,0.020459354076736616,0.0180551959380435,0.016541473522638947,0.016734395157956137,0.018708179082757445,0.021809842152328934,0.024911496064807415,0.02709304527267839,0.027656984845063477,0.025831609926507928,0.02140914607684908,0.014894176591648111,0.0066873975463848795,-0.0024246535442449895,-0.011091492267486378,-0.01793294874649782,-0.022444447011392525,-0.024447909074605784,-0.024180787514712216,-0.022385090734568618,-0.02020353236960465,-0.018482044671130432,-0.01684959138789207,-0.014015059035307151,-0.008880258511238354,-0.0017568322460343691,0.006212501546328647,0.014463802377756307,0.023175164718580724,0.033207327839492505,0.04456029174049165,0.05512670713828356,0.06174556384356587,0.06131519878676706,0.05290064530134117,0.03862409631833525,0.022685425070772015,0.009032191166870387,-0.0007179989628662987,-0.007129082601549884,-0.01178898804127175,-0.015484268821640277,-0.01828911387872024,-0.01993641080971108,-0.020990080872811876,-0.021984394659088767,-0.02260769050829776,-0.02250381244530943,-0.021835985652843008,-0.020901037300483018,-0.020292575941933504,-0.02042614130042679,-0.020811993728154163,-0.02130173337596287,-0.02193987287292434,-0.02263737780380271,-0.022800621300707945,-0.02231088165289924,-0.0209752463821524,-0.018496879161789905,-0.01490549475859571,-0.010423665475019958,-0.005570832905725104,-0.0017568322460343691,-0.00033214662670985243,-0.0018013531164894974,-0.005837961791293072,-0.010854039688911762,-0.014682885827773573,-0.01558815604172161,-0.01339176318609816,-0.008954460267233334,-0.00324087927015487,0.0020423293444503886,0.005529840263202751,0.006702237531300155,0.0056634037902774355,0.0034224928113267576,0.0018642431155019767,0.002235254642604777,0.0053665949348789144,0.011065339609879302,0.017669343510316123,0.023056443007839916,0.0261580969203184,0.026736880140455967,0.02550511377560446,0.02299707757392301,0.0198508927181871,0.01679376059187304,0.014730933094742875,0.015205829094799108,0.018901109875167632,0.024911496064807415,0.03053603898381282,0.0334596149087266,0.03245045747469723,0.027924115562050048,0.02137946793843713,0.014404446100932403,0.00794883655539254,0.0027843523986559892,-0.001118691833363601,-0.004131307667769031,-0.0066987083876580795,-0.009280951839590306,-0.012263884041327982,-0.01558815604172161,-0.018585922734118764,-0.020648750231248927,-0.021910194734512386,-0.022103116369829576,-0.021183011665222063,-0.01998093259587551,-0.019891889023546654,-0.02122753345138649,-0.023602004294574656,-0.026570102005652855,-0.02993888663511791,-0.03366384555389838,-0.036765499466376875,-0.03804177846029981,-0.03704747383111592,-0.033871610836968054,-0.028677442131854445,-0.022073438231417622,-0.015335859815394518,-0.010008134908880629,-0.007381370586493277,-0.00744073235757298,-0.008835737640783225,-0.009904247688799299,-0.009369995411919161,-0.006639346616578375,-0.0024394935291602656,0.0015822742450187326,0.004609730980048739,0.006346065989112631,0.007384899730135352,0.008453413440988624,0.010397512817412882,0.013395288666903035,0.016526629874886473,0.018366848441194496,0.018678500944345495,0.01802551779963155,0.017476421874998937,0.017817752516561883,0.01928696230289501,0.021423989724601557,0.023279042781569056,0.024926339712559895,0.026469749423469396,0.02728597606508858,0.02681108006503235,0.02511927050497008,0.022878355863182206,0.02054839764906547,0.017891952441138264,0.014834820314824207,0.011510548314430583,0.00831984899820464,0.0061679806758735195,0.006093778004169239,0.00817144457050538,0.011644113672923865,0.015057420088553349,0.017031204013354655,0.01723897845351732,0.01605173387483024,0.014211515308522216,0.012504862100707476,0.011213739459032061,0.010204591182095693,0.009180599257406849,0.008112081883716376,0.007013887287323252,0.006138298874624367,0.005633722904737583,0.005292392263174635,0.0049807425071515385,0.003852866109509262,0.0011815818323760803,-0.002558217071319674,-0.006134771562400891,-0.008212437213027732,-0.008093713670868325,-0.005897323562372775,-0.0023207699870008577,0.0008996125040381861,0.0023242982149336328,0.0013151453594507645,-0.0017271513604945172,-0.006357378661804432,-0.012486492972150123,-0.019135027815844374,-0.024655683514768448,-0.02747536306250789,-0.02651073657173595,-0.02186567294834796,-0.01543974703547585,-0.01060175261967767,-0.00904350292385289,-0.010497865399596337,-0.013109797978452116,-0.014727407613938,-0.014831285676926332,-0.014267346104541246,-0.013970537249142724,-0.014653198532268619,-0.01665666975257488,-0.020069976168204363,-0.024640839867015974,-0.02927105984265149,-0.03312958411992525,-0.03594927282475769,-0.03781917868657066,-0.03870960525276623,-0.03854636175586099,-0.037641091541912954,-0.03591959468634574,-0.03367868920165087,-0.03169006162909708,-0.030413782635174143,-0.029256225351992012,-0.027267597779438227,-0.02366136972849156,-0.01825943574030829,-0.010987605047405046,-0.0023059290863762815,0.007444260585505756,0.017847430654973837,0.02820608992678909,0.037184573827507075,0.04344725624347395,0.04702381531310167,0.04876014665932836,0.04947249523795921,0.049591216948700015,0.049190520873220164,0.04804780723779051,0.04629662308671834,0.04438220459583394,0.04239358618037315,0.03984101903543428,0.03571536404117395,0.02928943812830184,0.020904571938380894,0.01222289689306143,0.00523303049209493,0.0016861578022628648,0.001968126672746109,0.004550369208969034,0.0068209610734595635,0.007711389471073724,0.0073700588295107766,0.0065538331036008955,0.0053814349197941905,0.0044613256366401784,0.004624570964964015,0.006257023332493075,0.00891346762471098,0.011317626679113393,0.012282253169885335,0.01140667025144225,0.00869086052530744,0.004758135407747998,0.0010776982751319482,-0.001192894505067881,-0.0019200775743582054,-0.0019497584598980574,-0.002053641101432889,-0.0024543344297848417,-0.0022910891014610055,-0.0007179989628662987,0.0018197222450468487,0.00404579232337295,0.004520687407719883,0.002205573757064925,-0.003136995712910738,-0.01097276139965257,-0.01956539287264318,-0.02677786728872252,-0.03100740034597118,-0.03179393969208541,-0.029805321276624625,-0.02639201486099514,-0.02263737780380271,-0.018882731589517282,-0.015276503538570614,-0.012070962406010795,-0.009666804267317681,-0.008375682541351568,-0.008420203411806697,-0.009295795487342782,-0.010468187261184385,-0.01161090089661404,-0.012798145475301118,-0.014118946255388483,-0.014994529173831568,-0.014578998607692241,-0.0125013366199026,-0.00874669406845437,-0.004353914767172571,-0.0007476798484061507,0.0010925382600472243,0.0009589747329725402,-0.00031730618393992644,-0.0018755557881937775,-0.0031073148273708857,-0.0037899761104967823,-0.0035525290261779665,-0.0018903957731090531,0.0016267960311831605,0.006524152218061043,0.01140667025144225,0.015027741950141395,0.016986682227190228,0.017298334730341224,0.015843968591760578,0.012415818528378617,0.007666868600618596,0.0033779710251623297,0.0011815818323760803,0.002561745299252449,0.007741070356613576,0.015680725094855342,0.024095278580281234,0.03050636084540087,0.033340893197985784,0.03291051898409399,0.030803169700799393,0.028131880845119712,0.02526767035412284,0.022106651007727452,0.018485570151935304,0.01370694117005403,0.006999047302407975,-0.001356138917682417,-0.009800369625810965,-0.015751399538626844,-0.017354165526360255,-0.014860963815338286,-0.009844891411975394,-0.0040719458966893265,0.0011815818323760803,0.004802656278203126,0.0058860118053902745,0.00426839942277649,0.000780888687165988,-0.003344761911689702,-0.006669027502118227,-0.008331160755187141,-0.008568608755215257,-0.008301479869647289,-0.008316320770271864,-0.008761534969078945,-0.009310629978002258,-0.010260421978114722,-0.012026440619846368,-0.014371233324622574,-0.01699799123704483,-0.019253749526585182,-0.02094555908664745,-0.021925029225171862,-0.022830299439119902,-0.024032378508466457,-0.025457066508635152,-0.026614623791817282,-0.02740116313793151,-0.027801859213411363,-0.027905737276399695,-0.026985632571792182,-0.024358874659369933,-0.02119784615588154,-0.018719488092612046,-0.01766581802951125,-0.018125870381815005,-0.01885305345110533,-0.018363322960389623,-0.015632677827886035,-0.011165692192062758,-0.006520623074418968,-0.0031963574839904423,-0.0025878988725688257,-0.004754607179815223,-0.007663340372685821,-0.009013822038313038,-0.007396211487117852,-0.0027214623996435097,0.00463941186558859,0.014211515308522216,0.024718574429490228,0.0342609979025933,0.04092437639404003,0.04323949096040429,0.0411915071110266,0.03598249475816052,0.02942300348679512,0.022685425070772015,0.01660082979946285,0.01185187895599353,0.009254799181983228,0.009536764389629273,0.012490018452954998,0.016704717019544183,0.020355476013748285,0.022700268718524493,0.023842982353954146,0.024124956718693188,0.023872669649459093,0.02311579928466382,0.021824676642988407,0.019049509724320395,0.01464188952241402,0.010308469245084025,0.008275327212040213,0.00987809503119222,0.014834820314824207,0.02152786778758989,0.027627306706651526,0.03090705692088072,0.03072896977622301,0.027731184769639858,0.02348681722173172,0.02007350164900924,0.018233283082701213,0.017149934881188465,0.015161307308634681,0.010575599962070593,0.003288928368542774,-0.005170140493082451,-0.01272393639363174,-0.017858739664828437,-0.020515184872755644,-0.021910194734512386,-0.02339423901150499,-0.025249292068472488,-0.0272230759932738,-0.02873680756577135,-0.02961239964130744,-0.029285903490403963,-0.028143189854974313,-0.027564406634836745,-0.028870372924264635,-0.03206107040907198,-0.03639449068640197,-0.03994136246052474,-0.04146992852368177,-0.04054982381907425,-0.037225551818680626,-0.032446922836799355,-0.027712815641082505,-0.023780091439232365,-0.02033709772809793,-0.016552782532493548,-0.012620058330643408,-0.008954460267233334,-0.005081097836462895,-0.00034698716105070846,0.00501042339269139,0.009566451685134224,0.012133853320732574,0.012445496666790571,0.010679487182151925,0.006880322844539268,0.0017603595582578449,-0.0031073148273708857,-0.006312856875640004,-0.007069720830470179,-0.0057934400051286436,-0.0031073148273708857,0.00033567457992983793,0.0037935052541388575,0.006865481943914691,0.009477408112805369,0.011792522679169627,0.014211515308522216,0.016541473522638947,0.018337170302782545,0.019316640441306963,0.019821214579775148,0.01992510179985648,0.019346318579718913,0.01798099601346712,0.016289186453404856,0.01493869837781254,0.01441928059159188,0.015190985447046631,0.01674923880570861,0.018010674151879073,0.017728708944233028,0.01530970715778744,0.010946608742045495,0.0058860118053902745,0.0014190289166948966,-0.001430341589386697,-0.0017568322460343691,-0.00030246574117000045,0.0013596671456151926,0.002294617329393781,0.002472702642632893,0.002992118597434953,0.004891699850531982,0.008453413440988624,0.01271262738377714,0.016155621094911574,0.01771386529648055,0.017402221950422556,0.015591681522526485,0.012920392666846803,0.01051623452815369,0.009507086251217321,0.010486556389741738,0.01274231467928209,0.014166993522357788,0.01296491445301123,0.00824564632650036,0.000528600702222596,-0.009073183809392742,-0.018956940671186664,-0.026837223565546423,-0.03100740034597118,-0.030814469553560996,-0.027430850433436463,-0.022874821225284326,-0.018452366532718478,-0.015009372821584046,-0.012649736469055359,-0.011581222758202087,-0.011714788116695372,-0.012842667261465547,-0.013822137399989965,-0.013658884745991728,-0.01235292761365684,-0.01048303090893686,-0.008761534969078945,-0.007707861243140948,-0.007069720830470179,-0.007114242616634609,-0.008316320770271864,-0.01067595254425405,-0.014178302532212387,-0.017680652520170727,-0.019550558381983704,-0.018274279388060765,-0.0132433541798524,-0.005229502264162155,0.004164516781241658,0.012445496666790571,0.017520943661163364,0.0187972226550863,0.01712024758568351,0.013632741245477652,0.009566451685134224,0.005975054462009831,0.0035115354679463137,0.002903076856524697,0.003941909681838118,0.005841490019225847,0.00757782502828974,0.008260487227124937,0.008112081883716376,0.007622346814454168,0.00691000373007912,0.006197661561413371,0.005767287347521567,0.006123458889709091,0.0069545255162435475,0.008008198326472244,0.009314164615900133,0.011213739459032061,0.01367726303164208,0.01627434280565238,0.01820360494428926,0.01864882280593354,0.017847430654973837,0.016630517094967805,0.01572524688101977,0.015101941874717776,0.014463802377756307,0.013217201522245321,0.01073884345897583,0.006791280187919711,0.002027488443825813,-0.0026621006285638057,-0.005704397348509088,-0.006268335089475575,-0.0051107787220027465,-0.0037751361255815062,-0.003730614339417078,-0.005214662279246879,-0.007425892372657704,-0.009325473625754734,-0.010720474330418478,-0.012189684116751604,-0.014371233324622574,-0.017294809249536348,-0.020693272017413354,-0.02461115257151102,-0.028721963918018876,-0.03226883569214164,-0.03372320183072229,-0.031601018056768224,-0.026124884144008577,-0.018956940671186664,-0.012649736469055359,-0.008984141152773186,-0.008301479869647289,-0.009622282481153254,-0.011536700972037659,-0.012620058330643408,-0.012694258255219786,-0.01253101475831455,-0.012486492972150123,-0.012174840468999127,-0.011328935688967996,-0.009800369625810965,-0.007693020342516372,-0.005140459607542599,-0.0015490651315461052,0.0034818545824064615,0.009789051458863366,0.015918168516336956,0.019821214579775148,0.019836058227527622,0.0158291249440081,0.009477408112805369,0.0032295665974630696,-0.0009109250851590568,-0.0022168864297567254,-0.001222575390607733,0.0013003053745354884,0.0045948900794241625,0.008037880127721397,0.011466026528266154,0.015161307308634681,0.01961344929670548,0.024807618001819083,0.02970496869444117,0.032405944845625805,0.031337421977679525,0.026336184064976117,0.01850041379968778,0.010160069395931266,0.003585738139650594,-3.5337212728659304e-05,-0.00016890148152787636,0.0030514812842239573,0.008557296998232756,0.014656733170166495,0.01943536215204777,0.021394311586189603,0.02044451958607714,0.017194456667352892,0.013157845245421417,0.010145225748178789,0.00891346762471098,0.009150914709029796,0.010501400037494214,0.012771992817694044,0.014953542025565016,0.01585881223951305,0.014894176591648111,0.012133853320732574,0.008527616112692904,0.00523303049209493,0.0023242982149336328,-0.0010148082761194687,-0.005021736065383191,-0.008791215854618797,-0.011284413902803565,-0.01178898804127175,-0.010750161625923429,-0.009592604342741302,-0.009770682330306014,-0.012085796896670272,-0.015706877752462416,-0.01919438409266828,-0.02196955101133629,-0.023824613225396796,-0.02477440522550926,-0.0249970141563314,-0.0250563704331553,-0.02548674464704711,-0.02639201486099514,-0.027089510634780514,-0.026896588999463327,-0.025457066508635152,-0.023409082659257462,-0.021168168017469586,-0.018749166231024,-0.016345017249423884,-0.014771929400102428,-0.014193146179964864,-0.014252511613881769,-0.013747928318320583,-0.012427127538233218,-0.010809517902747335,-0.009369995411919161,-0.008242118098567584,-0.007366530601578,-0.0067135502039919566,-0.006357378661804432,-0.006387058631634984,-0.007040039944930329,-0.008331160755187141,-0.010126856619621438,-0.011625744544366514,-0.011685109978283419,-0.009518395261071922,-0.004917852508139059,0.0015674333443941564,0.00824564632650036,0.013202367031585848,0.015042585597893872,0.014063115459369457,0.011718313597500246,0.009551608037381748,0.008928308525335556,0.010545921823658641,0.014226358956274693,0.01876754451667435,0.023041599360087442,0.026707202002044017,0.029675290556029216,0.03222785770096809,0.0341422761918525,0.03540371153802295,0.035656007764350045,0.03482493747497839,0.032762109977848224,0.029734655989946117,0.02630650592656416,0.023368086353897914,0.02151303329693041,0.020147710730678618,0.01817392680587731,0.015131629170222727,0.011317626679113393,0.007637186799369444,0.00501042339269139,0.0035412163534861655,0.0032295665974630696,0.00441680476618505,0.006776439287295136,0.009551608037381748,0.011881566251498481,0.012534540239119426,0.011050495962126827,0.00817144457050538,0.005143987835475375,0.003036640383599381,0.002205573757064925,0.0015674333443941564,-0.0003766681381614905,-0.0040719458966893265,-0.008494406083510977,-0.012516171110562076,-0.015706877752462416,-0.018422679237213527,-0.021138489879057636,-0.0239433349361376,-0.026570102005652855,-0.02848452049653726,-0.029627234131966915,-0.0298201649243771,-0.028410320571960877,-0.025175092143896113,-0.020737793803577785,-0.0165824606709055,-0.014104102607636006,-0.01450479868311586,-0.01733933103570078,-0.021153324369717112,-0.024195622005371693,-0.025412544722470728,-0.02453695264693464,-0.022132803665334527,-0.01867496630644762,-0.01490549475859571,-0.0117593099028598,-0.009548082556576874,-0.008286638969022713,-0.007514935029277261,-0.006772911975071659,-0.00580828090575322,-0.004131307667769031,-0.001652948688790237,0.0018494031305867006,0.0058860118053902745,0.010130382100426313,0.014003750025452552,0.017402221950422556,0.01992510179985648,0.020949093724545325,0.020266432441419426,0.017891952441138264,0.014063115459369457,0.009388364540476512,0.0045948900794241625,0.0003950364425804719,-0.001964598444813333,-0.001445182490011273,0.0016416360160984365,0.006583513989140748,0.012920392666846803,0.020132867082926144,0.026929801775773154,0.031604552694666097,0.03329637141182136,0.03225753583938004,0.029556568845288407,0.02612841878190645,0.022047285573810547,0.01738737830267008,0.012579062025283853,0.008023039227096821,0.004223878552321362,0.0013003053745354884,-0.0009851273905796167,-0.0026917815141036575,-0.00405710499606475,-0.0055263120352699755,-0.007099401716010032,-0.008583448740130534,-0.009236430053425877,-0.008064032785328473,-0.004813968950894926,-6.501815321106931e-05,0.004446485651724902,0.0073700588295107766,0.008394050754199621,0.007755911257238152,0.0055001593776628985,0.0016267960311831605,-0.003359602812314278,-0.008301479869647289,-0.01216000597833965,-0.014386076972375051,-0.015870121249367652,-0.0176954961679232,-0.01974348001730089,-0.021034602658976304,-0.021242367942045967,-0.02020353236960465,-0.017992305023321723,-0.01521713810465371,-0.013050432544535211,-0.012219362255163554,-0.012902023538289452,-0.01428218975229372,-0.015543634255557182,-0.016181773752518648,-0.016003686607860935,-0.015706877752462416,-0.015855277601615175,-0.016567626180246025,-0.017279965601783874,-0.01744320909868911,-0.016805069601727642,-0.015128094532324854,-0.012249049550668509,-0.007767223014220653,-0.002409812643620414,0.0021313720010699448,0.004060633223997526,0.0028140332841958414,-0.0001985823670677284,-0.0027066224147282336,-0.003033112155666606,-0.0008070418026277146,0.0031850457270079413,0.00817144457050538,0.012994601748516181,0.01646726444096957,0.01790679608889074,0.01790679608889074,0.017699030805821078,0.017654509019656647,0.01720929115801237,0.016066577522582715,0.014463802377756307,0.013009436239175658,0.012801670956105994,0.01449348967326126,0.017595143585739745,0.020503875862901044,0.02178015485682398,0.02126073707060332,0.019910258152104003,0.01887142257966268,0.01864882280593354,0.018826900793498254,0.01832232665503007,0.016986682227190228,0.015413594377868772,0.013573375811560748,0.011658957320676342,0.010545921823658641,0.010842730679057161,0.011273104892948966
