-0.09077132998001682,-0.062330243333461176,-0.04422565732294121,-0.03200268090397163,-0.022705555474503054,-0.015384793189139843,-0.009708846148179373,-0.002563483228442983,0.01603084623726741,0.04685207744145516,0.056166626253474086,0.06096111114407719,0.06630426725639356,0.07073566938081158,0.07166137233329072,0.06524697483005146,0.05113184161153767,0.03548432234767717,0.025078072067472184,0.02584242339660731,0.042671461363210955,0.08214820635539286,0.12326278156248632,0.12112025255316546,0.10499906055922105,0.09477207049613605,0.0942735632949525,0.09962527035717894,0.10012167522627788,0.09970590158090237,0.10520057809129237,0.11415172366215597,0.12121314336187893,0.1238514323062653,0.12692648160251546,0.13847440060409094,0.15218494514246267,0.13097272279260802,0.09909600421302889,0.08051010748485846,0.07192941019243403,0.06952770001400627,0.07236910996272597,0.07774105037726553,0.0718330013846279,0.04258217860667384,0.02181335265413685,0.010444276051328666,-0.0012978654375846285,-0.019316290932923308,-0.04945461162242617,-0.08961080782009623,-0.11778723825381897,-0.12374615480537073,-0.12183505852963507,-0.12087291271370373,-0.1282331981305454,-0.14876238656452118,-0.18167796547110196,-0.21549742419077442,-0.22873883998232647,-0.21267360037971025,-0.17769029258138158,-0.1410657502518236,-0.12200838685054559,-0.13657828866539745,-0.1879238510566658,-0.25629628991919395,-0.3158846318734848,-0.349575681639716,-0.35201667739742387,-0.32656575092683066,-0.2873674308690361,-0.25707293221672467,-0.25145393173853714,-0.2698532362380136,-0.30160174016431374,-0.33256152455447036,-0.3467485462427864,-0.3276970083875458,-0.2670525525184623,-0.17946215221326914,-0.09208228452423586,-0.02725361736336962,0.012076599537830055,0.04081367633119229,0.06593586049614729,0.08774742250146579,0.1009927913513776,0.10300944743093962,0.09825799275203453,0.10323562239504668,0.14502109075170327,0.20566357820632483,0.2669425126002676,0.3185924510260435,0.3509598180481138,0.3622809383606771,0.3603060148490246,0.36505033370157614,0.3791603306740893,0.39977763440455266,0.4172843997927588,0.4071272577670972,0.32984601091882687,0.21024863833041707,0.12016532325054258,0.07740901717380563,0.06502235769476172,0.05984340446658152,0.034164224281987045,-0.02259826269419312,-0.07292796748540253,-0.10074994511125465,-0.11251357682939554,-0.11442854630862345,-0.10889166896072504,-0.09395384786574536,-0.06249407046576571,0.008900450076215207,0.1496611440108558,0.3012274371790212,0.34219438729345614,0.3035871844679787,0.23456388499196174,0.1635412818933949,0.11206682740966198,0.08729451010526763,0.08132990896702506,0.08528197182042402,0.09620196115883725,0.11554376206868916,0.14313947094713605,0.17832532169372892,0.21812597962009103,0.25450602269439887,0.27346308849527984,0.2531292402757314,0.17747886778812993,0.06121425455791728,-0.05539664638367198,-0.14118407287553064,-0.19197174824755517,-0.21712622182830116,-0.2245692881102637,-0.209164339267311,-0.16249552906072287,-0.09537212533472163,-0.03845290899984827,-0.007873434786729463,0.001696406450856337,-0.002169336218922066,-0.014122870755342617,-0.03731496303134503,-0.0978913031333662,-0.10755253389585244,-0.05271715759451829,-0.03712862932531606,-0.033580855504766735,-0.03542422400219928,-0.03754533209753083,-0.04552210770834663,-0.05852424090553689,-0.0733191943284727,-0.07495334551970548,-0.02511655776149805,0.014628828380350917,-0.012157534229921246,-0.06313920523849333,-0.1168821461851738,-0.15423243219882643,-0.160380798328387,-0.12632309264125072,-0.060493177844918054,0.009003570245283482,0.060250559940793126,0.08991704412328944,0.10188947212626913,0.10190245010297753,0.09654203717595451,0.09107362420398604,0.08559218386888374,0.08013269566677836,0.08110937286536042,0.10098906401359353,0.14117637767965105,0.1820772177337253,0.20364741516945187,0.20748573966317232,0.20656072506464607,0.2054723368647832,0.21013445959365062,0.2244763854928645,0.24942800985256675,0.28491704394144973,0.3231977456129139,0.3549053755656948,0.35811245346335024,0.30139957393653805,0.17765714410098812,0.0392273087707078,-0.06273443920207736,-0.11621524732402996,-0.12090562898896029,-0.09701661141744003,-0.08953165341771627,-0.13458516801252957,-0.2272993964487546,-0.330723044491108,-0.3850250987032336,-0.3717806739447747,-0.3313598640747724,-0.29739515973373587,-0.2796308004997103,-0.27408169831465734,-0.2790666338248197,-0.2975630280293502,-0.33898653102446047,-0.40354786797851216,-0.4814850670189427,-0.557082446582112,-0.6151358088623886,-0.6578545120884839,-0.6864033430274872,-0.6943702839056175,-0.6789488532976345,-0.6425946578430316,-0.5858419360205522,-0.5140422375292693,-0.4375862183078201,-0.3644798098535284,-0.29422953249328887,-0.22517917961254033,-0.162583393310778,-0.1108134329569922,-0.07306726796699294,-0.04614369014565096,-0.02433926823752229,-0.012509667898590045,-0.009900348472463572,-0.010358505400865482,-0.004335578821752522,0.007971796745820619,0.02670205544925888,0.04797460054119342,0.06238727750477123,0.06014620471662425,0.03900884565286195,0.01027359080111147,-0.015026102701613787,-0.033856371579882125,-0.04361650414580826,-0.02966116612574629,0.017806066216021696,0.04480674032841197,0.04856900291565655,0.04383629008806737,0.036937603689055104,0.038218458457920504,0.06434062984346076,0.12926087633290817,0.23321070476134823,0.36321401860875296,0.5142461091263072,0.6833802240096204,0.7068839852357945,0.5209368936810312,0.3710643157407244,0.28756687170337925,0.24261918823969453,0.22418460814129643,0.22915564241554998,0.26629399572875373,0.35724004256789343,0.45938787925076374,0.3876731508389067,0.28236676718319526,0.21796806202280483,0.17974647700138524,0.15773253475687773,0.1489709038937465,0.14995067776743273,0.155164543679213,0.15771343632625068,0.1507325385024632,0.13001136669589622,0.09176877311584854,0.046297276273562435,0.009640873730175793,-0.016450509931814405,-0.04067391792011819,-0.07673864041063035,-0.13106374434604925,-0.19515861970923679,-0.24241557051612322,-0.27532404451676834,-0.3116837348973975,-0.3616681081200954,-0.41587798594487513,-0.4780494714644281,-0.5613136789913739,-0.6553258517650844,-0.6983917210637708,-0.6706442722922219,-0.6197054099271053,-0.5589074739038964,-0.4838975249637595,-0.40008581734996473,-0.329053584306309,-0.28563343331086666,-0.2730799834685556,-0.29370408912243684,-0.3594959808238745,-0.41678344194077654,-0.2890344909225841,-0.18270760044708206,-0.14399481540978817,-0.1481955081221527,-0.18419278212048518,-0.2346438906955619,-0.2748744437483008,-0.2934631764888204,-0.2875548371597,-0.2529869116606814,-0.1909959794626573,-0.1148917785636332,-0.042779792835374676,0.013164660662448056,0.05025176002373209,0.0711704175720012,0.07798681742607537,0.06558649022850895,0.05047934836022941,0.044913799484638806,0.04736233029342621,0.055609980157689295,0.07113672743838842,0.09579776390100651,0.10529244227977762,0.1007996434160554,0.11353234105447318,0.14733390135606278,0.20321311162695604,0.2735261426682102,0.3292686152530083,0.3397066840401428,0.3163617986719937,0.2901425295700337,0.27562871086389457,0.27219865730769455,0.27709755128209496,0.28664736636772736,0.29640015649224044,0.2983419507533978,0.26422881404355,0.13359235199886463,0.009976329628596025,-0.03359789563003599,-0.04272044998211029,-0.0404637101355083,-0.032421739778548536,-0.017317507241259657,0.008707206927358005,0.047480065679093214,0.0935737563167738,0.13508100982187052,0.15288872969443953,0.13670755855111566,0.09959667417171948,0.05739574785792983,0.009551615437142632,-0.06098341402556121,-0.1521559790760426,-0.21876228020664376,-0.2348477281785258,-0.2150364172207508,-0.18292659461873687,-0.15383261473917134,-0.13354528090275197,-0.11910516707256233,-0.10815346588269388,-0.1010789592403247,-0.10205233895130884,-0.1148405162441247,-0.13920371537944692,-0.17483969711696312,-0.22058546385720554,-0.2715113464323015,-0.2959452627002488,-0.2663297900579659,-0.2271266890233897,-0.20546920691571818,-0.1975716020261487,-0.19002158831166982,-0.17585245745971428,-0.14841321770341684,-0.10129600497220467,-0.032642342021281606,0.0543564256752757,0.14344638362970522,0.20044466996286828,0.19923768232236605,0.15314116731008107,0.1093327206347746,0.09201583197879556,0.09443101849472652,0.10302666523355514,0.11038450984839147,0.10628087051170207,0.08117444900504017,0.07000973128215411,0.10354997818855788,0.1468646183288258,0.17574510403239638,0.20807412370634432,0.2495251992395635,0.28964370573926934,0.3175066361301799,0.3291713954350942,0.32700716956416204,0.30684564146625626,0.25309716894707873,0.14922257566091565,0.03347240995703635,-0.03195449498736971,-0.033004590079259634,0.017529065047590244,0.09628272950419377,0.17488103678623856,0.24014363052310722,0.30263051845484834,0.3831087059632331,0.48998382151012465,0.5812625101435556,0.5819956912105322,0.5142428493204205,0.4337930987051643,0.37233626570818884,0.3336828328818372,0.3186725765556359,0.32085355532951804,0.2613969780364482,0.1242199471236914,0.03812791700869628,-0.015402018653911114,-0.05593511015711422,-0.08975971217043806,-0.11237875195030501,-0.1219853624080764,-0.12133159042310841,-0.11505362791994451,-0.11032085846282413,-0.11174455821408134,-0.12508779095086003,-0.15082953429057494,-0.1822200702333609,-0.21139621475421916,-0.2237464460897012,-0.19839540443152384,-0.14670450082775796,-0.10100827138078751,-0.0724139636243559,-0.05809111358119695,-0.05244104571193082,-0.05333839360763311,-0.06188841575487362,-0.08216376150886208,-0.11636248630781772,-0.13957525309875665,-0.13452796319897017,-0.1222425483820222,-0.10683614352139256,-0.08078641739490189,-0.032729969068540636,0.051821754700641036,0.16028723900727182,0.22472857956045175,0.2226608604337437,0.1876362594285199,0.14331323971355076,0.10060308356510492,0.06618267770983613,0.04879976149350361,0.06848238541564174,0.1739180426140472,0.25104113608844225,0.19993053469131072,0.1567095127878666,0.12435749231065413,0.09625521047395467,0.06777740049962372,0.037978086060622675,0.008629211195549038,-0.0151403014746812,-0.02670645093765471,-0.020920612308229503,-0.0008039153798421927,0.027932263785150388,0.05849051502685424,0.07825977668043546,0.0723048293336772,0.05234086018204661,0.03666752627597985,0.027705360211998955,0.02222584107126267,0.011632907417205025,-0.009678927141021913,-0.04229186800673401,-0.06882718928867355,-0.07072256931230658,-0.07921150893708306,-0.08216868761722192,-0.031009574215213317,0.002523780659943487,0.02571755289112565,0.049365921599980774,0.08166972162848445,0.12509219068435667,0.16655828984379625,0.19194410329090597,0.20518689043907012,0.20443828232572805,0.18468264178375932,0.1498845728175369,0.10998103421337599,0.07224668012182116,0.04248411378573133,0.02376067165056408,0.014652950264460389,0.012080845719331577,0.011837654871474871,0.007431331843588846,-0.01338821099813436,-0.06980378872784909,-0.12405300170144691,-0.12907169311373182,-0.12972095712540285,-0.13708705185976336,-0.14977394844591546,-0.16120757320555607,-0.16737530070758183,-0.17063826845630362,-0.17475287990023392,-0.18043343302309509,-0.18918467473926262,-0.201620224468163,-0.21857332065456272,-0.2374555553374168,-0.24566763318802065,-0.22727541551207853,-0.19204263192705234,-0.15959519737719877,-0.13814976714961816,-0.12699450345309043,-0.1248159354798356,-0.12838932729070307,-0.12868185073872135,-0.11879813953523444,-0.09946305595285931,-0.07735718892973549,-0.05654262226822802,-0.039704454417166406,-0.028760378991402148,-0.0255042669710118,-0.03258535432141362,-0.0699773888371201,-0.2582497215270238,-0.1844086032682159,-0.13578854799655868,-0.12082778880287527,-0.10411053111885242,-0.057307715264854925,0.029613044182739714,0.09705716312689329,0.13155038160677493,0.1562087119520297,0.18078325652278973,0.20157037729707422,0.20713331593514028,0.19041535069194782,0.16787453999021462,0.15386045676455684,0.14887713670193878,0.16331412577892854,0.22312873498830615,0.37997002429689336,0.612544958454851,0.5384319774376396,0.3883316030806881,0.2804888190875394,0.20049485590797628,0.1439513811965958,0.1073818976242267,0.08682426850189949,0.08089391801367998,0.09215020857513344,0.12769952912843083,0.19433262221559885,0.27698633964775116,0.33296512632601266,0.34633856105890176,0.33396728269650355,0.3242534440178386,0.33872945770853785,0.4392188429040912,0.12029892915381127,-0.06347420594155402,-0.10069961147051008,-0.12438316622866245,-0.15835680070109615,-0.20962422301922015,-0.2736889480044771,-0.3282519630735208,-0.3244115618413976,-0.21777269233488816,-0.04992246405971372,0.06218417766305346,0.06769441993656383,-0.03390029930554287,-0.22861549781753865,-0.4614054723182393,-0.6131885288213077,-0.6154755083833331,-0.5333330939588756,-0.4391458280910641,-0.3601228451173875,-0.3001584048932633,-0.25084964905164553,-0.19985359473781478,-0.14822949675007016,-0.10403037370619399,-0.06858383734184278,-0.038771594695923124,-0.011974879743536037,0.01113018229332111,0.02914969186479338,0.040937349739762846,0.04976342403458341,0.05579291484734843,0.054612251011063546,0.045954088874516505,0.03757725723997629,0.03287185912773706,0.0321958264996824,0.03573572438112937,0.04284250467277425,0.05203868188008785,0.05859469043717776,0.057961741806227804,0.04565314310429742,0.018759327331423943,-0.016179631788651606,-0.03867724645872777,-0.035619721316207185,-0.012220774935800588,0.02296375283814195,0.0590143910801456,0.09016166169456098,0.11898734553292259,0.15318588755692214,0.20057816987218757,0.26374847401665835,0.29129901035254324,0.2009138560895501,0.10832193869365202,0.06935773956953506,0.07479378257340263,0.10370321677502668,0.13485652788703537,0.15317461663795776,0.15310164051888706,0.1411068182400035,0.127857008033308,0.11833786029162173,0.11146140005968161,0.10162398077673211,0.09168227058263849,0.0837580353225553,0.0776680561074506,0.07257344631503886,0.06987548515557437,0.06768113171236204,0.06280965087960448,0.04979657511711898,0.02206544864236927,-0.019843865920571635,-0.06778762407053603,-0.11316863449266655,-0.14895559133124678,-0.17179859240904072,-0.18310027046201957,-0.18533248390831644,-0.18204781249311508,-0.17594639050409913,-0.1726542431434284,-0.18193778569852995,-0.20834972508562544,-0.2411961052712785,-0.25985898170702143,-0.261833685707152,-0.25316537476765655,-0.23472458831088241,-0.20886409949547435,-0.19111190185348406,-0.1950885273709827,-0.22280455548238137,-0.24423423465176694,-0.21552432700005208,-0.18007634667649403,-0.1655326233440968,-0.16737035406064762,-0.18166373528858729,-0.2055598318780919,-0.2222086405826341,-0.1814023236968758,-0.11067982966092126,-0.07503288579225685,-0.06971348601517675,-0.0824686215280872,-0.0991436640781869,-0.0971963896284182,-0.06464607159698263,0.001382804227700075,0.10657441160562932,0.2044489906026586,0.23537880216494825,0.21201669762359823,0.16263355455773532,0.10975871670410983,0.06479956022781495,0.032439136321743695,0.024173615750717106,0.052363758277620125,0.11017642215138317,0.16664357487329506,0.19864362586625245,0.21220208413369182,0.217389528736812,0.218027197029707,0.21893561459766497,0.21829543147511088,0.19911251320538917,0.15867691784157179,0.11521321015949613,0.08415301077921142,0.07389724163649158,0.09781138098427472,0.15732626987595183,0.16233210546313237,0.11719045604758825,0.08846656676950329,0.07265836385022334,0.06370959488387214,0.05992593574386297,0.061297740377141516,0.06768083424002014,0.07989236899644553,0.10018114108722298,0.12647412074168285,0.16046664241696068,0.20565743113041823,0.25236358217937216,0.2662241141054283,0.2582264798696826,0.2509780664687215,0.2508095455791635,0.25498650866487527,0.23619982316347082,0.08299247016157056,-0.10141646480680268,-0.21857921229249758,-0.3184664720177391,-0.4021810868253543,-0.44069318561618614,-0.45261115234318056,-0.4660381903534739,-0.5109224394008669,-0.5807970077407029,-0.5613447888436408,-0.449803211927209,-0.3834664526759578,-0.37268144465269404,-0.40375406367681355,-0.461462099534063,-0.5276749089014375,-0.555882781496065,-0.4840114454736288,-0.36256993733138243,-0.275161183846075,-0.2358494215532991,-0.23760218301158598,-0.2630716266816428,-0.2728785848897142,-0.2397779395700035,-0.188843023956062,-0.14621982984538248,-0.12129125903061427,-0.1142667266572962,-0.1198463922230676,-0.1324049369403326,-0.14077687514776827,-0.13687630301208034,-0.12459376485008497,-0.11298144590116785,-0.10458921299696057,-0.09873347779922907,-0.08942272915568696,-0.05528356114110838,0.015031480508446136,0.06752765788210688,0.09384654217418835,0.1041906441498432,0.10211427755551526,0.09462827005314844,0.08979187865006406,0.09017746645397386,0.09725990621791844,0.11146658439180361,0.13365839860042977,0.16489852495827909,0.20562608426446707,0.25266296331178245,0.30258603630217434,0.3545251061870048,0.39559935065380475,0.38278208442329936,0.325984987565153,0.2459742818610099,0.155791832168142,0.0793390217706171,0.026089473014554145,-0.00288426781627727,-0.006783572701175013,0.008373287478639666,0.032237568485449675,0.05001424827199907,0.05415982376040554,0.05229528177660334,0.0503076869834858,0.05131983976661773,0.04834276614379552,0.04327321861771262,0.03908558079557657,0.036687633210077245,0.03390585965248288,0.02927821818772919,0.020258208051844518,0.0017399678896884063,-0.031003327518787576,-0.05783089583474925,-0.06540465385593795,-0.06060151383165074,-0.044948246284397884,-0.027137137729100008,-0.014445566292811953,-0.013659157743414698,-0.02967093391737798,-0.06479214698970366,-0.11586417968802222,-0.16899969053993955,-0.20764858175346837,-0.22693075617768535,-0.23100808480170718,-0.22853082091828453,-0.2212526314501389,-0.2115732191350245,-0.2017082581233114,-0.19105563452670776,-0.17834411343428344,-0.16403472040273703,-0.15134751399513707,-0.1401808789579794,-0.13231445400365097,-0.12958465918711648,-0.12897108431597948,-0.12642085315664808,-0.12579876970077752,-0.13109224816180665,-0.1406190812222715,-0.15198471177748007,-0.16090221055157064,-0.1596949761737288,-0.14134879559821384,-0.10293928271367749,-0.04456163681879661,0.03848469507162658,0.13174199818998292,0.1475225773905029,0.11544087150352515,0.08615177115652818,0.06829421955919228,0.06150395359329732,0.06627510229162792,0.08219177582037712,0.10621226114978628,0.1325241330985454,0.15991530614887314,0.1920946815385794,0.2362640326743678,0.30188582120406127,0.39366322551164895,0.4911428863823873,0.4938337942160925,0.3621689973971253,0.23264061500567537,0.15195331683333127,0.11167301359899125,0.10078548243194017,0.11073740878621152,0.1336849798499031,0.16302883077829206,0.1931093742697486,0.21412454443695358,0.21677790113091944,0.20082333420950246,0.175064739222983,0.14502557953516185,0.10902043280160062,0.061548663027543096,-0.03831338714298772,-0.38303775999996725,-0.2704218055251144,-0.24206687472520386,-0.26037519449777896,-0.30071452608845,-0.34152509643960166,-0.3546442313855315,-0.3161162284580488,-0.23592571986665678,-0.15120280141859213,-0.09430062641142191,-0.06968394840872631,-0.07004595956526431,-0.08591513800651301,-0.11221047552836313,-0.1567838903548279,-0.26984805357063374,-0.43457409489490206,-0.2205111951420169,-0.1425455490721681,-0.11888662509907642,-0.11999272899414201,-0.14481700367653513,-0.20130051615803227,-0.29260800937902204,-0.3704458024101419,-0.36967182028331846,-0.32510056090061157,-0.2691884459757763,-0.2083741095811947,-0.14970601528025398,-0.10413632291501122,-0.07906761353042668,-0.07185684174739443,-0.07523019811561586,-0.081839870292568,-0.08649678522885461,-0.08109887152615691,-0.04771771511051177,0.007396578155854216,0.026688286492975596,0.025516025184819702,0.017978632101704316,0.008291864263809387,0.0004643061991865827,-0.0022676689049583327,0.002964033966918935,0.022213890442285014,0.06636096784810987,0.16376228526268188,0.3111572387803183,0.3216200482123534,0.2865279572063732,0.27133060049489927,0.2621245953919058,0.23427700927687334,0.17280178794969683,0.1148284926002811,0.1016809172849259,0.1357689345283599,0.20348348936724933,0.274521186607015,0.291649016286373,0.23882467585084363,0.19856035178156337,0.2170380039713371,0.30831826938033413,0.47273562042296763,0.6497514568788989,0.742238023987036,0.7308110628492808,0.611686143946366,0.39821180506478804,0.20052242551737198,0.0968802592755394,0.06403165017666095,0.06187878125799969,0.062348193780705545,0.049598394587737626,0.01637826399744632,-0.0405653966043418,-0.11237305948048316,-0.1889429048346425,-0.265087982655767,-0.34833778801202764,-0.4561764628589704,-0.4834906502400357,-0.2836437113295766,-0.13019984858520284,-0.04355960536950296,0.009306291212838994,0.042393891167436706,0.05650174460500947,0.05632422027897048,0.052888047537523505,0.054921457813243466,0.06231170566305382,0.06575663981075353,0.05336334888146628,0.02645692974305275,-0.010397571085099548,-0.05537354344314716,-0.10689278426086743,-0.1563539739706187,-0.1910466521225409,-0.19540854818147815,-0.16480553874319212,-0.11337069963089409,-0.06283281458314217,-0.028005651338426044,-0.016729554564766453,-0.030125686327950894,-0.07368557840903481,-0.09863476290789128,-0.0602087671300165,-0.035483500963929285,-0.018727062530742244,-0.00011781597082509048,0.025735431514877272,0.0664117880680711,0.1312737109979232,0.1950744650758965,0.1686317520900184,0.11684004075213356,0.08243146870052091,0.06055391618111263,0.04690277470620957,0.04291613368781796,0.06226563478205611,0.15599763580662152,0.11830822303711258,0.07326732375555105,0.0554723086855669,0.048058638956671354,0.03844215731344007,0.03513576448910759,0.04108185859255169,0.06535983602440114,0.10395675170298574,0.14040047021146113,0.15787273485147996,0.15524578674952966,0.14514818378646885,0.12945767073194342,0.06753391587229046,-0.0073228376242952245,-0.025422770247701308,-0.02708651183320713,-0.021009939301858287,-0.00846472300841089,0.0046802937886071885,0.004435554923236669,-0.01362375836171893,-0.045052326231297075,-0.07324689064854538,-0.08361113554118524,-0.07132854716915553,-0.03332177371532723,0.022806969267508727,0.07389881768740048,0.1051269720072484,0.11763585350034696,0.11491614533914361,0.09175486467213528,0.012744844046649825,-0.1535626026878425,-0.17591819555671,-0.13956416260602963,-0.09529340026063261,-0.04982392481092746,-0.011883615137685303,0.011607948112793729,0.01692450136777942,0.0054632948312316595,-0.011190394724488862,-0.022809577298685227,-0.028771638945442754,-0.032690835146922295,-0.03640727107335338,-0.04035580557486639,-0.04492357851969093,-0.04773065679857779,-0.04611387092418096,-0.04304615239843201,-0.04332445687831105,-0.04638596496725053,-0.04896260004914628,-0.05115484239914818,-0.059385091061157226,-0.06885533629883826,-0.07758235176839531,-0.0902220519411414,-0.11627108907835648,-0.1531529840424875,-0.20418980373597045,-0.2521344431378207,-0.24701559198535405,-0.203017227511033,-0.16654857223728511,-0.14670360164542223,-0.13954449599959193,-0.14104809292213857,-0.13973411012660253,-0.11680896275467606,-0.06702930463782986,-0.0010449450783615371,0.05633959484553349,0.08769452013179342,0.09670949850484925,0.09330773870727554,0.08540985487680208,0.08341197449994166,0.09549553859240861,0.12685473933458602,0.17492548491301202,0.22909792146887004,0.26546219464210985,0.27874701113514455,0.28563503605817187,0.2841849496781203,0.26041698216484416,0.21401972773227815,0.16213267953405291,0.11286287049300728,0.0670978219674472,0.02423019928459731,-0.012202425427145587,-0.03903806505617052,-0.052596892125336324,-0.04620619854239132,-0.00829187914823576,0.07096472071494829,0.18514440559302234,0.2753458947916783,0.27384742405773616,0.2231414155267643,0.17964757022658143,0.15876259711197727,0.150145797338375,0.1344925123217594,0.10801240954074884,0.07902782337397311,0.052579992149137285,0.028941709741499625,0.0038403448688549744,-0.029272725340475626,-0.07010223607571647,-0.0969315719340144,-0.06795814158428887,0.020750547527114378,0.11942369573146157,0.1702085088606877,0.14748147405923673,0.09297869804072642,0.04709162424971475,0.018117073766024325,0.001892679892142272,-0.006536727882262081,-0.010202032636838635,-0.011737223461019713,-0.011896353579219955,-0.012052459143833901,-0.016220520002952793,-0.029043708713158502,-0.05417006131970977,-0.09203602505918762,-0.12869763236907358,-0.13245966772031945,-0.14313909325093851,-0.18274051993897059,-0.24747617666352714,-0.32563299441557914,-0.4031346100425378,-0.46759522384050034,-0.5122641261437203,-0.5397969700407316,-0.5463543025718033,-0.481900358693154,-0.3372208054814281,-0.18957888536272816,-0.07119608838020046,0.021681815344670393,0.0936293225299573,0.14688565684807448,0.17885542981879676,0.18868704425071664,0.18629372604449887,0.18430342401896796,0.18671050607195844,0.18658786597736438,0.17383223674574547,0.14765719071257055,0.1171923617072621,0.09401809537392497,0.08934744292089246,0.11074432593399726,0.15922090969636277,0.22391529531588747,0.28582937452355633,0.32975702966491255,0.3469823656371543,0.3370965654850966,0.313812475482846,0.29756894327932837,0.24084599961396266,0.03722280864338413,-0.01729586576373326,-0.022639196288516857,-0.01662509248320959,-0.009514061833021737,-0.0023643375659757205,0.006292078833044763,0.018096177892761564,0.031420887846485265,0.04135048537022035,0.03572541342540242,0.01589198307678481,-0.0034227470925530076,-0.017988936076120003,-0.028894475878204696,-0.036242684791603474,-0.040957823194296805,-0.04369382592548834,-0.04590153307847345,-0.04971222783803647,-0.054558074507211465,-0.05780477483025256,-0.055626788597209376,-0.05020931891128587,-0.04913566188101046,-0.056156142449333965,-0.05834454238777988,-0.0640812210451095,-0.07510187464793842,-0.09056263087382534,-0.1091490181676963,-0.12139169756731327,-0.10733337173704638,-0.07867470963554556,-0.059041311134954165,-0.051374197187454895,-0.05364359158290607,-0.06673004692289161,-0.09811316645865428,-0.1794963508375666,-0.31587885514752184,-0.12458208586984414,-0.038389199702268964,0.012942859450798094,0.05285594477230981,0.07879600160984708,0.07941814580784613,0.05023677332079495,0.0027161013619985417,-0.04872256189526661,-0.08960641659521514,-0.11015827736059056,-0.10803570609256703,-0.08983458267134728,-0.07102069824698158,-0.07128405761746534,-0.11137822130965837,-0.2161281685749658,-0.3931299622223511,-0.4979458778922912,-0.3920007872099026,-0.26007116030786187,-0.15519947920370733,-0.06792271285119983,0.005919054274126327,0.05092536587949405,0.057582344517934834,0.04101653734275508,0.017858945205382646,-0.004118798092432367,-0.018025199106801303,-0.017823594999435564,-0.005491163440074924,0.015026729157931532,0.039393604612068936,0.062560867169504,0.08195952972946945,0.09323086638491297,0.08936606002215101,0.066392942848955,0.03230900399958544,0.006803428255958596,-0.0026523395624300046,-0.0028143468506634287,0.0012961023069597603,0.008913643871915436,0.02183800822396933,0.04136390685543987,0.06505107480600943,0.08714887326499772,0.10640474292949557,0.14066223742641704,0.31015658898385556,0.1648217987674769,0.06703152595737548,0.04461439711636823,0.039341029962773756,0.04410739311681736,0.0650220951108902,0.13656869144731765,0.3389007591989688,0.22312693289792765,0.1480993202182183,0.08444112306840232,0.004344212886673583,-0.03108376276483215,-0.03128409629258182,-0.017793362003988608,-0.0012119316433721855,0.015222517747415207,0.030359811454348355,0.04340828526387101,0.05012226600356482,0.04484213794683465,0.015426927763401994,-0.05409666871457815,-0.12611238790246296,-0.1525100775879446,-0.1578899676868815,-0.1537838009517111,-0.13236347626560002,-0.08694561741327507,-0.02455863137803967,0.02823890213236476,0.03231203365552003,-0.03561316397100566,-0.14112029971877893,-0.23892444718962705,-0.3179569081178694,-0.37742573986009176,-0.39483755358905837,-0.31221532794514084,-0.1647881746034855,-0.05560110918604697,0.008100140387930669,0.05917900236052936,0.1463896164698378,0.15940619019987615,0.10575468217895345,0.08702043311858326,0.079322707065633,0.07667201083410721,0.07911245486755356,0.09108915459364926,0.11524262685901732,0.1398563508237541,0.1550121774078647,0.16025647860325795,0.15483632468179104,0.14179022729774185,0.1266273185917819,0.11264786669861873,0.10031674773063683,0.08928378474382548,0.08368526474441028,0.08844043694688863,0.1101635697799639,0.16007819807143975,0.23124889884014332,0.22779034307496704,0.15960321529677002,0.1041659451981605,0.06884599025584767,0.05202216477514238,0.05132515320753237,0.06672484267272909,0.10458945432505012,0.13932341889171618,0.10434813958732515,0.08360116440298052,0.085956955098941,0.10976799710142697,0.16276262881657164,0.19667225344013614,0.11758908306816578,0.05436548435637819,0.010706890229138887,-0.026750807868999846,-0.060048703070519835,-0.08787203430046894,-0.1100292288316203,-0.12784412221201735,-0.13966654884950716,-0.14291815639625371,-0.1385585638878256,-0.13265492663859207,-0.1417636111669078,-0.2150545192105518,-0.40616324872764914,-0.3048282781586517,-0.2435814971502202,-0.22501263728141568,-0.22306492973760655,-0.2333786422379727,-0.2592769765625529,-0.3169280146774955,-0.43561776398642044,-0.26166855828275026,-0.07599350353579384,-0.018562440172793217,0.0004590234612320276,0.004258391022429411,-0.000934928795526834,-0.013619246560707008,-0.03184913226200761,-0.046739524639047694,-0.049372555428924825,-0.03790505099092507,-0.019700927486094415,-0.0040039217631250065,0.0027503874950822855,-0.0019977069709463066,-0.015293498511686304,-0.009493707731742644,0.006950198718443927,0.02083477341553383,0.03580703404440572,0.05671512143650642,0.09260109176517853,0.14747190453606437,0.137944605634233,0.09910191668941351,0.08021676825440678,0.0702891862937348,0.04647014273692264,0.019888640274093414,0.017618280517154358,0.026527650096049335,0.03940085541766118,0.053260898514969526,0.06669839754780571,0.07832603803544343,0.08453181496028998,0.07988963676402762,0.06101060071176125,0.028892924649816114,-0.01058400674082493,-0.0512839979081624,-0.07651648515163746,-0.07684401827991366,-0.06358803519378967,-0.04478786820004239,-0.02390388999761985,-0.005372099073296164,0.007949661479338623,0.016058827158755097,0.018886611064811973,0.016999284081706128,0.011275040147502448,0.0030906066923959575,-0.0056188848637608885,-0.012858222847677488,-0.021180451450864314,-0.04690144426027134,-0.11009890545839932,-0.045379885467207344,-0.019279285882043647,-0.003763574314030116,0.00713095402972415,0.015821273215956826,0.02444442245003372,0.030592973851862406,0.03352333523740932,0.03339840554618064,0.04277236669223357,0.06321811245183068,0.06961280585521575,0.02940999774038212,0.010421711621814921,0.0008328015466798763,-0.006534215346853234,-0.017304775797715142,-0.041281562421582436,-0.07346914459830993,-0.06819669476595477,-0.05658988819563148,-0.050479879530564015,-0.048255804443095546,-0.0497122806211405,-0.05641460548874207,-0.07245850258619488,-0.10522549170584743,-0.1635620582203829,-0.21977814275935495,-0.21655933928313967,-0.18289179009237405,-0.14726725777695662,-0.11454497043427246,-0.08782701037790398,-0.06890670844156244,-0.057454621270800185,-0.051126991677884204,-0.04746038215934784,-0.04369791331068626,-0.03741113383303582,-0.02957137653599143,-0.02189289385130596,-0.016082824327093903,-0.011042111733781062,-0.00592656064043578,0.00717717704999432,0.014597069936529825,0.014549276227257628,0.01116434238075161,0.0024340223577717034,-0.009601914301038341,-0.024043191445499785,-0.04099052374766124,-0.0642196884182117,-0.10184977705990816,-0.14246081923610707,-0.09007907487711246,-0.013107607920157468,0.04130603164910672,0.08468618154977094,0.1242430329481987,0.16755916583862918,0.23649414513827038,0.2580066518633206,0.1316955853763582,0.0821913818796937,0.06715452335897137,0.05624233868676169,0.03615665147611864,0.02311007347803679,0.027124289463312145,0.047086179610096965,0.08606944087757244,0.13624686944409353,0.17448994680567573,0.20229185208191386,0.2259885918722067,0.23425571577197948,0.21661615836817788,0.18833928380397255,0.16887898771052248,0.16960825842588323,0.2092808374364386,0.29411163852468336,0.18232751878007297,0.10373182986258331,0.07419326877563831,0.06278383488330012,0.05928321385826453,0.056459055480807985,0.04191909876449387,0.008857382245326948,-0.03929169107750561,-0.11066544422654734,-0.22279804972423695,-0.2943658099895249,-0.281961043192892,-0.2650918122313367,-0.2553338535532864,-0.24480458990800402,-0.22814884862495877,-0.21708703347249012,-0.2236911314538481,-0.2554242242471538,-0.29871187585559306,-0.3061191043011307,-0.261813883055947,-0.20617140475910933,-0.15942460555836213,-0.12771308859037855,-0.11062140440788003,-0.10664012574947508,-0.11482126934388381,-0.13492073161105447,-0.15809882538154282,-0.16721735813051952,-0.15262387342663755,-0.11642400624205833,-0.07554742093222842,-0.0465051849443217,-0.032445342964023884,-0.027525632273833353,-0.025049998930472668,-0.019932684467846615,-0.011503685578758964,-0.00016008676194953917,0.014120856833260606,0.03319403663272091,0.05988710255374419,0.09533482637418421,0.14002737503063276,0.17583536022783047,0.13271613344619906,0.07832703025383099,0.057088352499006643,0.0578859449399599,0.06049517935470089,0.06462910536651706,0.06902149348374696,0.07232280125131886,0.07418023383501461,0.08507392176174176,0.10494088293047667,0.129719723312222,0.16407024820937746,0.21528658448084542,0.17742286439161437,0.07134912144980918,0.039187114152968834,0.04047145603533661,0.07808275781506727,0.13569483548916123,0.09235011795233246,0.07569656298194626,0.07314402404469754,0.07921117956579513,0.09914266551813744,0.14000399164300595,0.12980619320141554,0.06526196026735069,0.024265241521026888,-0.0011815390280256028,-0.01972025208539585,-0.03562924097466295,-0.051392161194881145,-0.0692814932288572,-0.09437411728485369,-0.1362696526860933,-0.20426176012341904,-0.2499006773279929,-0.21157983740879074,-0.15359256557693118,-0.09953797860843934,-0.05755927241724456,-0.03022746520268263,-0.012324931425387738,0.004708568769793149,0.026639913884322637,0.03335386363174843,0.014608010806934198,-0.002115377882008491,-0.015178573326622346,-0.02488174382210171,-0.030904066075939658,-0.03354163931127149,-0.03374361211410401,-0.03662694041660493,-0.04705378627097402,-0.06410947640393438,-0.06200276572897339,-0.0540502484636733,-0.05010356856600283,-0.04659092615102239,-0.042425093926424975,-0.03755351611176254,-0.03277878106372053,-0.028557519277421686,-0.027315982420666553,-0.054650246412669724,-0.058947085434069,-0.04585329293523404,-0.05020044693899236,-0.05564882769968881,-0.05889167998570081,-0.061204713486876956,-0.06414615669577488,-0.0678633199618599,-0.07347069211380489,-0.08489006705220564,-0.11481339153801513,-0.24525989950698968,-0.1742501135519759,-0.0624111058746723,-0.031054400399471382,-0.016460516196565342,-0.003124062587670497,0.009236603943985172,0.022210882429156382,0.037761142921243135,0.05758189282711875,0.08279527691266879,0.11159019224506078,0.13223456875256087,0.1297199615343926,0.1187805851173451,0.11747550952304857,0.12654796467183324,0.13879009593345476,0.14218743662190156,0.13245960902852358,0.120635531030973,0.1213770643218561,0.14835009974877852,0.23730403944026854,0.4784324032802376,0.3571859884585471,0.23416692862338684,0.19479784258370975,0.18736157820017052,0.19705607907180225,0.21595293475261976,0.23465495894562902,0.22143403117452706,0.1262502514192321,0.04921329136864632,0.016483023090489126,-0.005597268814954907,-0.030393768784050264,-0.05786532179441883,-0.08385810444757404,-0.10831299217323569,-0.13198230867410676,-0.15867620034661245,-0.19797941881766895,-0.26861027531795434,-0.34461860935365773,-0.3141209392351601,-0.27322702687462164,-0.2948861856062176,-0.3994242858171854,-0.5278673693200878,-0.48703054538111495,-0.39245889466994244,-0.321477929445986,-0.26625090712888894,-0.22014518846697376,-0.1822918859121055,-0.15346336817704812,-0.13682536479018262,-0.1388339925352398,-0.17223813803146734,-0.28525973569224383,-0.6751320278580749,-0.3907236950611549,-0.228926887772271,-0.17849744965206987,-0.16753619028800662,-0.18897869046159205,-0.2667643174042116,-0.3712936161045495,-0.2548777820098888,-0.17335138478137155,-0.15325888174552238,-0.15337035052432313,-0.13198335813607023,-0.09083896939275712,-0.04573026766873392,0.001711157435719394,0.060234114843895056,0.1432735703999661,0.2693500699199366,0.4478256518091832,0.5281945841112932,0.4373950874795475,0.37296622334654744,0.3749865338839077,0.44878979849462713,0.5974748621644126,0.6708951353247951,0.5127394824831756,0.3506191658961513,0.2497849691505332,0.1929627702789375,0.16386946739565528,0.14977784491556778,0.1439376364458376,0.14257458611941148,0.14757811106144514,0.16475993798453545,0.21182662332661356,0.29612162346048154,0.11970399604016696,0.03965040601329695,0.012840649183908955,0.0022217302793983745,-0.0019202087836210358,-0.005262287068573419,-0.011269963612256273,-0.023742204331127278,-0.0613924564944043,-0.014666223561692514,-0.004817192048976912,-0.005664918251445461,-0.010849592261878139,-0.01855301017062455,-0.02811965469955155,-0.036506702665065595,-0.040806912457722264,-0.037068248456955166,-0.02110429543932285,0.01473035777152573,0.08742416570746138,0.2154567849426474,0.2951346843141532,0.22967942810557754,0.17569675729746345,0.16139727413367486,0.18253767193226492,0.2399799830270516,0.3470574324176255,0.5129070217341309,0.4857541028993824,0.28439093095122076,0.15574978757706368,0.06382392451514116,-0.02388958137656845,-0.12093789013951736,-0.21163874569356192,-0.2760947050157074,-0.3187195264576731,-0.34892012830002544,-0.3653356384171025,-0.3580760036840396,-0.31616216424985855,-0.23190036916512874,-0.14448842679309581,-0.0911710519091521,-0.06665855162268644,-0.05808066274357692,-0.058083137575839244,-0.06399260165672646,-0.07463222811247869,-0.08821688101217878,-0.10435797362825146,-0.1249618138964829,-0.15513579452484547,-0.2088428018962093,-0.32730978477810474,-0.5747561146497192,-0.4131304064695379,-0.21266407206635002,-0.11324641277791463,-0.05383690881206561,-0.018308105232250522,-0.0006053296235617782,0.005764348148554799,0.009180926212102801,0.017800559586859867,0.03899317197274697,0.0935110349397117,0.28992061349225023,0.09744192853972464,0.03139263423256738,-0.0001284287241927864,-0.01775211414589274,-0.025602778863936956,-0.02758788953026144,-0.027232074337338853,-0.027327897949988335,-0.02656789446084855,-0.023445304723701526,-0.020264825941261663,-0.013375762172434373,-0.004060585003556194,0.0006531317969064368,0.000996190378142987,0.00016322818162382296,-0.0034488370667196517,-0.013115311892768633,-0.02825397948870647,-0.04092536482744843,-0.046988938178608566,-0.050952843907254915,-0.05687050616073507,-0.06501144738654031,-0.07123004023570852,-0.07006630485349985,-0.05439708177188614,-0.023266659257536827,0.007642422568851511,0.03388943945586072,0.06862178899575795,0.1133673816861153,0.10771111867082485,0.1253798804944827,0.21019745507188015,0.20792820808450477,0.14267167582406792,0.11041656933034313,0.0907757656604822,0.07783808637076736,0.07343752244632312,0.05892047645454305,0.017136658525793585,0.0024629436472199044,-0.005955289091833353,-0.017327160730050927,-0.031049249430490013,-0.04568307304969658,-0.06454712667538834,-0.08129487986096305,-0.08823859218430129,-0.077781135579275,-0.05912469234953183,-0.04559530924857956,-0.039277488482813455,-0.03877038931811076,-0.041848698388779686,-0.04643068503816918,-0.05161136163853944,-0.05532189741740064,-0.05213508119597242,-0.035111747702188806,-0.004356131908753462,0.02395662535204503,0.03237617415920458,0.0232356819539133,0.005828389228084053,-0.014062348847215703,-0.034921543328888,-0.055856915114798206,-0.07614891415404246,-0.09645980163552208,-0.11196530736956929,-0.06008055878346187,0.00895529946673215,0.039889474374738235,0.05548039889942984,0.06400709781553864,0.07406706033914102,0.08351165969265838,0.09029528920698067,0.09520004078228561,0.09845720168699745,0.09919985423506755,0.11634509240527667,0.15434116721469787,0.25549749975483765,0.35924804083187817,0.20812703665733956,0.14293651179888178,0.12500053706394157,0.13376884126330285,0.16592602498863107,0.21536471487682604,0.2607483482256799,0.2828062600824961,0.2746356790886425,0.24090654663320285,0.20064697672646745,0.16468141875770448,0.12907993897352113,0.07142987965607996,0.0037714615711199645,-0.02966894717698018,-0.0444447171091179,-0.05448384352626615,-0.0625450093078588,-0.06718514559013805,-0.06881736563628289,-0.06858205071160048,-0.06667404112434516,-0.06315915963827391,-0.05774684823899475,-0.051037414576644916,-0.04210522100939329,-0.03176340903919591,-0.02317118111780061,-0.01797971505008604,-0.014453453468104943,-0.012577395384157412,-0.014444472668140501,-0.023853367378925586,-0.04467919451516675,-0.08786266188400439,-0.17640358035704956,-0.12943629425147357,-0.0802878280654453,-0.07087926990523016,-0.07592070072170287,-0.0806766406759176,-0.09119401467439646,-0.13581026368715987,-0.24872632197492828,-0.47909410505919364,-0.3528906878614715,-0.27761046569888637,-0.2647107592985257,-0.26403005454159734,-0.25085814082081775,-0.22211479350224547,-0.1943942282468674,-0.1815184281046394,-0.1853978688764586,-0.19230967912242855,-0.1780575378527372,-0.1306372897581234,-0.07628612145017771,-0.039900962502290964,-0.02359026405768903,-0.020346501298895106,-0.022861189554474453,-0.026538188652026992,-0.028057533949600155,-0.025658517316724597,-0.018243592472072048,-0.004560048614377713,0.01954879100869238,0.06405493683136201,0.12651387836270242,0.1496969642322426,0.15120186322220652,0.15592536878980504,0.1616867444238913,0.15975648732531902,0.14833226273070357,0.1277214599931787,0.10622151858706445,0.10342314405472562,0.12191441766716336,0.14632944371460924,0.170251050742546,0.19198119327244462,0.2030271363623433,0.18872088383119517,0.15001312869001465,0.10811946138399281,0.08119871780261281,0.07334239855831282,0.08373275201023174,0.11286609737858831,0.16897150389560842,0.2502712307193677,0.2568662572204611,0.18477833944184427,0.12646210409989567,0.09241258557365209,0.08180955935682058,0.11742496637251884,0.08272023991828756,0.028094330334728093,0.01514775559167035,0.006249903106330251,-0.009504883230196867,-0.043657153661217446,-0.11522498285132639,-0.19792356666830752,-0.17180487354543347,-0.08667065868574646,-0.05096523192139645,-0.04891094371502163,-0.060100527381704925,-0.07358822374212268,-0.08329908489003027,-0.08763426150494306,-0.08800156495929747,-0.08882691040457753,-0.09757091332150418,-0.11537348039394073,-0.0851042613047469,-0.038684481278010274,-0.02107865947512399,-0.02025507521915438,-0.02743083650844156,-0.03743205282087895,-0.04613983349986517,-0.051163277755941323,-0.05209714715177886,-0.04881759162249234,-0.041592732048202546,-0.02836664225019426,-0.005963280539781508,0.01835409403382905,0.034594287730796223,0.04212750606237905,0.043362973957658535,0.03411568554230194,0.014405196358440578,-0.007790186243615191,-0.03021769894714445,-0.055624323946066555,-0.08758086318996772,-0.11647478445734427,-0.13822443367367193,-0.18605747605101527,-0.26918673111885716,-0.31490412677934043,-0.2633740245030333,-0.20442111768048443,-0.15328897039182843,-0.09894100507027948,-0.0385284321185302,0.015363816465726604,0.050240857899836816,0.06529463482005973,0.06706315533904879,0.0630546930102606,0.05750820127086979,0.05591426467025364,0.06991441489592923,0.11301047661799442,0.19415696176587638,0.3131290758162751,0.3973446620930435,0.4046313703850634,0.39852672540761114,0.41380773302032764,0.45836907995633414,0.5292264949735311,0.6156823148515672,0.6818851522797815,0.6398449918072479,0.40942701822909633,0.0774863192727271,-0.16492533430238188,-0.28293935090256256,-0.33440159206523634,-0.361135337911732,-0.3757281059337614,-0.3813061219632879,-0.3773603582491961,-0.35896326573718224,-0.3211343451892303,-0.26730557777479425,-0.20816887982118745,-0.14746615312879963,-0.0916586345481917,-0.0410173783015686,0.0032898313858676213,0.03696554760417433,0.05233855583847253,0.05284625792451242,0.04648372173552462,0.03910897636480638,0.030789273050075543,0.017916229845457383,-0.000707562782851155,-0.0218388172376763,-0.04139051333625077,-0.052972140089331377,-0.036913935416667217,0.024021539512358428,0.10163548700043482,0.16129946335200093,0.1682222454365392,0.1503135450670424,0.13728919187669897,0.1394636127643037,0.163918613206044,0.23102133280722978,0.34716467306843624,0.283125230527463,0.16773331382636933,0.10755601902764046,0.07672868084118403,0.0625056129648182,0.05953647717642907,0.061014716567499426,0.0601604916301537,0.05039061853248254,0.028282721219048537,-0.002304802496122575,-0.02988416213840382,-0.017820436985420286,0.003352952819813619,0.01126170591620074,0.004669588008565625,-0.01858138377538193,-0.06810499904582883,-0.1351508045685836,-0.1442999389392827,-0.11119020972500367,-0.07425997642474927,-0.037838850650971166,-0.003603107965504799,0.02407062681539303,0.04036840866011268,0.042756238852192874,0.035911050774202126,0.026168240445522208,0.01691105627538519,0.0055125052712235645,-0.008805152463384678,-0.008909926022218828,-0.006776119661410199,-0.0038466989462279965,0.003479536782437305,0.022157315626234485,0.06418268681622002,0.1300229214318416,0.17819854769907847,0.1762309063499464,0.14600756335501944,0.1213427195664567,0.11076522370354623,0.10575535943708067,0.09748467403294868,0.07361958703711605,0.002008197949098301,-0.12307905112220059,-0.18680261330431436,-0.20576599440980614,-0.2194678094888999,-0.2395792987710894,-0.2657231716665898,-0.2933415163477834,-0.3204001197884639,-0.34328132947132434,-0.3533534352005858,-0.3356683140672432,-0.2761484854713746,-0.19615401817844444,-0.13896436117351504,-0.12082323507533438,-0.13614595764695006,-0.17182393693326548,-0.21335694353094517,-0.24465883707101066,-0.2566038199732827,-0.25605499326646414,-0.25807123493207806,-0.2747100321075763,-0.3101694377583216,-0.2692008643389733,-0.15532264813340538,-0.10293979026224846,-0.07977932093853544,-0.06180508410384822,-0.04434843373025716,-0.028246169425036247,-0.015214526447822972,-0.006887371406621514,-0.0029224062779506558,-0.0029553669435083466,-0.008762216421165175,-0.01053399116521141,-0.008320145794762283,-0.00012649418378585242,0.01880230051153108,0.04812447040148861,0.08576320383721545,0.12924880087705987,0.16753956037290305,0.18808733208121342,0.19275273510067664,0.19456484558549933,0.21016601343955332,0.25780645810417613,0.3328584343036792,0.3565471536927865,0.3253394246145792,0.294029728807908,0.27269948960030105,0.2689320021716596,0.2939690983778232,0.3582102517985563,0.4101088376869109,0.2577902147193567,0.11562003363443729,0.04950834724779131,0.025318710543762467,0.02771163500415827,0.05191338046134551,0.11693087365416044,0.24261109813893988,0.11135328946075479,0.07459093103958844,0.06669191969217729,0.0712699333984652,0.0850954595371259,0.10789122811138425,0.13230223735973293,0.14818128804106187,0.14547784460783258,0.11942944497848831,0.07380792161272413,0.021131989228474278,-0.02044221117469628,-0.04773935915192032,-0.06144451154280182,-0.06112411875225331,-0.058945601544117904,-0.060534582162675085,-0.06491233906593814,-0.07148690732616161,-0.08009376962088256,-0.09019489571227392,-0.09686120852239789,-0.09465435799904817,-0.08882047201425901,-0.08507991093247741,-0.08433860604190029,-0.08580318226929697,-0.0895208558931249,-0.09567700399096402,-0.10057481567726499,-0.09150996367096381,-0.07292086752259473,-0.07317621607746187,-0.09670510330060345,-0.13350927592639825,-0.17955931832356528,-0.24459656654093379,-0.2845438825309255,-0.18938666125990145,-0.11174377347591008,-0.08289502300485521,-0.08271304246470244,-0.09814325639855292,-0.12578727411538157,-0.16517762454152118,-0.20763774704703863,-0.2348696022149296,-0.23827984760949464,-0.2279848191648636,-0.22035049015227834,-0.22098298263843208,-0.22422091044992912,-0.21662915429096635,-0.19361825924337928,-0.16656328729447914,-0.14825332708607444,-0.14452212663513392,-0.15687301594419018,-0.1870023100327494,-0.17736233782079072,-0.05207913322671692,0.0041869205115093,0.026914575526193862,0.04033346961952332,0.058503662819920005,0.07625643999119101,0.08949934525390094,0.11333781118041511,0.15430561427742714,0.21672329944741245,0.2920766860712446,0.334214461158046,0.33419973193278785,0.31503860049241383,0.2980336218599661,0.29981913444205927,0.3353654435805681,0.406636156591703,0.44035600338524405,0.4072464769969814,0.38836467150520293,0.40177700486710044,0.4275633177407851,0.4089094416295402,0.284700581781197,0.13364211136917897,0.030389967461541954,-0.029033831107232184,-0.06425576900387564,-0.09103142606157666,-0.12013720425422947,-0.1580850322701339,-0.20198479708457243,-0.24335767588201923,-0.27773943858519934,-0.3048364305633386,-0.3155037016581037,-0.2932123880546585,-0.223535547346321,-0.11222981055599413,0.006560257493925156,0.0920583761619135,0.10315877029060751,0.04460353557862072,-0.032652388624856706,-0.09087095657284217,-0.11344710987194072,-0.10435060321004246,-0.08388089678902008,-0.06619731440017436,-0.05529863317491883,-0.048441385144868426,-0.043140394263810854,-0.040044889940765695,-0.04550063663279828,-0.07395383239470679,-0.1459526541680047,-0.2551759257244673,-0.2750621590431736,-0.20155227474887832,-0.14645717623335336,-0.11146886131762633,-0.08719521781170397,-0.07051352234632506,-0.05935049006990019,-0.051689195278916564,-0.04766012164254809,-0.04892809301488784,-0.05987154077393184,-0.09062482374416361,-0.14165767239239976,-0.17356423874034563,-0.17387425902982268,-0.15694624544598937,-0.12221584680850456,-0.05703501436728101,0.020324262482668838,0.0774055632050882,0.12144830459311963,0.1626768740914968,0.19699231160363465,0.18513084288503126,0.13740628066378957,0.09774613204574387,0.07179102063931453,0.05598535671852868,0.05044302780503622,0.05917486341309034,0.092503824994057,0.15919394576394172,0.21713942283247648,0.23263303482183367,0.23191956372616768,0.2225483926049391,0.20699716930583972,0.1903700074086589,0.17508887304262716,0.15939293044403907,0.14140933144719478,0.12297111791260112,0.10802612168505725,0.09530016318256125,0.08159167941595298,0.06491574815932982,0.043579415876935895,0.016714103508190307,-0.016580313344296924,-0.054073661655622565,-0.08953464823609157,-0.11953726990788172,-0.1454643854324149,-0.1696154246050627,-0.1892316674245212,-0.19457490934478486,-0.16817967503001713,-0.10610408828446032,-0.03894354168663863,0.007989361056415475,0.029894137434234747,0.029477143086369572,0.01410458871482477,-0.012888971486287239,-0.046722323972035816,-0.06983038671353008,-0.07204444904741811,-0.06606298140293687,-0.06258709509781134,-0.061937198977258336,-0.06137918146167303,-0.05862258818222365,-0.05309068220989934,-0.04396812266171821,-0.03171866038094852,-0.02034194308599447,-0.022274362262811594,-0.04942253391432566,-0.10087960996260154,-0.15633180303221264,-0.1722544213413827,-0.14891399766798905,-0.11867755176083573,-0.08724595975225466,-0.0493363386422571,-0.001455710845284225,0.04865106753344727,0.09107780672634486,0.12602830511544494,0.1622190259827083,0.22218779326856233,0.38271558390322735,0.07579477305812786,-0.024939027930775483,-0.05595293792278074,-0.06921398277681413,-0.07340021026041332,-0.051713850331658255,0.03180677678496487,0.10117153496962965,0.11940304738365001,0.11844055224913552,0.1137385467831625,0.11531382654834983,0.12650296592047527,0.14594999801636116,0.16825709426787375,0.1828293000128421,0.16394285912624562,0.09457763699222868,0.024340045156696733,-0.01872857304050589,-0.04111318675531471,-0.051344498312554616,-0.053682306439175854,-0.047429034416438164,-0.024007563678057314,0.07550518723368747,0.09085231299792472,0.08037483393754302,0.07841951055592936,0.08427347061516682,0.07959140865527371,0.08613293174526214,0.10099770175405126,0.13225435167525715,0.09239596688961081,0.023657469001062408,0.0036140628986700255,-0.0026825961608918517,-0.014747273284916497,-0.049247900763088305,-0.10748466857015661,-0.15436437539798592,-0.17714235917051258,-0.18878819034080976,-0.1995074223096167,-0.21017001064050522,-0.21821225769930247,-0.21457479598583562,-0.18886969060573353,-0.1469709287592878,-0.10525803616880093,-0.07540650620392611,-0.06409719326685269,-0.0737014206726951,-0.10513356220922054,-0.1600774980285325,-0.24149966061658878,-0.3404750094614665,-0.3899310883535635,-0.3344268644430476,-0.2670028131242065,-0.23185255099464022,-0.22280675352266116,-0.22968311675622002,-0.24363654993457087,-0.26411627268311466,-0.29522068661149153,-0.3306533003433781,-0.3331111123238713,-0.28046181150416094,-0.2107405973312529,-0.15351934264250774,-0.11659414731694107,-0.10056093891947589,-0.10506627209117803,-0.1249765292835066,-0.146522149836084,-0.12956747033191587,-0.02231215548064684,0.056974765587672234,0.07221250953499442,0.059756101747606025,0.045535642224370274,0.039662820918903025,0.046023252042281526,0.06464340881236265,0.09508730811717413,0.13721236128391412,0.19809727638955094,0.2939854570044918,0.09478145096585253,0.03118314621592536,0.02453634444854862,0.032875149557134074,0.04983630108112705,0.07776797942195625,0.12531795493591702,0.20197144697570862,0.2876274969176493,0.29974688122286747,0.253656338836567,0.20621040384600317,0.16762478127424976,0.13852158481582402,0.12598222350346377,0.14744305798534144,0.23755766811732495,0.4264137401481523,0.5194442418746712,0.47903428001309434,0.43569922931009053,0.39753087392224,0.35642621514436773,0.31001465650642807,0.26484743608061745,0.23100508192154032,0.20971263556215522,0.19466880898346295,0.17783423911762553,0.1459676182813722,0.08593886732621143,0.017505629885875246,-0.023335662671182856,-0.03886280404446234,-0.04677217282839396,-0.05887005320328358,-0.0824493312232799,-0.11667553046867549,-0.15460721989291037,-0.1845943331462417,-0.1909452058929553,-0.16777101960832322,-0.13189063433184947,-0.109825083085699,-0.11456554738941328,-0.14772479842645977,-0.19592005990143913,-0.23840341098886988,-0.2601095737156556,-0.27599654140757807,-0.30003008198838227,-0.3309996407106744,-0.35279729648577557,-0.34805989306975943,-0.31102471610958077,-0.2459205278112211,-0.1918038572843287,-0.15869971300362135,-0.14032281333380228,-0.13301025644516815,-0.13657797844025216,-0.1523876547191541,-0.1804919085515532,-0.22365617320049375,-0.29327016343450263,-0.40427871383895014,-0.5132917029858751,-0.46544808701381735,-0.33277409308844524,-0.21510763167162242,-0.1210063535058514,-0.04953198558795809,0.0032978116880020333,0.045395980147471066,0.08548175497248243,0.13400781454315747,0.20180919731444485,0.2908685405378671,0.32300578430117066,0.23517370098189927,0.16292881428708086,0.13480658549225338,0.140611025591842,0.17266277004543393,0.2309942403488948,0.33141432680387434,0.5084849865445589,0.5500937048751166,0.3510807061706376,0.24197206764568588,0.1951237028268437,0.18064898240734406,0.18226739414546847,0.16205238602721123,0.11325509377874145,0.08192320488326103,0.07791947586212963,0.09783493681984204,0.11990041359918154,0.12251145821976674,0.10000105319258695,0.06470263968334791,0.03483501235829013,0.017140356124821263,0.003808808569316586,-0.0166380458113194,-0.04882037914085107,-0.0916125345131234,-0.1425983961426366,-0.18155455529610987,-0.1651457684449911,-0.14710668936821225,-0.15513453388504114,-0.16000659094714606,-0.15300547744631518,-0.14472466155940797,-0.14296507880135967,-0.14955432929994134,-0.16360940406993546,-0.18557306227517226,-0.21587944735450143,-0.25080635743031826,-0.27889842017051814,-0.2723801033342226,-0.2071072223828899,-0.1140129660873765,-0.05475430372438143,-0.04078937731446351,-0.05868452327381825,-0.08968666529217176,-0.11698301488470271,-0.13011674714243138,-0.12854247933501234,-0.11675570085231422,-0.08989838217462927,-0.04362311927704867,-0.009148534915813281,0.006420099336944905,0.011065162079091624,0.009880866137251925,0.006274067148388236,0.002660566663486138,-0.0007455652009054707,-0.005128428745496351,-0.010095120527791528,-0.013708220246922654,-0.012750211888966611,-0.0057010921612061175,0.01040193604721782,0.04155074597982937,0.10166141341764096,0.1603056942496311,0.15348699659315346,0.1189293334332168,0.08126276493163771,0.04479832118492983,0.01424857060656499,-0.004750499703035707,-0.012524589879974377,-0.011544166477377814,-0.003192109224376494,0.015124541234055601,0.04714911146707046,0.09291734478907053,0.14426220669944798,0.18592672605411967,0.20366637593188547,0.1862157494320732,0.13323570867588005,0.06914433169440683,0.02703306342259761,0.022087494040891022,0.05166053852027759,0.10421172986665433,0.16398014875224617,0.21834734164532862,0.2655610252351281,0.30268666937044497,0.31220159715175105,0.27915344861041186,0.220321249538714,0.16895228348757788,0.14569537784520692,0.1499573593318346,0.15812728804980766,0.1501101266053994,0.12287987356957902,0.08426975252125714,0.045331616531609865,0.013790992603384166,-0.007803799987973214,-0.018391499680767618,-0.018379917825948895,-0.010524481124949513,0.00145240514296076,0.007977250259983202,-0.0018324236546854206,-0.03998273875839575,-0.11988674595682099,-0.2545163636495886,-0.29313763139573834,-0.15162582712884992,-0.06721465724682588,-0.03474138730828362,-0.03355391090576667,-0.05213554980420484,-0.08533775696064747,-0.13754864938301978,-0.2384361811543884,-0.4748393234220654,-0.49064071552569744,-0.3764745764426961,-0.39172820627400445,-0.4676918103155513,-0.5410681710016022,-0.5573206911165197,-0.5246898380624058,-0.46558840765698306,-0.3935964302508159,-0.31303816363621817,-0.22755380597574254,-0.14413297568090833,-0.07850480819060758,-0.06341476088688054,-0.10090336449840673,-0.1474170506268976,-0.18059606585320476,-0.19726446565092404,-0.199131940280297,-0.18234377346387554,-0.13721473773031304,-0.05139830781149823,0.06970807303717567,0.17165604708805945,0.22355981548350262,0.2420470806791884,0.24671388078783346,0.26421894015570874,0.31877875074308815,0.44424154614542677,0.7184571596640905,0.9011693479448053,0.53703400508677,0.33974564245341693,0.24598868016335435,0.1948363700774434,0.16496288848623475,0.14578676386292486,0.12964692824215374,0.11331127761290247,0.09861772870154159,0.09139615987156541,0.09997976657906618,0.13606939459239234,0.19764103112981285,0.19429003503157127,0.13710001074637523,0.09319668822114575,0.060639451799962635,0.036418534057138685,0.024827084172086445,0.01297727716908434,0.007906985081382907,0.007994879694013801,0.008029473319846157,0.007020429972754052,0.0038498757908629446,-0.003689552383746821,-0.019712702028659674,-0.02631163486794944,-0.02395391806121055,-0.024348713933105816,-0.025301568552968043,-0.02326102610149894,-0.012786232334986174,0.008625768879442443,0.04002091510173908,0.06997825224499098,0.05266141892319708,0.021634677068894614,-0.007520457227435336,-0.035693895054199336,-0.06383526951194696,-0.09314740354811252,-0.12270601304045058,-0.14808259596439732,-0.16866770804232836,-0.18717071880750596,-0.21035507553741603,-0.2407752070852979,-0.2738086455179766,-0.2971673022314257,-0.29258372077363043,-0.2562006341258796,-0.21145010871980477,-0.17952180901333137,-0.16991270365767058,-0.1841562415593627,-0.21808703563731288,-0.2572090191668633,-0.2815361632997297,-0.27707070648020565,-0.24029535714049693,-0.17912235810434823,-0.11298472916070762,-0.06140566108209141,-0.030998047160903132,-0.018898691113056452,-0.017719302825210562,-0.01900175999082762,-0.018321400002359687,-0.016008999603658956,-0.014932822191670483,-0.019500199810489012,-0.03870009960017061,-0.09926657731698614,-0.039819682798569296,0.01357234209580738,0.05630201120492849,0.09663790159970695,0.13578072846190103,0.17266677013966153,0.20239571069166298,0.2131118723586728,0.20688983595318203,0.20003329772491618,0.20036100231162968,0.20422532746706087,0.20339342466758215,0.19519553826478575,0.18457552652278592,0.1865071420710861,0.21280442956051518,0.24295032375812317,0.2354115066042175,0.19774584686091437,0.1582822446255233,0.12650223822796952,0.1020232728091598,0.08469481504570386,0.07718959498637358,0.09541566322308043,0.19719848477318339,0.2641345317188923,0.1460135989449057,0.08887347339050597,0.051660639859660414,0.02626126296214043,0.009445521969311567,-0.0017172763380601,-0.008782597437625486,-0.012500487004184518,-0.01439589790024012,-0.018057554330397848,-0.025525277324343974,-0.03571347681623339,-0.04201129271818554,-0.030448347475720325,0.01669047574384013,0.10057892464785062,0.12469154437817478,0.04422786556878431,-0.06313518443681637,-0.16774101238452682,-0.24482950546923693,-0.2697863367747116,-0.23883839280141547,-0.19019891097104866,-0.15403492222755183,-0.13381452730780394,-0.12021777750080613,-0.10196780944095823,-0.0756455478826516,-0.04821107021210265,-0.03274546471287533,-0.041962795492748256,-0.07615230116783395,-0.12320882492021262,-0.1587468509316916,-0.16091012075178895,-0.12694767195059337,-0.07785702735908479,-0.03442560244631065,-0.015524109033800174,-0.028005202315413962,-0.06450408741102123,-0.10633330475223494,-0.13648701843871117,-0.14947213930979758,-0.14801599472193333,-0.13543769166154115,-0.11572617754389258,-0.09387156211818178,-0.0725981015344235,-0.04884673522824632,-0.01770999962452605,0.01734514852761266,0.051702837027870194,0.06850036326345281,0.07223696557747133,0.08559569642272008,0.1168716973904152,0.15335087798576583,0.17861168111285608,0.1880857723177628,0.18839734074456144,0.18611726756843863,0.18810710651183368,0.19692451368705235,0.19813790688837615,0.17343897137362282,0.13955753725060546,0.11105001454948592,0.08844925082294669,0.07149803588173485,0.059409364408966464,0.048572068503078825,0.03513964270643459,0.017653654689895888,-0.002460082955904209,-0.020448759850250946,-0.03245832113729204,-0.036591429175474664,-0.034426943266509476,-0.02750919076879854,-0.019148898966740213,-0.016941104095269943,-0.03107130354250872,-0.06580127388322422,-0.13443776389872011,-0.30595539847408976,-0.3666260797387363,-0.2490821632688131,-0.20502351567412125,-0.1840852123742992,-0.16621747245196128,-0.1412305271602013,-0.10797993906610205,-0.07376832035227159,-0.038706580542834476,-0.0031736109282161427,0.026981074816123718,0.04169640104414184,0.03871858254586719,0.022503870125458812,-0.005998679142667728,-0.04990508249998692,-0.10921437705941114,-0.17615361171954919,-0.243535026369455,-0.3130099481040108,-0.39460750647389015,-0.4577176873858684,-0.3412575041145412,-0.1609965757391059,-0.06858154855209712,-0.038596038104556966,-0.0498319794481584,-0.10389668631068276,-0.20019609171625571,-0.18898264216695387,-0.107108288568051,-0.033247946519960436,0.04327387545557027,0.1302610377283479,0.20595235745525653,0.19668279002172154,0.08044320993175913,-0.05526977629113524,-0.15043812201486875,-0.187669000576592,-0.17283758677885158,-0.12497814296403195,-0.05798997937047889,0.014654717602999273,0.07477831104119168,0.12824086760396836,0.19068802422318623,0.28246178889497386,0.4151642198787926,0.4455790009896627,0.32403655457587005,0.23561135125592902,0.1849772066029473,0.1541845807752042,0.13499566871109567,0.12573238038400422,0.12871533345369068,0.15088578117049653,0.21525049866377838,0.4059675724051017,0.325770155076072,0.16177620257467298,0.10524523425931849,0.07337919962259401,0.0377670141415637,-0.0077897303118014015,-0.057026801261553475,-0.0957844019478895,-0.11096415204542144,-0.08937289832405004,-0.023227570544312053,0.08690660687884462,0.15659065156702506,0.09046187805928968,0.046308428427957904,0.01603052828326381,-0.00834574286393346,-0.03140730314652989,-0.05887588848097052,-0.09408522385707328,-0.14386872532537687,-0.2185586626064718,-0.33092460358311776,-0.3597196626258615,-0.22078230906463894,-0.11718644224631872,-0.057185320069914294,-0.023474694528846075,-0.007267430754955255,-0.003415374153552959,-0.005058287542724131,-0.0047398970313195805,0.0010506933224512934,0.008478023596996561,0.011027289882674087,0.007446808255245154,-9.923847563929478e-05,-0.007511227842134678,-0.012127137380849497,-0.014953236136105495,-0.016414185072434473,-0.018424767147059807,-0.022713810984517305,-0.030496217466799456,-0.042589878562280914,-0.05856732831083424,-0.07523395773158577,-0.09063515505714136,-0.10399042716425189,-0.11748546515630738,-0.13176937459593843,-0.13982442952905974,-0.13321222763392424,-0.10716695739537631,-0.07114618476010352,-0.04358366427828041,-0.03072257950352323,-0.027983915883430258,-0.02866368349924626,-0.026031137387866166,-0.01682979437029552,-0.0030962698297878153,0.007119755166187233,0.005915286708052048,-0.007814496030580795,-0.027711764611004663,-0.045731744719750306,-0.05556924533757597,-0.052076260647219916,-0.029875879803383514,0.012232628776776194,0.06306827829695041,0.10785096700882711,0.1406113805065498,0.16121342207143993,0.17290607123796953,0.1773295611306814,0.17350852355642002,0.16251876038811663,0.15244047722110293,0.15467876867567276,0.16939352724790815,0.1854844981652265,0.19126585662599493,0.18252421531805532,0.16393356736750647,0.13747483477183103,0.09822164916413398,0.056656065248253513,0.028670585025009628,0.0127309570100757,0.005256849600203816,0.002399866924118064,0.0006018745985287157,-0.002867549636228385,-0.009517629855462425,-0.020740940908673903,-0.042584487361624915,-0.09245196465892751,-0.10315212303902563,-0.057083128041798666,-0.0334996563080525,-0.017781786251016726,-0.00598126185396214,0.0034938093658418794,0.013106490067572656,0.021591732697412665,0.029929541825369516,0.056689450728727206,0.1433738687325064,0.34508707046723214,0.2402907026142849,0.21676332024079115,0.1927398210502645,0.13425803002783745,0.0856215003443454,0.05524828317775292,0.03271166674052895,0.0075121264049323256,-0.03250365257286398,-0.09920242591074498,-0.19719659983780552,-0.301139849081908,-0.3744242373343794,-0.43993088654793827,-0.5354589528411144,-0.6453239426486136,-0.6326412520672927,-0.5112805744249325,-0.4229464912125064,-0.3793952176430571,-0.3628385705376034,-0.36094087742026143,-0.3620947468195941,-0.3525957963057454,-0.3229722765485565,-0.2687788695906626,-0.1988607029878945,-0.13292849534641024,-0.08154697445098767,-0.03869407989773629,0.0004209750290842947,0.029484240729125887,0.037806311467273035,0.027792990154632855,0.010902582017761255,0.00048921164732715,0.005516772396416816,0.03208975121085384,0.07924737254787646,0.13439855067663534,0.1854623215048067,0.23752752912427216,0.32614166886387114,0.449858701834205,0.3265338851822679,0.20629598760219867,0.14978638452232346,0.1098290075786329,0.06751563219326967,0.024804408478881858,-0.00981903603497695,-0.034052580642818124,-0.04803234187629894,-0.055795950366605146,-0.0634608391395498,-0.07305907041315401,-0.06505631087677204,-0.026835017502114703,0.04457942929631662,0.13810919666290708,0.23294527100759874,0.3173542869670857,0.37277917821611184,0.3747518992081383,0.33568015076675717,0.30535484378848377,0.3184138563855502,0.3409968261956233,0.3357425086787116,0.29845927370719577,0.2465909036444179,0.19072747544671156,0.13652445945377734,0.09653611108905538,0.0798234348809493,0.07853346992804668,0.0771412315413272,0.06238307613678908,0.025758012435202024,-0.017086336365235637,-0.037322792621917386,-0.031994570003442795,-0.015185881305537888,0.0008275887996514742,0.011663054037724208,0.01669587314393234,0.018027914097387493,0.021681652732407092,0.03116036106799741,0.042193740686226756,0.051014941633488055,0.055455440053193375,0.053850519803993545,0.04182527246646399,0.009758742539344964,-0.05661194373665646,-0.1547845912669552,-0.2381719062497123,-0.26745776879810546,-0.2373552571745419,-0.16278202173409842,-0.0967893111762954,-0.065289016131233,-0.05797800570756062,-0.059237030549652056,-0.060756178206219244,-0.06154767696432677,-0.062370304620796936,-0.06816674863037193,-0.08312706977356972,-0.09766289328993609,-0.10109422213055426,-0.10216349657242223,-0.10060869007726155,-0.08662581442995487,-0.048001012326080846,0.01749799405048276,0.09471334787212621,0.1587270499827475,0.1897401672510871,0.17027227560593491,0.1024693663129651,0.02675194365052191,-0.02388906397769687,-0.0435515043786292,-0.03447981002931451,-0.008278766951281153,0.023074640090545925,0.050630037248449014,0.07167057438389059,0.08606314807261879,0.09626955828176412,0.10165640855607197,0.10032280450556053,0.09046091873613778,0.07456972036819967,0.061861555497401376,0.06031352958448023,0.07099899165720022,0.09034585242022536,0.11079847197315199,0.11879710248892573,0.10887484211019598,0.0880480893522001,0.06345493516051191,0.0372605908522257,0.008491009089979476,-0.026058370382998124,-0.06605075061231275,-0.10285610881854129,-0.12476860608564716,-0.13084118613888832,-0.12843221755486237,-0.13186821828668693,-0.1495075787663082,-0.13286778109425237,-0.0873996664155039,-0.06985867844191686,-0.0702753163207757,-0.08058333714651973,-0.09946554277243214,-0.12430526538681186,-0.1449302789031053,-0.15640248341272617,-0.16053569439986484,-0.1642305342463621,-0.16130471796901355,-0.14846985942990368,-0.15495388574852648,-0.19218102524065886,-0.24109097733906942,-0.2690643237949197,-0.2664187896258689,-0.23412992124564974,-0.17430140310685285,-0.09290199945085255,-0.03193401215023158,-0.024611006217254434,-0.07081506209490059,-0.17550865598511664,-0.2778117047339746,-0.2516449359868515,-0.19232893125307934,-0.14919444983994506,-0.11800781737736041,-0.09162229049812708,-0.06520357414158709,-0.03791114076144265,-0.012932674099988032,0.007814369265260187,0.028849942437154583,0.04834612601194025,0.032636666850332105,0.02157908060414563,0.021136370458605867,0.027580577861567052,0.03931089432997247,0.05500114895830173,0.07128234032558994,0.08409715555759555,0.09312829922733178,0.10175306033876784,0.1140565802191038,0.13278603234131103,0.16145667445094722,0.20263956479067385,0.2502068243104168,0.28470177222375337,0.27934525190127313,0.2442776491528854,0.21530225727668226,0.20277289441977528,0.1944903375566603,0.17503847892951213,0.13634936614400525,0.08113469347106993,0.020421433390558713,-0.03277343355454099,-0.07004450631867475,-0.0874975622943442,-0.08716736391637162,-0.07287792721098323,-0.05500335901392566,-0.03834710631185999,-0.022341314345156557,-0.00699305872709171,0.003264234427115917,0.0042959610455129285,-0.006197835868341855,-0.026752056662021455,-0.05232371339036218,-0.07662868722168134,-0.093797732654111,-0.10188903178086703,-0.10517633930853383,-0.11019799810708093,-0.12507181837380968,-0.15344553478089573,-0.18541693978817142,-0.20551720828781983,-0.20648573553195684,-0.1916540771879758,-0.16883707318047783,-0.1493695309540942,-0.13566413663012375,-0.1213563198514701,-0.09830502912537462,-0.07112934254829126,-0.0529295552409901,-0.048043822136267456,-0.0580050379155664,-0.08211560992892131,-0.11524624147958451,-0.14368986158502237,-0.15671948653111178,-0.16088730786097916,-0.1632364026382378,-0.1617577044153187,-0.15533049384427547,-0.14269390267755017,-0.12305245878274215,-0.09851487773675253,-0.07338055392296185,-0.05102501240825749,-0.03332564518504124,-0.024152089536590086,-0.028180830488965303,-0.05601007049124699,-0.13507502996314638,-0.08332127481939991,-0.04777429115653757,-0.03208307013149501,-0.025927130329681542,-0.02157458264059848,-0.018927495330300664,-0.017036717054654614,-0.011037589898193364,0.0027658918501327293,0.028558549842022087,0.071150656799264,0.12440254874130265,0.17280149831289837,0.20492507628624507,0.21837278632934595,0.2187767671526099,0.22217642121736011,0.24363331832851504,0.2840818349261454,0.28967683479986867,0.24070644019958387,0.20299835081437892,0.19339894424609935,0.21213667718275173,0.2673424801352016,0.36685786339458776,0.384823566106289,0.26000049312774814,0.18931845943285974,0.16671665936387922,0.1610661004014801,0.15625074722491752,0.14659540331732945,0.13060075762791426,0.10800473065021941,0.0812070769202523,0.05966094302268539,0.054767857147091266,0.06721751952593552,0.09957885206783189,0.15069485044797787,0.20064430485548054,0.19971021589981164,0.15637810509827338,0.10982710360417519,0.06528382462299381,0.019019762771190347,-0.026921343705045793,-0.06768579144664907,-0.10234278362640477,-0.13511342784297603,-0.1719877939043933,-0.21721986278103703,-0.25845777540360965,-0.24650045419491157,-0.19372216059017752,-0.14921751943119618,-0.1216876212436644,-0.10974541533746195,-0.1111670382551198,-0.1242870636911598,-0.15357655596544456,-0.21835071377098922,-0.3173887034394544,-0.27471760428466996,-0.20093154489175694,-0.16267200914290986,-0.13967533793024536,-0.12222753542756597,-0.10759452675678784,-0.09624633739038764,-0.0913837407222852,-0.09493583639863007,-0.1092827727381607,-0.13553113379395043,-0.16805719168404953,-0.18336643863530663,-0.16821225183130703,-0.1413057154532767,-0.11320673715771513,-0.08755092007712634,-0.06647195693651832,-0.049527093941304404,-0.033295976595364006,-0.01390983478302134,0.014026388145445587,0.049527243597389144,0.07290331718503648,0.07763688362989939,0.07999108574624098,0.08757670160975632,0.10273265236374333,0.12596326725868845,0.15652367946502693,0.1852618159726675,0.18454628086249802,0.15329967489884783,0.1282943075626434,0.12467338613777967,0.16422881892570973,0.20533859072899827,0.06393187920346557,0.033854347053399785,0.02817512873913344,0.03358642952669207,0.04590976506010479,0.05959459712186207,0.06983076458951976,0.07279749967390625,0.066828196554654,0.05616219630084076,0.047122241868278736,0.04218492717816823,0.04010901096564484,0.03910629664578691,0.037649031923322376,0.03413298240860722,0.026934631336739064,0.009656961281392734,-0.03751406112577682,-0.1060527997386376,-0.11333351396908253,-0.09940469842143043,-0.0814069130649693,-0.05988112483370754,-0.03486900258475163,-0.0075204599011672,0.021067240571491678,0.04384644929598488,0.05011408391407212,0.039756080421001184,0.020899699459456737,-0.003403347967119499,-0.03281337038382,-0.066779860952666,-0.11087355196691566,-0.2065656888503728,-0.37817900442521624,-0.13691918880847848,-0.08054687405335897,-0.06706898197390916,-0.07089620203592614,-0.08772449889227422,-0.11819382361183504,-0.15964690187939987,-0.17150408606004963,-0.14858319222543764,-0.13807943966151,-0.13887450735393256,-0.14120924115128805,-0.14157650794058746,-0.13927806068608364,-0.13380013649307043,-0.12058380576550524,-0.09005068220433489,-0.03871805268157256,0.025320964408614668,0.08103717186553355,0.10908687231953489,0.10682881549198464,0.07893197433061576,0.0374925977199697,-7.616205366383034e-05,-0.02413921669467267,-0.040055819448235726,-0.04804080146247779,-0.04251722828445376,-0.029501955886177603,-0.022967221265588166,-0.02768732826378824,-0.044283441167171804,-0.06801313581673982,-0.0939668573679686,-0.11615080489790448,-0.12779459601226276,-0.12015938959574068,-0.07946026221225884,0.0002753227281090876,0.09667219460698506,0.1674129602743938,0.19373881842082386,0.18691633866523832,0.16130716643005583,0.13396343124793447,0.11883115502521999,0.12144031077842408,0.14397465194583792,0.18803061818792086,0.24599259026025366,0.29174574377033186,0.3169405925587286,0.3544739528995973,0.39831010054263616,0.3061102929210642,0.19468776970756113,0.14079724426512194,0.1196138894390852,0.11331223230385695,0.10577101989684241,0.08459639080665743,0.047549150102096635,0.006275811347076714,-0.025796527426856012,-0.0400086248502847,-0.0360161742296361,-0.018455752368964164,0.006562601948169902,0.032345061152798255,0.053943514189393804,0.067552211923402,0.07274690995274817,0.0715742475023638,0.06438966800366751,0.04754897568574451,0.014534432155421434,-0.031978418142217614,-0.07366138461669694,-0.10068748460542307,-0.12886945904699568,-0.17984471335820718,-0.24043640668555855,-0.2646881064428049,-0.2564161812093653,-0.23692187872270223,-0.21162112790853688,-0.18162321027018322,-0.15246799513883594,-0.12958514738210278,-0.11663032724055099,-0.11289043486767618,-0.11657248484016425,-0.12390797408457577,-0.13099657997489955,-0.13478265868935768,-0.134514913224824,-0.13321971926089415,-0.13477892135170622,-0.14536763761911173,-0.16588125387543115,-0.18059635459645446,-0.17037062120295687,-0.14896573300236612,-0.1390520445485607,-0.15951256636795397,-0.24490172386516873,-0.40408524282459185,-0.2754348890381313,-0.13815068122323934,-0.06881894690968082,-0.027793768750818813,0.004947917538752983,0.039268482123766345,0.08126140898601718,0.12941163059455763,0.1674848454082001,0.18276637754184683,0.17506066270185824,0.15021194832889398,0.1146585652545599,0.07894217743272638,0.04812824984155693,0.023038684179157328,0.002235607186941905,-0.01723608832943841,-0.03355148288303106,-0.032774952503110105,0.008185200714412085,0.08095898040986596,0.11842725427046591,0.10448692562941249,0.06791244204848695,0.02920786436500894,-0.00032575482148434847,-0.014731198599960822,-0.013933613362412233,-0.003241839185478282,0.0108283016869922,0.021411549704958663,0.026262371196455882,0.02633881960076239,0.02117692614465925,0.015595233838487998,0.009781584949946286,0.004304698490335821,0.004184776067842223,0.011424105009625709,0.01497143040985614,0.014305535616287422,0.009342091003780199,-0.00018844363184209313,-0.011994820732145861,-0.018786238538683615,-0.004499423361261161,0.018991953410917025,0.02410283236264206,0.016885230478341392,0.007390281491347858,0.004730676403645387,0.004042933537885774,-0.0016556538457500034,-0.012219518527105847,-0.02517845716069488,-0.037911958239141605,-0.051129798629260335,-0.06619920970657439,-0.08859928840212845,-0.137193225802922,-0.329108929470403,-0.38281778628425295,-0.14324351907451816,-0.09039853985279782,-0.07641759956818468,-0.07010965085882584,-0.06404687740626873,-0.07518807611284704,-0.10040879083397435,-0.1263985428134131,-0.12002806424172502,-0.11428499871867585,-0.11913137678201606,-0.1319310592308001,-0.16033627912936826,-0.13496695189301186,0.02467849376893137,0.05260151961404398,0.061911843767898746,0.07128814773791364,0.08869260000568034,0.11891676787854,0.1505294819784563,0.15434514734195523,0.14930112300214204,0.16098183628638363,0.1835301453756735,0.2002861200981288,0.20224560019852023,0.19309107327210004,0.18250344970369337,0.17689971139558172,0.1763018162810521,0.18066759833036924,0.1859317848035311,0.18666567166040407,0.18078306369026723,0.16930720729705098,0.15653527710174678,0.15024674850392492,0.1572723810375842,0.18401111475499438,0.22979764881180437,0.27845800117226505,0.2915800851069995,0.2611828216804595,0.2361088695961431,0.24499569446102515,0.2882945865613717,0.33714521254878616,0.3538595644323747,0.33915957197954166,0.31307500123063264,0.28990164565284315,0.2761427410356532,0.2728805315966121,0.2854241945433574,0.3110259116884367,0.3357235032821998,0.34614223585456494,0.3295555264774669,0.2645655455880963,0.11351803153794335,-0.14814618459510695,-0.31251661202302283,-0.21575001547965703,-0.10201376963476737,-0.039870235751001994,-0.0168240570214352,-0.024155885387457873,-0.05891390092358185,-0.11712868528597103,-0.17800528066356464,-0.21930335226512207,-0.24592571416659947,-0.2698736123109237,-0.3037753273849658,-0.35587095491612764,-0.424064874296451,-0.4821498710212176,-0.49894904514124655,-0.477629259184262,-0.4392375597134098,-0.3959606972428899,-0.35787728554061216,-0.32522086264292127,-0.29684769561063074,-0.27478814255888057,-0.2663599536172772,-0.2785190928769455,-0.3215381515348668,-0.3908730774676661,-0.4249122198179097,-0.3846240097446075,-0.3280245025397673,-0.15878534242048115,-0.03408620897515878,-0.004169778670713372,-0.0011758616769762273,-0.00372463958190421,-0.005517517183592865,-0.005986240272615306,-0.00411811868144753,0.006047491237723893,0.05638009071562851,0.21046063339292073,0.34877364531500443,0.36804196515304477,0.363542289114474,0.3747094654139826,0.4276941062745625,0.5855377002639619,0.5517024432368334,0.13751690201894268,0.006668043256204226,-0.046480056088734914,-0.07207466092570189,-0.08199261203167467,-0.07279423880017569,-0.03763009246590855,0.013403798743856147,0.058306404232541124,0.07885859564801627,0.08437670866237938,0.08636101684966842,0.0866477280695401,0.08121842293785826,0.06677305926249648,0.05254245595954386,0.04387056847293117,0.0386567251369659,0.03318026186003605,0.018238359415393417,-0.023800603416674358,-0.1330160354726791,-0.24731498493764684,-0.19167161650273587,-0.11431610689828962,-0.04772371932270218,0.006339155708481519,0.04341315579273272,0.06392215526511998,0.07260048861559978,0.0751491988928222,0.07699825058943133,0.07863734888217196,0.07591089600187474,0.06582813750332281,0.044525654426592114,0.0012605398692062265,-0.07857781601789184,-0.15974783823384997,-0.16699269990957913,-0.16581849468885912,-0.1708874128877019,-0.17957292308987483,-0.19231001509884868,-0.21279522907680803,-0.2404931630356406,-0.27090857944189095,-0.29262424003235693,-0.2902048734131176,-0.2440323374277744,-0.1806284627071015,-0.15244409652728486,-0.145230886954046,-0.12749773406194098,-0.08894124585660187,-0.046579012735472373,-0.01842590911262331,-0.015692079819182636,-0.03382429998997551,-0.06257239574758461,-0.08784994152908761,-0.09109692735963038,-0.06303258937710159,-0.017644256415919227,0.01908978831466796,0.03360523518509194,0.038494010021265804,0.05119156488781097,0.08134529467920348,0.12435385410805294,0.16620453937189364,0.20337354103821745,0.23131607224239525,0.24042621672460188,0.22865812692997833,0.20488407963036634,0.1831530949997996,0.17464656371157325,0.18309450433365781,0.20274853788895833,0.2288802767993772,0.26530162031769683,0.32278727515555533,0.37155043207582494,0.3403997344907778,0.2705674149019429,0.21718276210685325,0.18442059326195998,0.17072979577350966,0.17726373620885202,0.2050309684746784,0.24603988285059372,0.2800924264912251,0.29192831263850316,0.2747529525005656,0.226824719269507,0.1549276758992146,0.07495324188677888,0.0056497460673762285,-0.04962979931161382,-0.11081492210286627,-0.2056468448397062,-0.30304335465012283,-0.258243227274773,-0.1869211523523644,-0.14842913980208888,-0.1417085494041874,-0.16727358641746642,-0.21972779770878334,-0.280435711841973,-0.3139037149611992,-0.26002280965018626,-0.12653592796101354,-0.0322006066386224,0.011471192214314996,0.0274315087180335,0.02551781456516243,0.0008334709858955554,-0.05278380478908504,-0.14464379116049095,-0.3429012478298605,-0.6038159731140139,-0.4781944849531961,-0.3591319099438324,-0.28198240313041867,-0.22204408686688595,-0.17617208557418101,-0.14594922526593185,-0.13403984348282946,-0.14288305800342413,-0.1561135924237924,-0.15343942154707663,-0.14945739677188025
