-0.0033077156487160897,-0.00045006332073501846,0.001541633964521198,0.003013757613485567,0.003966308389479258,0.004263207501171575,0.0041518702388718106,0.0041518702388718106,0.004832264195525281,0.006737364984191492,0.010151705913634892,0.014605188772413812,0.019615354126085713,0.02460078787390187,0.028720256655817986,0.031008861449299374,0.03108308679971333,0.029276946783922654,0.02667908241906926,0.024402858694939113,0.023128661934974,0.02333896455007631,0.024675013224315825,0.025936836548141388,0.02591208967586228,0.024353372583592582,0.02194106396156239,0.019442164186190377,0.017277278487681163,0.01470415336189519,0.010893951784562766,0.005982747203766404,0.0007746450379200601,-0.003876771579748626,-0.007748831941245968,-0.010668336946822609,-0.012214680602952754,-0.011497173971092307,-0.007847796530727348,-0.001365501421521731,0.006279645552137553,0.013009359004937132,0.017450468427576495,0.019231861571088065,0.018675179076195078,0.016658736445302094,0.014036132841381275,0.011005289810183701,0.0070590063882359074,0.001789049254830489,-0.005027255351310918,-0.012944560670952758,-0.02062681573989201,-0.026639023324152307,-0.03053582368803824,-0.03300997659113115,-0.034816108973710146,-0.036374833699191526,-0.037537684800324024,-0.03802014194480305,-0.037649022825944956,-0.0367830654932566,-0.03554598904171014,-0.03392541240195436,-0.03164918867782421,-0.029162662338591747,-0.027022515879149955,-0.0253277215221919,-0.02353395494254078,-0.0208742310302013,-0.016804248359631714,-0.010458034331720297,-0.0011057149850363915,0.010683649169460454,0.022386416064046125,0.030761438525778402,0.03329745860956908,0.02948724939902497,0.020728726749083364,0.010126959041355786,0.001096284915322138,-0.003790176609800959,-0.004346862157978615,-0.0022561987565986826,0.0003664086639279778,0.0021230602784086156,0.0030508702886925454,0.004374544000150172,0.0067992191884294,0.010065107127081386,0.013071210919211535,0.01523609661772075,0.01602782859999515,0.015483511908030042,0.014456738071585899,0.013961907490967318,0.014914455976997504,0.017017489761232317,0.018650439837127657,0.017970045880474184,0.013986646730034743,0.007615691173092395,0.0009602068873126123,-0.003926255401131653,-0.006152996830521112,-0.006214851034759018,-0.0052499291125892794,-0.004111816487203037,-0.003245861444478182,-0.002676805513445646,-0.001699513208421026,-4.71497608139677e-06,0.0018756449880993247,0.0036075550735490338,0.005661106563043157,0.008085784804607058,0.010250670503116273,0.011401155801320902,0.011648571091630191,0.011425895040388325,0.010955803698837169,0.01004036788801396,0.008258974744502394,0.005215758277165266,0.0007375323627130823,-0.00475509776864953,-0.01013639369099705,-0.014095045969157387,-0.015987777138289888,-0.0162599316676666,-0.015653763061427087,-0.014478538524155033,-0.012697145380643468,-0.01043328745944119,-0.00840447902562033,-0.007489041688154787,-0.007959134556348281,-0.009258062922169137,-0.010482773570787722,-0.011200280202648169,-0.011385835945471373,-0.011670371544199325,-0.012437356654194622,-0.014070299096878278,-0.016532086197043317,-0.019290774698864175,-0.02141854772216641,-0.021950490977991968,-0.020404147321861826,-0.016519720394115447,-0.011200280202648169,-0.006066401097252276,-0.0026396928382386676,-0.0018355919997517201,-0.0034685359690777126,-0.006350929826089712,-0.008985908392792421,-0.010383808981306341,-0.010025055665376117,-0.008070472581969215,-0.005163334142641612,-0.0019221869696993876,0.0006509367821084799,0.0016034874054379367,0.0004406334036849987,-0.0022561987565986826,-0.004804580826711388,-0.005720019690819269,-0.004680873181556742,-0.0024665021350221638,-0.0005119172959765748,0.00011899291562598599,-0.0006479960109751521,-0.002243827610422634,-0.003530389409994451,-0.0032953452658612092,-0.0007098499862167085,0.00392919571427228,0.009656875333016311,0.015557737258443996,0.02091429012511825,0.025479118642729785,0.029413024048611014,0.03319848638687602,0.03688498413565964,0.039260180082482846,0.039334405432896805,0.03725611088772941,0.034596386975389935,0.03321085982301557,0.03473246424007829,0.039260180082482846,0.045272387666743144,0.05083924314851972,0.055008205674994044,0.058162760167952104,0.06087196255842644,0.0630492216930752,0.06321004583004268,0.05957302655939389,0.0511485179863151,0.03831999739938053,0.023017323909353064,0.007665171941190749,-0.005522086695250668,-0.014960995668634063,-0.020589710697896713,-0.02332365232743847,-0.024338052727743052,-0.024882369419708165,-0.025970995170426708,-0.02785136053663134,-0.030201809611175443,-0.03236669530968466,-0.03370274398392418,-0.03408623653892182,-0.03388829972674738,-0.03371510978685205,-0.03416046188933578,-0.03545939025515663,-0.03725315683480775,-0.038935577755626255,-0.03961597171227973,-0.03866342322624954,-0.035978967708054324,-0.03192135084041261,-0.0273194096475941,-0.023212314301817534,-0.0200453940059316,-0.017880508307422386,-0.016420748171422382,-0.01529500974549686,-0.014725953814464326,-0.014713580378324771,-0.014837291840085257,-0.015072333694254994,-0.015579537711013131,-0.016086741727771265,-0.016420748171422382,-0.01601251637735731,-0.014132158644364365,-0.010655963510683056,-0.005917951923066701,-0.0008335581656961717,0.00392919571427228,0.007553837732175657,0.009137297880118623,0.008345565897844218,0.005611623504981299,0.0021849144826465226,-0.0009448946646747683,-0.0033324571777470185,-0.0046437605063497644,-0.004334491011802567,-0.0023799064017533283,0.00018084689086754236,0.002259139833060478,0.004015791447541116,0.006155938670304075,0.008902256025948886,0.011091880963525525,0.011710423005904594,0.010312522417390675,0.007368275882783105,0.004077645651779023,0.0019622407213681606,0.002147802570760713,0.004560105849542724,0.007974446778986125,0.010473346554358139,0.01090632522070232,0.009768205725425562,0.008555868512946532,0.008778544564188398,0.011388782365181347,0.016287617326443998,0.02192869815863452,0.02609765305189717,0.027483180204271533,0.025973949223348367,0.022015289311976344,0.016225757778957912,0.009929029862393026,0.0045477354666878436,0.0010591730034363285,-0.00032635544658402254,-0.0002273891777960726,0.0005148581434420196,0.0014674086141072426,0.0035457016326322947,0.007590949644061467,0.012774309517555713,0.01688141249654396,0.017697883717885787,0.014506224182932431,0.007986812581913996,7.655813623666325e-06,-0.007588008567599671,-0.013649693866673652,-0.01752174735828048,-0.019043359408554884,-0.01820214131493395,-0.015047594455187571,-0.010717815424957458,-0.007080806077483873,-0.005546828224281597,-0.006709682378698768,-0.010222984844338874,-0.014824918403945704,-0.018944394819073507,-0.021245357782271077,-0.021232984346131523,-0.019587676100519997,-0.017385670093592123,-0.015703249172773617,-0.015183671719875929,-0.015468199685392196,-0.01616096707818522,-0.016680536897871225,-0.0165939457445294,-0.015183671719875929,-0.012536321243676,-0.009146724896548204,-0.005423120579126951,-0.002058265761030082,0.00020558841989847145,0.001318959439921668,0.0012571059990049297,0.0002550715542924464,-0.0014892098299975449,-0.003344827560601899,-0.0047798392976804585,-0.005188075671672542,-0.0037406935517391004,-0.00021501841328060807,0.00463433119995668,0.009743466486358139,0.013900055576692915,0.01659688453102769,0.018316425760264855,0.01991225552774153,0.021916324722494968,0.02447708404535307,0.027631630905099448,0.030761438525778402,0.03302529644698068,0.03370569040363415,0.0329881837717737,0.031318128653883066,0.02885634155371803,0.025305921069622764,0.020382346869292692,0.014815491387516123,0.009978515973739558,0.00752909543982356,0.0077888834029512365,0.009335234692293068,0.01022593126404885,0.009248635905739556,0.0063662412854063885,0.002766341559855108,5.713896328406468e-05,-0.0005614005067026666,0.0008983526830747055,0.0029642745554237094,0.004114757563664832,0.0036075550735490338,0.0015911170225830563,-0.0014397267719356865,-0.004903546942835103,-0.008763232341550554,-0.012956934107092312,-0.01700217753859447,-0.02029280929624089,-0.022346356969129174,-0.02369477144629656,-0.02480814406929421,-0.02577306599146395,-0.026441086511977865,-0.02714621970769876,-0.029150288902452196,-0.03331924379571485,-0.039343817182903015,-0.045504467834779544,-0.050032176043972414,-0.052098104786211935,-0.051726978034142154,-0.04926519093397712,-0.044193166032819135,-0.03536042566567525,-0.021678336448615255,-0.0033077156487160897,0.018056637033816013,0.039334405432896805,0.0566411481176777,0.06687180433975887,0.06896246468785412,0.06386569291441703,0.05398142420533822,0.042340501591815266,0.031540804705124936,0.023252373396734485,0.017982411683402054,0.014902090174069633,0.012786682953695266,0.01038674776780463,0.007182713270069385,0.003248802520939978,-0.0007593331206106835,-0.004445828274102332,-0.0075261543633617645,-0.009777640375066825,-0.010792040775371412,-0.010222984844338874,-0.008231289085724996,-0.00570764854464322,-0.0037406935517391004,-0.0028376258338072683,-0.002627322455383787,-0.002441760605991235,-0.002194344552360776,-0.0019840411739372944,-0.0021572326404749663,-0.002553097868291,-0.002602580926352858,-0.0021077488190919397,-0.0014149852429047576,-0.00045006332073501846,0.0010839145324672576,0.003360139783239743,0.006155938670304075,0.008951734504083734,0.011215592425286013,0.012848534867969668,0.013751604875865006,0.013553668063690561,0.012069176321834818,0.009273375144806981,0.006007487969476164,0.0029890160844546383,0.0004406334036849987,-0.0017118835912759063,-0.0038272885216867683,-0.006326188297058783,-0.009159098332687757,-0.011620885432852793,-0.012956934107092312,-0.012783736533985292,-0.01126213211692257,-0.009196211007894734,-0.007724085068966861,-0.0073653348063213095,-0.007909648445001749,-0.008701380427276154,-0.009208584444034287,-0.009183837571755182,-0.00883745769196451,-0.008565303162587795,-0.008058099145829662,-0.006746795053905747,-0.004346862157978615,-0.001068603073150582,0.0024075890072460526,0.004758038845111325,0.005438432801764795,0.004374544000150172,0.0015292628183451494,-0.003023187683199821,-0.008750858905411002,-0.01480017916487828,-0.020243323184894357,-0.024214348899194247,-0.025698840641049995,-0.024350426163882607,-0.02110928051758272,-0.017373304290664252,-0.014342461259466676,-0.01290744799574578,-0.0128084834062644,-0.012944560670952758,-0.011719850022334173,-0.008627155076862198,-0.004371603687009545,-0.00048717576694564573,0.0016653416096758435,0.0017395661967686306,0.0007622739680761281,-0.00011605206816054124,-0.00021501841328060807,0.0002179592607460528,0.0009602068873126123,0.00199935263325397,0.003248802520939978,0.004733297316080395,0.006353870902551508,0.0077641441638838125,0.00882803067553493,0.009619762657809333,0.010856839109355788,0.012675344928074334,0.01435777348210452,0.014864977498862656,0.013763970678792876,0.011648571091630191,0.009768205725425562,0.009063072529704667,0.009755839922497692,0.011623824219351084,0.014060872080448698,0.016250504651237018,0.0175123203418509,0.018019524358609033,0.01848961570016019,0.019330826160569442,0.020493684894913624,0.02103800158687874,0.020048340425641575,0.01759891912840441,0.01440725959345105,0.011314557014767392,0.008766171128048846,0.006304387844489649,0.003471477045539508,0.0005890828831990405,-0.001786108941689862,-0.0032829741196851604,-0.003344827560601899,-0.0019098165868445074,0.0005395997488050655,0.002877678822154873,0.0044735108795950565,0.0054755447136506045,0.006267275169282671,0.0070590063882359074,0.007825996078158214,0.008160002521809331,0.007615691173092395,0.006329129373520578,0.004758038845111325,0.002358105949184194,-0.001971670791082414,-0.009109612221341224,-0.018461930041382794,-0.028309078442042942,-0.036189270323156636,-0.0404448240029728,-0.041137583762554136,-0.03918299304593555,-0.0357439182206729,-0.03167392791689163,-0.0268864386144616,-0.020243323184894357,-0.011460061295885329,-0.001625288621328239,0.007566208115030538,0.014320660806897543,0.017363877274234673,0.016646370642374224,0.013726858003585899,0.011017655613111568,0.010720761844667432,0.013566041499830116,0.01839065111067881,0.02232456414977172,0.02259671867914844,0.01799478511954161,0.00945893852084187,-0.0004624341615825998,-0.009233323683101712,-0.015047594455187571,-0.0174227827687991,-0.017212480153696787,-0.015752727650908464,-0.01387236991791552,-0.011818814611815553,-0.009814753050273803,-0.007897275008862196,-0.0059921765101594885,-0.003567502085201429,-4.182734366994371e-05,0.004226094825964597,0.008085784804607058,0.01030014898125112,0.010027994451874406,0.007368275882783105,0.0036817804239629892,0.00055197051332053,-0.0007469622797631021,0.0001437345209890319,0.0028653084392999927,0.006205420965044765,0.009038333290637243,0.011017655613111568,0.013454703474209182,0.01821746117078348,0.026617230504794857,0.03739218815241777,0.047152745399736094,0.051915503096310385,0.049132075355422106,0.03935914467196422,0.025442005967522805,0.011178479750079035,-0.0005614005067026666,-0.008453965136966862,-0.012684771944503914,-0.013909482593122496,-0.01300641258522716,-0.011002343390473726,-0.009220950246962158,-0.0090230210679994,-0.010606477399336523,-0.012932187234813203,-0.014268235909052721,-0.013476503926778316,-0.01101471682661328,-0.008664267752069176,-0.007835423094587794,-0.009183837571755182,-0.012177567927745776,-0.015468199685392196,-0.01767019805910839,-0.018177402075866524,-0.01703929021380145,-0.015554798471945706,-0.015047594455187571,-0.015876439112668953,-0.0174227827687991,-0.018511416152729325,-0.018066064050245592,-0.01591355178787593,-0.012721884619710891,-0.009666302349445892,-0.007884909205934326,-0.007761197744173838,-0.00883745769196451,-0.010556998921201675,-0.012573433918882979,-0.014552763874568988,-0.016222818992459625,-0.017138254803282828,-0.01708877632514798,-0.016247558231527046,-0.015047594455187571,-0.01402082061874343,-0.013575468516259697,-0.013538355841052719,-0.01340227857636436,-0.012313652825645819,-0.009406513622997046,-0.004619018977318836,0.0011333975905291158,0.006440466635820343,0.010250670503116273,0.012254739697869707,0.012786682953695266,0.012700084167141756,0.012774309517555713,0.013652640286383626,0.01579278674582542,0.01895970704171135,0.02197817663676937,0.023462676011836797,0.022225599560290344,0.018724665187541612,0.014345400045964967,0.01042386044301161,0.007628061555947276,0.006007487969476164,0.005166275219103407,0.00464670158281156,0.004325060942088313,0.0043992862925022694,0.005636365034012228,0.008555868512946532,0.01344233003806963,0.019528762972743884,0.025268808394415785,0.029029531493613363,0.030229495269952843,0.029276946783922654,0.02706257497406691,0.02478635124993676,0.02327711263580191,0.022794655491322882,0.022670944029562396,0.02082769133856474,0.015631962608857953,0.00702189371302893,-0.003530389409994451,-0.014317714387187569,-0.023966933608884963,-0.031018280832517273,-0.03398727194944044,-0.03166156211396376,-0.025117411273877902,-0.017175367478489807,-0.010779667339231858,-0.007563266275247575,-0.007080806077483873,-0.007538524746216645,-0.007117918752690851,-0.004816951209566268,-0.00045006332073501846,0.004720926169904348,0.008407425445330305,0.00945893852084187,0.007850735317225637,0.004040532976572045,-0.0012665353053980147,-0.007414817101062,-0.013624954627606227,-0.019030985972415333,-0.023719518318575668,-0.02787609977569876,-0.030882203567828916,-0.03202031542989399,-0.030968794721170742,-0.02748023378456156,-0.02108453364530361,-0.011348730903476078,0.0006014537240466219,0.012328965048283663,0.02114933961249967,0.02556570979607161,0.0253554071809693,0.021322529552395008,0.01495156865220448,0.007863108753365192,0.0016777119925307238,-0.002602580926352858,-0.005237557966413231,-0.007328222131114332,-0.009678668152373763,-0.012115716013471377,-0.013983707943536452,-0.014503277763222458,-0.013093011371780669,-0.009159098332687757,-0.0028499962166621488,0.004424027821533198,0.010597050382906944,0.014172210106069632,0.01480311795137657,0.013590780738897539,0.011883612945799928,0.01057231114383952,0.009966142537600005,0.010164071716562762,0.010832099870288363,0.011289817775699967,0.011710423005904594,0.012675344928074334,0.01440725959345105,0.016213391976030042,0.017376243077162543,0.01735150383809512,0.01600308936092773,0.013652640286383626,0.010522825032492987,0.006947668362614974,0.0029519034092476606,-0.0012046818644812763,-0.0052499291125892794,-0.008812718452897087,-0.011620885432852793,-0.013525990038124849,-0.014354827062394547,-0.0144290524128085,-0.014775432292599172,-0.01621044555632007,-0.01843719080231537,-0.020230957381966487,-0.020688675287378094,-0.018795944118245592,-0.014490911960294587,-0.00883745769196451,-0.00304792921223075,0.0015045212893142204,0.0034591058993634592,0.0019622407213681606,-0.0027386597176835524,-0.009394140186857493,-0.016371269693287532,-0.02242058231954313,-0.026651389127080177,-0.02848226838193828,-0.027925585887045294,-0.025735953316256974,-0.023088602840057044,-0.02071341452644552,-0.018264000862420034,-0.014478538524155033,-0.008602415837794773,-0.0015758047999452122,0.004733297316080395,0.008419791248258176,0.009199149794393024,0.008036298693260528,0.006118825995097098,0.004028162593717165,0.0015911170225830563,-0.0012665353053980147,-0.004223153749502802,-0.006289075621851806,-0.006759165436760626,-0.0056952781617883395,-0.0032706029735091115,5.713896328406468e-05,0.0036694092777869404,0.0070590063882359074,0.009817691836772094,0.011797021792458104,0.013553668063690561,0.015693814523132354,0.018316425760264855,0.021248304201981053,0.024167809207557695,0.026617230504794857,0.028324398297892472,0.029314059459129634,0.03027898138129937,0.03192429726012258,0.03467061232580389,0.03773856803220844,0.0401632424571665,0.0408312706108921,0.039062243270308404,0.03470772500101087,0.028745003528097095,0.022670944029562396,0.018081376272883434,0.01576803987354631,0.015582484130723103,0.016250504651237018,0.015891751335306795,0.012996985568797581,0.007615691173092395,0.0010344314744053997,-0.005348895992034164,-0.010519886245994698,-0.013674433105741075,-0.014367200498534101,-0.012870335320538802,-0.010198245605271453,-0.007216884868814567,-0.004656131652525813,-0.00282525468763122,-0.0020458953781752015,-0.002367536018898448,-0.0038025469926558394,-0.006078772243428324,-0.008540556290308688,-0.010458034331720297,-0.010940491476199325,-0.009406513622997046,-0.006561232441192026,-0.0041736706914409435,-0.003790176609800959,-0.00594269345209763,-0.01004979490444354,-0.01529500974549686,-0.021121653953722272,-0.026948290528736003,-0.0318966039681335,-0.03508827113629854,-0.036127410775670554,-0.03547176369129619,-0.03382644781247297,-0.03194609007948003,-0.030177062738896334,-0.028420416467663877,-0.026119453504466306,-0.023237053540884955,-0.01994642178323854,-0.01635889625714798,-0.012610546594089958,-0.009047760307066824,-0.005967434981128559,-0.0033571987067779474,-0.0013902429505526599,-4.71497608139677e-06,0.0007870154207749403,0.0008241280959819182,0.00055197051332053,0.0008364984788367985,0.0023086228911223363,0.004770409991287373,0.00771465805253728,0.010634163058113922,0.013417590799002205,0.01594122981344164,0.017759743265371872,0.018675179076195078,0.018811256340883434,0.0182422004098509,0.01702986319737187,0.01553299801937657,0.014481477310653324,0.013999020166174296,0.013504189585555715,0.012415556201625487,0.010683649169460454,0.008778544564188398,0.0071456013581835745,0.006267275169282671,0.006378612431582437,0.007195084416245433,0.008308453222637242,0.009656875333016311,0.011561972305076681,0.013726858003585899,0.015112392789171947,0.015062906677825415,0.013590780738897539,0.011042402485390677,0.007504353910792631,0.003483847428394388,-0.0003139847584006749,-0.003109782653147488,-0.004730356239618601,-0.005336525609179283,-0.005138592613610683,-0.004062334192462347,-0.0017984793245447424,0.0018880161342753735,0.005995117586621283,0.009100185204911645,0.009817691836772094,0.007504353910792631,0.0027416000308241794,-0.0035551317023465485,-0.010297210194752831,-0.01644549504370149,-0.0208742310302013,-0.023063863600989623,-0.02279170907161291,-0.020268070057173466,-0.016334157018080556,-0.012103342577331823,-0.008812718452897087,-0.007291109455907355,-0.007464300159123857,-0.008651894315929621,-0.010173506366204028,-0.011361096706403949,-0.01202912486012955,-0.012202314800024884,-0.01194252607357604,-0.011187906766508614,-0.009740527699859848,-0.007588008567599671,-0.005497345166219738,-0.004804580826711388,-0.006833390787174582,-0.011472434732024884,-0.01670527613693865,-0.019241288587517644,-0.016754762248285184,-0.010161132930064475,-0.0026149513092077383,0.003013757613485567,0.0054755447136506045,0.004918859165472948,0.0025436677985767467,4.476817586896509e-05,-0.0007222207507321729,0.0009602068873126123,0.004758038845111325,0.00937233973428836,0.013034098244004557,0.0143948861573115,0.013788717551071984,0.012427929637765041,0.012044437082767395,0.013714492200658028,0.017203053137267204,0.02142149414187639,0.0246255271129693,0.025244069155348364,0.022435902175392656,0.016522659180613738,0.00902595985449769,0.0018632738419232762,-0.003122153799323537,-0.005398379050096022,-0.005534457078105548,-0.004334491011802567,-0.0021819741695058956,0.0003045547650185383,0.0023828474782151233,0.00316220755099231,0.0028158246179169665,0.0017766788719756085,0.0008241280959819182,0.0007746450379200601,0.0015540043473760783,0.0025436677985767467,0.0031993194628781195,0.003706521952993918,0.0044858812624499365,0.005537398154567343,0.006094084466066169,0.005302353247112933,0.0032240609919090488,0.0004777457735635091,-0.0020953784362370597,-0.0036169851432632867,-0.0037406935517391004,-0.003072670741261679,-0.00234279372654635,-0.002132490348122869,-0.0026396928382386676,-0.0032953452658612092,-0.0034437944400467838,-0.00282525468763122,-0.0016129174751521901,-0.0008830412237580298,-0.0017242547374519551,-0.004235524895678851,-0.007909648445001749,-0.011534294279510969,-0.013810518003641118,-0.01392185602926205,-0.012103342577331823,-0.009369400947790069,-0.007167401810752708,-0.00643752479603738,-0.007427188247238049,-0.009468365537271449,-0.011670371544199325,-0.013513616601985296,-0.01498574254091317,-0.016321783581941002,-0.01778153608472932,-0.01882068335731302,-0.01878357068210604,-0.017014550974734026,-0.013055898696573693,-0.008181802974378464,-0.004136558016233966,-0.0017242547374519551,-0.0008954116066129102,-0.0010933446021815113,-0.0014644683009666156,-0.001452097154790567,-0.0009077827527889589,0.00039115026929102366,0.0031869490800232395,0.007986812581913996,0.01430828737075799,0.020456572219706648,0.024736865138590226,0.02632032910313904,0.02557808323221116,0.023957506592455376,0.022534866764874036,0.021730761346460077,0.02154519797042519,0.02164417019311825,0.02159468408177172,0.02100088891167176,0.01994936820294851,0.018947333605571794,0.01868754487912295,0.019405051510983398,0.020802952099497316,0.022485380653527506,0.023969872395383247,0.024811090489004182,0.02458841443776232,0.023487415250904222,0.02216374001280426,0.020332868391157843,0.01761129256454396,0.013900055576692915,0.00970635381115116,0.005908522616673616,0.0031374652586402124,0.0017024542848828213,0.0014055551731905042,0.0014921501431381715,0.0012571059990049297,0.0003416671348970487,-0.0011304565140673206,-0.0029613334789619144,-0.004680873181556742,-0.006289075621851806,-0.008478704376034287,-0.011682737347127195,-0.015468199685392196,-0.01831347934055488,-0.01911758475896884,-0.018028951375038613,-0.01591355178787593,-0.01393422183218992,-0.013130124046987646,-0.013835257242708541,-0.015604276950080553,-0.017299078940250297,-0.018028951375038613,-0.01778153608472932,-0.0174227827687991,-0.017744423409522345,-0.019030985972415333,-0.021443286961233838,-0.024622588326471007,-0.027752388313938274,-0.030139950063689358,-0.03162444943875679,-0.03246565989916604,-0.032873899326442794,-0.03300997659113115,-0.03296049047978462,-0.032849152454163685,-0.0323543218735451,-0.031574963327410256,-0.030733752867001002,-0.02979357018389869,-0.028271965766835962,-0.02568646720491044,-0.022024716328405927,-0.017843387999003726,-0.013575468516259697,-0.008886943803311042,-0.0032087495325923733,0.00365703889493206,0.01116610631393948,0.018823629777022993,0.025763646608246052,0.030909896859817994,0.03350776122467139,0.03396547913008299,0.03389125377966904,0.03432423244601322,0.03547471774421784,0.03688498413565964,0.0381468074594852,0.039210693971136315,0.04032406659413396,0.040942608636513035,0.039557081484138674,0.03510359099214807,0.02782956771727389,0.018934967802643924,0.010151705913634892,0.002729229647969299,-0.002219086081391705,-0.0038272885216867683,-0.002577839397321929,-0.00019027680791756216,0.002098319512698855,0.004621960053780631,0.008419791248258176,0.01342996423514176,0.01809374970902299,0.020209156929397357,0.018699918315262506,0.013937168251899895,0.0073559047366070565,0.0005395997488050655,-0.0050891095555488245,-0.008676641188208729,-0.010445660895580742,-0.011039456065680702,-0.011027090262752833,-0.010680702749750479,-0.009938456878822607,-0.007860162333655218,-0.003010816537023772,0.0054755447136506045,0.015978350121860305,0.02538014642003672,0.030909896859817994,0.031318128653883066,0.026753307769483214,0.01848961570016019,0.008617728060432617,-0.0010067488689126751,-0.009987942990169139,-0.01893202138293395,-0.028135888502147606,-0.0363871995021194,-0.04155818899275876,-0.04263444894054943,-0.04002421113955649,-0.035768657459740325,-0.03211928001937536,-0.030399738790138204,-0.030783238978347532,-0.03230484339541025,-0.03376459589819858,-0.034581067119540405,-0.034333651829231114,-0.03336872990706138,-0.03187186472906608,-0.030040985474207978,-0.027628684485389476,-0.024461764189503542,-0.020540224586550183,-0.01595066446308291,-0.010977604151406303,-0.005757131602705077,-0.00036346789279464986,0.004832264195525281,0.009162037119186048,0.01219288015038362,0.013999020166174296,0.01503816743875799,0.0160154551638556,0.017066975872578848,0.01779685594057885,0.017475215299855604,0.016213391976030042,0.01470415336189519,0.01383819602920683,0.013850569465346386,0.01430828737075799,0.014605188772413812,0.014778378712309146,0.014840230626583548,0.014617562208553366,0.013392851559934782,0.01090632522070232,0.00780125683909079,0.005525027771712463,0.004894117636442019,0.0062301624940756944,0.00901359405156982,0.011574345741216237,0.012291852373076685,0.01038674776780463,0.006712623455160563,0.0031993194628781195,0.0013065882937456192,0.0016406000806449144,0.0036694092777869404,0.006254904023106624,0.008308453222637242,0.00945893852084187,0.009755839922497692,0.01004036788801396,0.011277444339560416,0.013875308704413808,0.018069010469955564,0.02289362008080426,0.026728568530415792,0.02787904619540874,0.025701787060759967,0.020543171006260155,0.013862942901485938,0.007219825945276362,0.002345734803008146,0.00010662215111052146,0.000168476050019961,0.0015787458764070076,0.003013757613485567,0.003570443161663224,0.0024694424481627912,-0.00045006332073501846,-0.004816951209566268,-0.010012682229236562,-0.015220784395082907,-0.01990930910803156,-0.023645292968161716,-0.025847291341877906,-0.02635449535863604,-0.025352460761259327,-0.023484468831194247,-0.021566998422994324,-0.020082499047926895,-0.018833056793452572,-0.017336191615457273,-0.015492938924459621,-0.013810518003641118,-0.012734258055850446,-0.011992012184922572,-0.01082915345057839,-0.008565303162587795,-0.005336525609179283,-0.001786108941689862,0.0018261619300374667,0.005042566810627593,0.007182713270069385,0.00771465805253728,0.006700253072305683,0.004733297316080395,0.002345734803008146,0.0002921840005030737,-0.0008582996947271008,-0.0012417937763670858,-0.0014149852429047576,-0.002280940285629612,-0.00449531133216419,-0.007724085068966861,-0.011237392877855147,-0.014206376361566634,-0.0159259175908038,-0.01601251637735731,-0.014664101900189923,-0.012449730090334177,-0.00990134420361563,-0.006994210344215037,-0.0036293562894393356,0.0001437345209890319,0.0038549711271794926,0.006960039508791023,0.00945893852084187,0.011623824219351084,0.013714492200658028,0.016077314711341686,0.018947333605571794,0.022473007217387948,0.026641969743862286,0.03185007190970863,0.03844370886114101,0.045433204170498925,0.04992379970448482,0.048760948603352325,0.040707559149131614,0.02687701159803202,0.010535198468632542,-0.0042478952785337315,-0.014305348584259699,-0.018140289400659548,-0.015690875736634063,-0.007847796530727348,0.0035951846906941533,0.015087645916892838,0.022732795943836797,0.02408121042100418,0.018996819716918325,0.009867177948118627,0.0001437345209890319,-0.006870502699060392,-0.00995083031496216,-0.010359062109027232,-0.010346696306099364,-0.011274505553062125,-0.013216715200329472,-0.015443460446324773,-0.01747226888014563,-0.019266035459796754,-0.020416513124789697,-0.020911343705408276,-0.021468033833512944,-0.022779335635473352,-0.024721552915952384,-0.026119453504466306,-0.02600811547884537,-0.02427620081346865,-0.0216041110982013,-0.018993873297208353,-0.016965064863387495,-0.015418713574045664,-0.013822883806568988,-0.011781701936608576,-0.009542590887685406,-0.007414817101062,-0.00570764854464322,-0.004507682478340239,-0.0038272885216867683,-0.003171636857385395,-0.002268569139453563,-0.0015386928880594028,-0.0016005470922973097,-0.00282525468763122,-0.005113851084579754,-0.008231289085724996,-0.011126054852234212,-0.012387870542848092,-0.011064202937959813,-0.007513783217185716,-0.0027757716295693617,0.002197285628822571,0.006935297979760094,0.011611458416423213,0.016299983129371868,0.020753473621362466,0.024427597934006538,0.026790420444690193,0.027322363700515752,0.02571416049689952,0.0223616768249787,0.018551467614434592,0.015607223369790528,0.014196949345137055,0.014246435456483587,0.014902090174069633,0.015161871267306795,0.014530963421999856,0.013256774295246425,0.012155767475176642,0.012551633466313846,0.014617562208553366,0.017871073657781122,0.021273043441048474,0.02363586595173213,0.02429152066931818,0.02338845066142284,0.02142149414187639,0.01912053117867881,0.01693089860789049,0.014827864823655678,0.012205253586523175,0.008221862069295415,0.0027787127060311567,-0.0032087495325923733,-0.007996247231555259,-0.010470400134648167,-0.010482773570787722,-0.009319922469655222,-0.009183837571755182,-0.011967265312643464,-0.017311444743178167,-0.023175201626610555,-0.02756683257111507,-0.02975645750869171,-0.030201809611175443,-0.029942020884726597,-0.030078098149414957,-0.030968794721170742,-0.0321687661307219,-0.03297286391592417,-0.032898638565510216,-0.03169867478917074,-0.029496668782242864,-0.026676135999359286,-0.023744257557643093,-0.02130720969654548,-0.020008273697512936,-0.020478372672275782,-0.022865934422026862,-0.026676135999359286,-0.030399738790138204,-0.0319584558824079,-0.029471929543175443,-0.022556659584231486,-0.012895074559606225,-0.0032087495325923733,0.004374544000150172,0.008444530487325599,0.00902595985449769,0.007454870852730773,0.005933264145704545,0.006304387844489649,0.008642467299500042,0.011970211732353438,0.015149505464378925,0.017326764599027693,0.018353538435471835,0.01886074245222997,0.019961741639088065,0.022027662748115902,0.024551309395767024,0.026481145606894817,0.026852272358964598,0.025392519856176278,0.022485380653527506,0.018662805640055527,0.01435777348210452,0.010027994451874406,0.006118825995097098,0.003026128759661616,0.001318959439921668,0.0015045212893142204,0.003558072015487175,0.0070590063882359074,0.011314557014767392,0.015273209292927727,0.01839065111067881,0.020741100185222915,0.02233692995269959,0.023264739199662356,0.02363586595173213,0.023759577413492623,0.02460078787390187,0.026456406367827395,0.028002757657169225,0.027408954853857578,0.024130696532350716,0.019677213673571798,0.016423694591132357,0.015100019353032392,0.014196949345137055,0.011908359818079037,0.007393017411814034,0.0013065882937456192,-0.004520052861195119,-0.009134359093620334,-0.012053864099196974,-0.013179602525122494,-0.013229088636469027,-0.013266201311676004,-0.013624954627606227,-0.014243489036773613,-0.01529500974549686,-0.01707640288900843,-0.019810344518550183,-0.022989638250575664,-0.02556276337636164,-0.026750361349773242,-0.025933890128431416,-0.022841187549747753,-0.018165028639726973,-0.013884743354055071,-0.011992012184922572,-0.013080637935641114,-0.016086741727771265,-0.019463964638759507,-0.02213605435402686,-0.02350920807026167,-0.023459729592126825,-0.021999977089338502,-0.01941447852741298,-0.01660631154745727,-0.015171298283736374,-0.0159259175908038,-0.01859800730607115,-0.021925751738924547,-0.024634954129398878,-0.025760692555324396,-0.025179270821363987,-0.023521581506401226,-0.021480399636440814,-0.01893202138293395,-0.01566613649756664,-0.011088942177027234,-0.004866435030949295,0.0027787127060311567,0.010844465673216234,0.01827931308505788,0.024489449848280942,0.029821263475887767,0.03543760506901087,0.04248895229264318,0.05067842664476393,0.05810090062046602,0.06271520761621241,0.06380384100014264,0.0609461879088404,0.054340185154480136,0.04456724683781057,0.03345827511332486,0.023648239387871688,0.01761129256454396,0.016361842676857953,0.01891022093036482,0.02338845066142284,0.027631630905099448,0.029685178577987727,0.028250172947478513,0.024242034557971647,0.019392685708055527,0.015025794002618437,0.011636197655490638,0.008840396478462801,0.005920892999528496,0.002531296652400698,-0.00045006332073501846,-0.0018727039116375297,-0.0011799395721291787,0.001331330586097717,0.004028162593717165,0.004819893049349232,0.0025684093276076756,-0.001971670791082414,-0.007155030664576661,-0.011596146193785371,-0.015072333694254994,-0.017967099460764212,-0.021121653953722272,-0.024585468018052344,-0.02781424786142436,-0.030065724713275403,-0.030746118669928872,-0.03018943617503589,-0.029521415654521974,-0.029830682859105666,-0.031327548037100965,-0.033071828505405555,-0.03344295525747533,-0.03184712548999865,-0.029038958510042942,-0.026663762563219735,-0.025958629367498837,-0.026639023324152307,-0.027418381870287157,-0.027356522322801072,-0.026218418093947683,-0.024140123548780295,-0.02178967447423619,-0.019637154578654847,-0.018226888187213058,-0.01790524754648981,-0.018511416152729325,-0.019600041903447867,-0.020465999236136227,-0.02092371714154783,-0.021245357782271077,-0.021183505867996676,-0.02029280929624089,-0.018066064050245592,-0.014874404515292235,-0.011163167527441191,-0.007649859718552905,-0.004915918089011153,-0.0026396928382386676,-0.0006974791453691271,0.0009354653582816833,0.0023952178610700038,0.004102387180809952,0.006452837018675224,0.009347600495220935,0.012588746141520824,0.01591649057437422,0.01853910181150672,0.020122558142843847,0.02066687483480896,0.020518424133981052,0.02008545310084855,0.01964010099836482,0.01925660844336717,0.018638066400988102,0.017697883717885787,0.016671109881441645,0.015743300634478884,0.015124758592099817,0.015310321968134704,0.01626287045416489,0.017475215299855604,0.018638066400988102,0.019454537622329928,0.019813290938260154,0.019763804826913624,0.01936793883577642,0.017970045880474184,0.015161871267306795,0.011500120390802282,0.008320826658776795,0.006836331863636378,0.007318792824721247,0.009186783991465155,0.011116627835804633,0.012044437082767395,0.01168568376683717,0.010448599682079032,0.008667206538567465,0.006390983577758486,0.0035085889574253174,2.0026601038765915e-05,-0.0037283224055630524,-0.007204513722638518,-0.010012682229236562,-0.011769336133680705,-0.012375504739920221,-0.012227054039092309,-0.012053864099196974,-0.012090976774403952,-0.012115716013471377,-0.011831188047955108,-0.01101471682661328,-0.010346696306099364,-0.010321949433820254,-0.010952864912338878,-0.011657998108059772,-0.011422956253890035,-0.009827118853201674,-0.0073653348063213095,-0.0046437605063497644,-0.002144861494298918,0.0003292962940494673,0.003360139783239743,0.007417758940844963,0.011772274920178996,0.015260835856788176,0.017153574659132358,0.017252539248613738,0.015928864010513775,0.013937168251899895,0.011524859629869705,0.008370312770123328,0.003991049918510187,-0.0012294233935122053,-0.006227221417613899,-0.009864231528408651,-0.011670371544199325,-0.011831188047955108,-0.0109157522371319,-0.009691041588513315,-0.009084872982273801,-0.00927043635830869,-0.010074534143510965,-0.010717815424957458,-0.010111646818717943,-0.007192143339783638,-0.0020087827029682238,0.004819893049349232,0.012477415749111574,0.019553502211811312,0.024279147233178623,0.02497191462597165,0.02144623338094381,0.014877343301790526,0.007615691173092395,0.001949869575192112,-0.0009077827527889589,-0.0007593331206106835,0.001380813644159575,0.004052904122748093,0.006032229498507093,0.006489949693882202,0.00535183706849596,0.003558072015487175,0.002358105949184194,0.002061206837491877,0.0017024542848828213,0.0006880492283191073,-0.0009325242818198881,-0.0026149513092077383,-0.003431423293870735,-0.0029242215670761047,-0.0011180861312124403,0.001430296702221433,0.003953938006624377,0.006007487969476164,0.007949699906707018,0.009780579161565117,0.01090632522070232,0.010968177134976722,0.010114593238427916,0.008790918000327953,0.007368275882783105,0.005958005674735475,0.004819893049349232,0.0039044541852413512,0.002791083088886037,0.0007499031272285467,-0.0027386597176835524,-0.007439558630092929,-0.011967265312643464,-0.015282636309357306,-0.01776917028180145,-0.020379400449582717,-0.02391744749753843,-0.0281111416298685,-0.0318966039681335,-0.0338511870515404,-0.03304708926633813,-0.029447190304108015,-0.02409063743743376,-0.019018612536275774,-0.016049629052564286,-0.015715614975701488,-0.017150628239422382,-0.018734084570759507,-0.018969134058140928,-0.01708877632514798,-0.013711545780948053,-0.010037421468303987,-0.00734059327729038,-0.006029289185366465,-0.005014884205134869,-0.002763400483393313,0.0015663754935521272,0.007541466585999609,0.013751604875865006,0.018403024546818365,0.01968957947649967,0.016831934018409114,0.011376408929041794,0.006539431988622892,0.005240499806196195,0.008506390034811684,0.01553299801937657,0.02497191462597165,0.03472009843715042,0.04117765049068277,0.04149929113140602,0.03541286582994344,0.025120357693587878,0.013627893414104518,0.0036941508068178692,-0.0030974122702926076,-0.0066230874087511,-0.007625121242806649,-0.007241625634524328,-0.0065364909121610965,-0.006227221417613899,-0.0063633009722657615,-0.006338559443234832,-0.005893210394035771,-0.0052994129339723065,-0.004680873181556742,-0.003480906351932593,-0.0012912768344289437,0.0018137907838614179,0.0054631743307957245,0.008815657239395376,0.011326930450906944,0.013269140098174296,0.01488971673793008,0.016114427386548662,0.01712882778685325,0.018514354939227613,0.02119881809063452,0.025293547633483213,0.029870749587234298,0.032753141917603965,0.0317387338840877,0.026023427701483214,0.01659688453102769,0.005450803184619675,-0.005064367263196727,-0.012981673346159735,-0.01694032562432007,-0.017484642316285184,-0.016321783581941002,-0.01489914375435966,-0.013884743354055071,-0.013439391251571339,-0.013736292653227162,-0.015109446369461972,-0.017880508307422386,-0.021443286961233838,-0.02503082012053608,-0.027888473211838318,-0.02937296495369406,-0.029447190304108015,-0.028816274825589395,-0.0280492897155941,-0.027554459134975517,-0.02717096657997787,-0.026416347272910444,-0.025216383496570967,-0.023645292968161716,-0.02140617428602686,-0.018239253990140928,-0.014082672533017832,-0.009616816238099362,-0.0057818731317360065,-0.0035922436142323583,-0.003245861444478182,-0.0038272885216867683,-0.004408715598895354,-0.0046313901234948844,-0.004309749482771638,-0.0039015131087795554,-0.004210783366647921,-0.005571569753312526,-0.007278739073052474,-0.008453965136966862,-0.008392113222692461,-0.006845761170029462,-0.003703580876532123,0.0009107230659295858,0.006292016698313601,0.011141367074872057,0.014506224182932431,0.016374208479785823,0.017388616513302094,0.01809374970902299,0.018650439837127657,0.018972080477850903,0.01917000965681366,0.019652474434504377,0.021124592740220563,0.023363711422355417,0.02555333635993206,0.02667908241906926,0.02612239229096459,0.024031731942869335,0.02109985350115314,0.01819271429850437,0.016460807266339333,0.0163494692407184,0.01749995453892303,0.01910815774253926,0.019937002400020644,0.019033932392125304,0.016398955352064933,0.012947499457451049,0.009471311956981424,0.006329129373520578,0.003471477045539508,0.0008241280959819182,-0.001637659004183119,-0.003715952022708172,-0.005126221467434634,-0.005893210394035771,-0.006487007854099238,-0.007352963660145261,-0.008429218264687755,-0.009542590887685406,-0.010717815424957458,-0.011992012184922572,-0.01393422183218992,-0.01674238881214563,-0.020564963825617604,-0.024597841454191898,-0.027975064365180144,-0.029966760123794022,-0.030399738790138204,-0.02950904221838242,-0.02785136053663134,-0.025760692555324396,-0.023076237037129178,-0.018672232656485106,-0.010977604151406303,-1.7085768839744538e-05,0.011747535681111572,0.020703987510015936,0.0239203939172484,0.021112226937292693,0.014679414122827765,0.007838361881086085,0.0030879822005783547,0.001430296702221433,0.0031869490800232395,0.008011559454193103,0.014246435456483587,0.019479276861397356,0.021829733569153142,0.020765839424290337,0.017116454350713694,0.0125640069024534,0.008209488633155862,0.004300319413057384,0.0004901165380789736,-0.0034437944400467838,-0.007229255251669447,-0.009975569554029584,-0.010804414211510965,-0.010408548220373764,-0.010346696306099364,-0.011150794091301637,-0.012103342577331823,-0.012598180791162088,-0.012103342577331823,-0.010495147006927273,-0.007983873795415704,-0.005064367263196727,-0.002268569139453563,-4.71497608139677e-06,0.0011457687367051645,0.0009354653582816833,0.00011899291562598599,-0.0003016139175530935,0.0007251615981976177,0.004127128709840881,0.009916656426253473,0.01735150383809512,0.02536777298389717,0.032740768481464406,0.038258145485106136,0.041190023926822326,0.04183330520826882,0.04085601748317121,0.03864163804010378,0.03537574552152478,0.031008861449299374,0.025738899735966946,0.01987514285253456,0.013763970678792876,0.008011559454193103,0.0032859151961469554,0.0002179592607460528,-0.0011675691892742985,-0.0016129174751521901,-0.0018850750578135783,-0.003233491061623302,-0.006326188297058783,-0.010891005364852793,-0.015975403702150334,-0.02063918917603156,-0.024288574249608202,-0.026651389127080177,-0.028036916279454545,-0.028766796347454545,-0.0287791697835941,-0.02801217704038712,-0.026725614477494136,-0.025550389940222084,-0.025117411273877902,-0.025946255931359286,-0.028135888502147606,-0.031290435361893985,-0.034383130307365964,-0.03675832625418918,-0.03825519143218447,-0.038898465080419276,-0.0387623954489426,-0.03748819868897749,-0.034420242982572936,-0.029645119483070775,-0.023818482908057048,-0.018449564238454924,-0.014676467703117793,-0.012672398508364359,-0.011534294279510969,-0.010445660895580742,-0.00927043635830869,-0.007909648445001749,-0.005373637521065093,-0.0007840743443131451,0.0060693429370352395,0.014728892600962613,0.024749238574729784,0.03517781634256203,0.04466621906050363,0.05123510913965692,0.05302887571930803,0.04940422988479882,0.04206834706243855,0.03386651454060161,0.027693490452585533,0.024427597934006538,0.02331422531100889,0.02260909211528799,0.020753473621362466,0.01693089860789049,0.011821761031525529,0.00631675822734453,0.0012818467647146903,-0.002404647930784257,-0.004458198656957213,-0.005014884205134869,-0.0043839740698644256,-0.0031592657112093467,-0.0017118835912759063,-0.0003016139175530935,0.001331330586097717,0.003842600744324612,0.006935297979760094,0.009409452409495337,0.010696014972388325,0.010720761844667432,0.009830065272911649,0.008716692649913997,0.007974446778986125,0.00726930900333822,0.005945634528559425,0.0034096228413016006,-0.0008459285485510519,-0.006771535819615507,-0.013303313986882982,-0.01912995056189671,-0.022841187549747753,-0.02333601813036634,-0.020367034646654847,-0.014292975148120144,-0.005720019690819269,0.00392919571427228,0.012291852373076685,0.01696801128309747,0.016856673257476536,0.012786682953695266,0.007219825945276362,0.001974611104223041,-0.0021572326404749663,-0.005435490961981832,-0.00815706373531104,-0.010507512809855143,-0.01212808944961093,-0.012969299910020183,-0.013897109156982942,-0.01596303026601078,-0.019241288587517644,-0.02311334971233615,-0.0265524245375988,-0.02897709896255686,-0.030696640191794026,-0.03232958263447768,-0.034148088453196224,-0.03549650293036361,-0.03492744699933107,-0.03172341402823817,-0.026626649888012756,-0.020503111911343203,-0.014268235909052721,-0.008899309606238913,-0.005027255351310918,-0.00282525468763122,-0.001452097154790567,0.0006385660939251322,0.004609589670925751,0.01057231114383952,0.01712882778685325,0.022002923509048478,0.02372245710507396,0.022658570593422838,0.020901916688978697,0.021186452287706648,0.024402858694939113,0.02899241881840639,0.03206037452481094,0.030390319406920305,0.02314103537111355,0.012489781552039444,0.002061206837491877,-0.005064367263196727,-0.007674606590832012,-0.00620247988858297,-0.002219086081391705,0.0022220271578535004,0.005376578597526889,0.006712623455160563,0.006626027721891727,0.006527061605768012,0.007838361881086085,0.011475381151734857,0.017066975872578848,0.02383379513069489,0.030662473936297018,0.036167477503799186,0.03966841187654792,0.04133847462765024,0.04188278368640366,0.04195700903681762,0.041128172012547926,0.03815918089562475,0.032802620395738814,0.026085279615757618,0.019454537622329928,0.01435777348210452,0.01145063427945575,0.010411487006872056,0.010201184391769742,0.00955790311032325,0.00726930900333822,0.0031498364048162613,-0.0020335242319991526,-0.00734059327729038,-0.0121404552525388,-0.01596303026601078,-0.01841244393003626,-0.019600041903447867,-0.020082499047926895,-0.020243323184894357,-0.020082499047926895,-0.019674267253861826,-0.019303140501792045,-0.019785605279482754,-0.021950490977991968,-0.02514215814615701,-0.028420416467663877,-0.031364660712307944,-0.0336656313087172,-0.03484085584598925,-0.034531581008193875,-0.03261411059999395,-0.028890507809215035,-0.023744257557643093,-0.01778153608472932,-0.012078603338264398,-0.008243662521864549,-0.0073653348063213095,-0.00928280216123656,-0.012585807355022533,-0.015183671719875929,-0.015703249172773617,-0.014206376361566634,-0.012016751423989997,-0.010458034331720297,-0.009839492289341228,-0.00928280216123656,-0.007971500359276152,-0.005175704525496492,-0.0010562319269745333,0.0031498364048162613,0.005698218474928966,0.005772443825342922,0.0036075550735490338,0.0004406334036849987,-0.0020087827029682238,-0.0027386597176835524,-0.0020087827029682238,-0.0006108835647645248,0.0009602068873126123,0.0027044881189383697,0.004560105849542724,0.006279645552137553,0.007393017411814034,0.008036298693260528,0.008803283803255823,0.010176445152702317,0.01203206364662784,0.014530963421999856,0.01741335575236952,0.020258643040743887,0.02274516937997635,0.025046132343173922,0.02708731421313433,0.028646038938615715,0.02930168602299008,0.028732630091957544,0.02669144822199713,0.02311628849883444,0.018514354939227613,0.013330999645660379,0.007838361881086085,0.0024323305362769815,-0.001946928498730317,-0.0046313901234948844,-0.005398379050096022,-0.004532424007371168,-0.0028499962166621488,-0.0016005470922973097,-0.0016005470922973097,-0.002874737745693078,-0.004854063884773246,-0.006573603587368074,-0.00714266028172178,-0.0061653679766971595,-0.003889142725924675,-0.0008582996947271008,0.0017395661967686306,0.0025436677985767467,0.0011705102657360935,-0.0020458953781752015,-0.0058437273359739144,-0.009010647631859846,-0.011385835945471373,-0.013476503926778316,-0.01596303026601078,-0.019092845519901418,-0.022235018943508243,-0.024214348899194247,-0.024832883308361635,-0.024350426163882607,-0.02315046238754313,-0.021195871670924547,-0.018622754178350256,-0.0159259175908038,-0.013624954627606227,-0.012202314800024884,-0.01179407537274813,-0.012189941363885333,-0.01300641258522716,-0.014045559857810854,-0.01461461578884339,-0.0144290524128085,-0.01387236991791552,-0.013204349397401602,-0.011831188047955108,-0.009233323683101712,-0.005559198607136477,-0.001699513208421026,0.0015911170225830563,0.004015791447541116,0.005450803184619675,0.0060693429370352395,0.006131197141273146,0.006390983577758486,0.0077888834029512365,0.010770240322802278,0.01505053324168586,0.019751439023985753,0.02372245710507396,0.025924463112001837,0.02655537859052046,0.026246103752725083,0.025244069155348364,0.023549267165178623,0.021557571406564745,0.020073079664709,0.019417424947122952,0.019244235007227616,0.018662805640055527,0.01741335575236952,0.015829899421032394,0.014444364635446346,0.013479442713276607,0.01324440085910687,0.01342996423514176,0.013689752961590603,0.013590780738897539,0.012885647543176646,0.01169804956976504,0.01038674776780463,0.00892699526501631,0.00726930900333822,0.0058095565005499,0.004671443111842489,0.004164241385047858,0.004250836354995526,0.0044735108795950565,0.004535364320511795,0.004461139733419007,0.004164241385047858,0.003496218574570437,0.0022096560116774515,0.00023033002526151732,-0.0018603335287826492,-0.0036169851432632867,-0.00521281720070347,-0.007724085068966861,-0.011744596894613282,-0.016853726837766564,-0.022457694994750105,-0.027777135186217383,-0.03236669530968466,-0.03647379828867291,-0.040382964455486704,-0.043871525392095885,-0.045937446501123726,-0.045603432424260924,-0.04192930811161685,-0.03388829972674738,-0.02188863906371757,-0.009010647631859846,0.0007746450379200601,0.005067309102979691,0.0036446677487560115,-0.001588175946121261,-0.008020986470622682,-0.012895074559606225,-0.014701214575396901,-0.01282084920919227,-0.0078106838555203695,-0.001637659004183119,0.003323027108032765,0.0054755447136506045,0.004659072728987608,0.0024075890072460526,0.0011457687367051645,0.0024075890072460526,0.006131197141273146,0.011326930450906944,0.016646370642374224,0.02087717744991127,0.02372245710507396,0.026258469555652954,0.02963570009985288,0.0336933169674946,0.0370458082726271,0.03810969478427822,0.03543760506901087,0.029190355630580832,0.021520458731357765,0.015223723181581196,0.011994950971420863,0.011970211732353438,0.014036132841381275,0.01626287045416489,0.017153574659132358,0.01616390586468351,0.013009359004937132,0.008011559454193103,0.0024941839771937197,-0.002021153849144272,-0.00475509776864953,-0.00593032306924275,-0.006239591800468779,-0.006264334092820877,-0.005893210394035771,-0.005126221467434634,-0.005064367263196727,-0.007204513722638518,-0.012115716013471377,-0.018536155391796746,-0.024152489351708165,-0.027393642631219736,-0.02791321245090574,-0.026762727152701112,-0.0249937074453291,-0.022692736848919846,-0.019550555792101337,-0.015270270506429439,-0.010470400134648167,-0.005287041787796257,0.0003416671348970487,0.006155938670304075,0.01193309905714646,0.01749995453892303,0.022819394730390304,0.027421328289997136,0.030959375337952844,0.03350776122467139,0.03485617570183878,0.03374280307884113,0.02842336288737385,0.018613327161920677,0.006019859115652212,-0.006870502699060392,-0.017954726024624657,-0.025748326752396525,-0.030177062738896334,-0.03231720919833812,-0.03300997659113115,-0.033034715830198576,-0.03326976531758,-0.03373984902591947,-0.03386356048767995,-0.032725448625614884,-0.029706979030556864,-0.0249937074453291,-0.019810344518550183,-0.015690875736634063,-0.013501243165845741,-0.012944560670952758,-0.013389905140224806,-0.014280601711980591,-0.01524552363415033,-0.01572798841184104,-0.015443460446324773,-0.014218749797706189,-0.01188067415930164,-0.008528190487380818,-0.004606648594463955,-0.0006108835647645248,0.003013757613485567,0.006489949693882202,0.010176445152702317,0.014184583542209184,0.01836591187161139,0.02255960600394146,0.026369807581273885,0.029215094869648253,0.030872776551399334,0.031342867892950495,0.030724325850571423,0.029499622835164524,0.028002757657169225,0.026481145606894817,0.025095618454520453,0.02388328124204142,0.022633831354355417,0.020778212860429895,0.017586545692264855,0.012712457603281312,0.006638398868067777,0.0006261952530775508,-0.0037283224055630524,-0.005559198607136477,-0.004656131652525813,-0.0015139513590284738,0.002531296652400698,0.005722960003959895,0.006960039508791023,0.006131197141273146,0.004263207501171575,0.002556038181431627,0.0012818467647146903,4.476817586896509e-05,-0.001043861544119653,-0.0021696030233298467,-0.0031963783864163244,-0.003950996930162582,-0.004470569803133261,-0.004878805413804175,-0.005324153699682067,-0.00570764854464322,-0.005794243514590887,-0.0056952781617883395,-0.0059798061273046085,-0.007253996780700376,-0.009752893502787718,-0.013093011371780669,-0.01697743829952705,-0.02082475255206645,-0.023731884121503538,-0.0246596933684663,-0.0234968422673338,-0.02107216784237574,-0.01849904271658977,-0.015752727650908464,-0.012647659269296936,-0.009554964323824959,-0.007390076335352239,-0.006845761170029462,-0.008206549846657573,-0.011187906766508614,-0.015406347771117795,-0.019797978715622312,-0.02279170907161291,-0.022111315114959437,-0.015987777138289888,-0.005188075671672542,0.006564174280974989,0.015483511908030042,0.020159670818050826,0.021458606817083364,0.020889550886050826,0.01970195291263922,0.018477242264020637,0.017302017726748584,0.015644336044997507,0.013281513534313847,0.010460973118218586,0.008382678573051198,0.008370312770123328,0.011314557014767392,0.017252539248613738,0.024736865138590226,0.03133049445681094,0.034608760411529486,0.03333456365156437,0.028101722246650605,0.020901916688978697,0.014221696217416162,0.00954553730739538,0.006873443775522186,0.00532709553946503,0.004275578647347624,0.003335398254208814,0.0025189262695458174,0.0022715102159153585,0.0026921169727623213,0.0035457016326322947,0.0044116566753571495,0.004918859165472948,0.005191016748134336,0.005166275219103407,0.004770409991287373,0.0038549711271794926,0.002358105949184194,0.0006385660939251322,-0.000982007339881746,-0.0025407267221149513,-0.004260266424709779,-0.006251962946644828,-0.008392113222692461,-0.010519886245994698,-0.012239427475231863,-0.012981673346159735,-0.012066229902124845,-0.00970341502465287,-0.006845761170029462,-0.004903546942835103,-0.004866435030949295,-0.006709682378698768,-0.00970341502465287,-0.012697145380643468,-0.014379573934673654,-0.01411978520822481,-0.012622920030229511,-0.010816780014438835,-0.00928280216123656,-0.008268401760931974,-0.007996247231555259,-0.008763232341550554,-0.010470400134648167,-0.012734258055850446,-0.015134185608529397,-0.017200114350768916,-0.01843719080231537,-0.018610380742210705,-0.017880508307422386,-0.016853726837766564,-0.01627229747059447,-0.016532086197043317,-0.01747226888014563,-0.01868460609262466,-0.01952581655303391,-0.019612415339587422,-0.018523781955657195,-0.015987777138289888,-0.011682737347127195,-0.005287041787796257,0.002679746589907441,0.011141367074872057,0.018737030990469482,0.02441522449786698,0.02750791944333896,0.027755342366859934,0.02536777298389717,0.021050375023018292,0.01585463866009982,0.010893951784562766,0.007219825945276362,0.005958005674735475,0.007182713270069385,0.010621797255186052,0.01591649057437422,0.022089522295601988,0.02707494841020646,0.029066644168820342,0.027668743580306424,0.023796682455487914,0.018823629777022993,0.013875308704413808,0.009718727247290714,0.006774477659398471,0.005141533690072478,0.004250836354995526,0.0031498364048162613,0.0010096899453744704,-0.0019964123201133433,-0.004767468151504409,-0.006066401097252276,-0.005188075671672542,-0.0023799064017533283,0.0012818467647146903,0.004312690559233433,0.006044600644683142,0.006564174280974989,0.006094084466066169,0.005265241335227123,0.004745668462256444,0.004943600694503877,0.005302353247112933,0.0050920498686894515,0.0038054880691176345,0.0015787458764070076,-0.0009077827527889589,-0.0031592657112093467,-0.004482940185988141,-0.004829322355742317,-0.0043839740698644256,-0.0039015131087795554,-0.004111816487203037,-0.005287041787796257,-0.007253996780700376,-0.009666302349445892,-0.012066229902124845,-0.013798144567501563,-0.014268235909052721,-0.013389905140224806,-0.01175696269754115,-0.01014875949392492,-0.009183837571755182,-0.00893642228144589,-0.009814753050273803,-0.012239427475231863,-0.016284670906734022,-0.021208245107064098,-0.025550389940222084,-0.027987437801319695,-0.028321451878182496,-0.027158593143838314,-0.02567410140198257,-0.0243256792916035,-0.022865934422026862,-0.020515477714271074,-0.017224853589836338,-0.013513616601985296,-0.009530225084757536,-0.005596312045664624,-0.00281288430477634,-0.001588175946121261,-0.0011180861312124403,8.188054574747554e-05,0.0034467347531874104,0.009607389221669782,0.01726490505154161,0.0239203939172484,0.026740934333343663,0.024242034557971647,0.016658736445302094,0.005698218474928966,-0.0058560977188287944,-0.01539397433497824,-0.021220618543203652,-0.022964899011508243,-0.02092371714154783,-0.015975403702150334,-0.009678668152373763,-0.0033077156487160897,0.002791083088886037,0.009137297880118623,0.01615154006175564,0.023165774610180975,0.02905427073268079,0.03343353587425744,0.036204590179006166,0.037565378092313105,0.037899392169175906,0.038035469433864266,0.03856741268968982,0.039297292757689825,0.039557081484138674,0.03818392013469218,0.03463349965059691,0.029116130280166876,0.022584345243008883,0.016299983129371868,0.011141367074872057,0.007256937857162171,0.00463433119995668,0.0028158246179169665,0.0012447348528288808,-0.0002521307831591185,-0.0015758047999452122,-0.002243827610422634,-0.0025407267221149513,-0.003394311381984925,-0.0053117833168271865,-0.007835423094587794,-0.010321949433820254,-0.012288905953366711,-0.013451764687710893,-0.014082672533017832,-0.014639355027910816,-0.015517685796738729,-0.016334157018080556,-0.01627229747059447,-0.014750693053531747,-0.012227054039092309,-0.009740527699859848,-0.008552929726448243,-0.009691041588513315,-0.013229088636469027,-0.01858564150314328,-0.024597841454191898,-0.030078098149414957,-0.034073863102782265,-0.03621400956222406,-0.03617689688701708,-0.03364088443643809,-0.027962698562252274,-0.018449564238454924,-0.005769501985559958,0.0067992191884294,0.014518589985860302,0.01429592156783012,0.006452837018675224,-0.00570764854464322,-0.018127915964519993,-0.027789508622356938,-0.03286152589030324,-0.03241617378781951,-0.026836952503115068,-0.017546494230559585,-0.007080806077483873,0.001949869575192112,0.0077888834029512365,0.01048571235728601,0.011017655613111568,0.010856839109355788,0.011895986381939483,0.015582484130723103,0.02168128286832523,0.028015123460097095,0.032765507720531835,0.03641489279410848,0.040262207046647874,0.04500022550415475,0.04951556791041975,0.05103717232748248,0.04773417476690819,0.039594186526133966,0.02823779951133896,0.01585463866009982,0.0044735108795950565,-0.004124187633379086,-0.009072499546134247,-0.010965230715266748,-0.010952864912338878,-0.01004979490444354,-0.009183837571755182,-0.0090230210679994,-0.01004979490444354,-0.012103342577331823,-0.013946595268329474,-0.014367200498534101,-0.012338392064713244,-0.007625121242806649,-0.001625288621328239,0.003335398254208814,0.005141533690072478,0.0038302295981485633,0.0009973187991984217,-0.0014892098299975449,-0.002627322455383787,-0.002144861494298918,-0.0003758386573101144,0.00271685850179325,0.007442500469875892,0.013937168251899895,0.02211426153466941,0.030625361261090046,0.03658808273400381,0.037181885537315454,0.03141709324336445,0.020926663561257806,0.008753805325120975,-0.002083007290061011,-0.00990134420361563,-0.01411978520822481,-0.015703249172773617,-0.01607436829163171,-0.016284670906734022,-0.016779501487352605,-0.018239253990140928,-0.02052785115041063,-0.022977264814436113,-0.024535989539917494,-0.02392982093367798,-0.020589710697896713,-0.015554798471945706,-0.011113681416094659,-0.009394140186857493,-0.010717815424957458,-0.013897109156982942,-0.01689083951297354,-0.017954726024624657,-0.016544459633182868,-0.013736292653227162,-0.011422956253890035,-0.010507512809855143,-0.011051829501820258,-0.012857961884399248,-0.015035221019048016,-0.016519720394115447,-0.0162599316676666,-0.014255862472913166,-0.01121264600557604,-0.007588008567599671,-0.003666468201325145,-6.656892613335458e-05,0.002803454235062086,0.004955971840679926,0.006836331863636378,0.009199149794393024,0.012328965048283663,0.016126793189476532,0.019330826160569442,0.02060502292053456,0.019578249084090418,0.017252539248613738,0.01495156865220448,0.01352892882462314,0.012922760218383624,0.012749570278488288,0.01266297149193478,0.012168140911316197,0.011030029049251122,0.009100185204911645,0.0069724098916459035,0.005450803184619675,0.005017825281596664,0.00535183706849596,0.005698218474928966,0.005401320126557817,0.004720926169904348,0.004052904122748093,0.0035951846906941533,0.003335398254208814,0.00316220755099231,0.002840566910269064,0.0021601729536155933,0.0012694763818598101,0.0007622739680761281,0.0007127907573500363,0.001096284915322138,0.0017271958139137506,0.0024941839771937197,0.00293953302639278,0.0026178923856695338,0.002036465308460948,0.0018880161342753735,0.002457072065307911,0.0024941839771937197,0.0007870154207749403,-0.0028623673628381976,-0.00737770518917619,-0.01179407537274813,-0.015542425035806154,-0.01841244393003626,-0.020354661210515292,-0.0215422591839269,-0.02254428614809193,-0.023991672847952384,-0.025909143256152307,-0.027715283271942982,-0.02854412029621268,-0.028185366980282456,-0.026787466391768534,-0.024474129992431412,-0.02129484389361761,-0.01747226888014563,-0.013612581191466673,-0.009876604964548206,-0.0063633009722657615,-0.0035427605561704997,-0.0014149852429047576,-6.656892613335458e-05,0.00031692552953400277,-0.0001531644380390517,-0.0006108835647645248,-0.00033872628743160393,0.001158139119560045,0.0039044541852413512,0.007442500469875892,0.011042402485390677,0.01402375940524172,0.015359808079481237,0.014543336858139409,0.011289817775699967,0.0060693429370352395,0.00027981315965549234,-0.004408715598895354,-0.006462266325068309,-0.00521281720070347,-0.0012541649225431342,0.004498252408625986,0.010770240322802278,0.016510285744474183,0.020939036997397357,0.02372245710507396,0.025343033744829744,0.026394554453552994,0.026778047008550642,0.026171878402311125,0.024402858694939113,0.021965803200629817,0.019442164186190377,0.017116454350713694,0.01513713202823937,0.013825830226278962,0.01324440085910687,0.013120697030558067,0.012638232252867357,0.011747535681111572,0.010609423819046497,0.009508424632188402,0.008766171128048846,0.008432164684397728,0.008172375957948884,0.0077888834029512365,0.0074301293236998436,0.006873443775522186,0.005784814208197803,0.003879712656210422,0.0011457687367051645,-0.002355164872722399,-0.00573239007367415,-0.008181802974378464,-0.00903538687092727,-0.00815706373531104,-0.005101479938403705,0.0007375323627130823,0.008790918000327953,0.016361842676857953,0.020394720305432247,0.01909578430639971,0.012947499457451049,0.004077645651779023,-0.004730356239618601,-0.011002343390473726,-0.01331567978981085,-0.01175696269754115,-0.00850344361510171,-0.006350929826089712,-0.006746795053905747,-0.009406513622997046,-0.013191975961262049,-0.017299078940250297,-0.02165359720954783,-0.026478199187184845,-0.0319584558824079,-0.0373026353129426,-0.04152107631755178,-0.043921011503442416,-0.0441436799214726,-0.041978794222963384,-0.03699336810835891,-0.029335852278487083,-0.02009487248406645,-0.010556998921201675,-0.0015634344170903322,0.006019859115652212,0.011673310330697616,0.014877343301790526,0.015681448720204483,0.01495156865220448,0.01352892882462314,0.012526894227246422,0.012341330851211533,0.012860908304109223,0.013578414935969672,0.014048498644309144,0.01383819602920683,0.012440303073904597,0.00954553730739538,0.0058095565005499,0.0026921169727623213,0.0008364984788367985,0.00013136368014145052,8.188054574747554e-05,0.00018084689086754236,0.0002179592607460528,5.713896328406468e-05,-0.0004748050024301812,-0.0010933446021815113,-0.001340759892490802,-0.0007098499862167085,0.0006633076229560613,0.002890049968330922,0.006254904023106624,0.010782613758941833,0.01553299801937657,0.019343199596709,0.02206477542332288,0.024266773797039072,0.026666708982929707,0.029066644168820342,0.03068722080857613,0.030786185398057508
