0.2805658214056343,0.1880792359543699,0.2185314870738005,0.31713895317482776,0.4447368075270585,0.5438574908249857,0.5891692283554726,0.6140909162518585,0.6372700818379375,0.6641076848820133,0.6989387275313145,0.7451053887533795,0.8060134553639919,0.8743650171538611,0.9301179159687478,0.952593588936461,0.9464882628951004,0.9321492654463357,0.9178024330179311,0.9038486442197236,0.8871876284443524,0.8575800420345706,0.7919015948567376,0.6627868023814222,0.4796562890732541,0.3426564474972394,0.3267251957846172,0.4144376690540884,0.5313707732545148,0.5681366376965673,0.3661806060249954,-0.3390216254631118,-0.8390369357989513,-0.9465604631436936,-0.965586917024512,-0.9618917767843311,-0.9496100511300382,-0.9319115293114575,-0.9112818384412068,-0.8901161947833579,-0.8694462714490026,-0.8477161147456939,-0.8263949363073839,-0.8056796471052128,-0.7849680429134759,-0.7598558822984542,-0.678433428308745,0.003095254547255241,0.7331287087228285,0.8262025433506737,0.8525513718587995,0.8694523680552689,0.8885240524152411,0.9094172540686297,0.9251146844738575,0.9302221462356924,0.9260930600758397,0.9210979859394315,0.9172593159870541,0.9003546271899167,0.8380540980462751,0.6776417210786077,0.42459943361900326,0.22171771709370877,0.1564764145913561,0.18733946655741018,0.23545810563391198,0.20596907086958233,0.0033180447771383598,-0.36485564168358087,-0.6657859879728996,-0.810020974872455,-0.874883340370482,-0.9073645482861458,-0.9279770467953186,-0.9403263958978529,-0.9165712274317266,-0.8372134907205039,-0.7421131732094284,-0.6597236916397277,-0.5843678474024604,-0.5080998353972563,-0.4244011208649461,-0.31976804967966366,-0.17604955235472808,0.02416252603341682,0.249986583982406,0.4251794365399193,0.5020742650395074,0.5081589769199696,0.5011891788519125,0.521975182794786,0.5998582709449701,0.7413315543097644,0.7869847955498663,0.6885477287178786,0.6170546214216555,0.561242731495215,0.504081875116395,0.436242731204919,0.3173214059609622,0.10056716536760574,-0.2011152232512824,-0.4535755826918681,-0.6130662480595356,-0.7115470958990723,-0.7777065241453004,-0.8183697329797949,-0.8199451249151392,-0.7755417220945352,-0.6986778428364873,-0.6270586861463124,-0.5982305856682517,-0.6385186087330019,-0.7109352350517408,-0.773348053699006,-0.8120491747270642,-0.8292701542234496,-0.8282973033701467,-0.817057009669967,-0.8085864563304992,-0.8115213470326296,-0.8225921169426744,-0.8312243172962286,-0.8227146104112069,-0.6284764477682617,0.5755063496548466,0.8396603382463712,0.8941054023889909,0.9196672852257702,0.9345469784698389,0.9438733991894579,0.9460473070871587,0.910797488321726,0.5668213050252543,-0.42976030287433314,-0.7568465800321499,-0.8315084821785084,-0.8428664129113241,-0.8264797638981346,-0.803969647128618,-0.8042859428875024,-0.8446109378174255,-0.8958051175190166,-0.8976057754987327,-0.8520980195200895,-0.8049689214989628,-0.7769197320482817,-0.7656093386660314,-0.7606461607755944,-0.7396703667778712,-0.6510466042924398,-0.2548976837141925,0.7579840095892432,0.8854932223479388,0.8641656139353748,0.8524971043499028,0.8565475559680787,0.8689962014140806,0.8673706899857344,0.7875097816857578,0.5976351437037362,0.4472905519661033,0.4407705284130085,0.5132534302703367,0.5953922066510594,0.6607451536338015,0.7051338939914998,0.7299087869316226,0.7398208214845777,0.745102616763025,0.7569557300580855,0.7832578505864394,0.8219235641381756,0.8608592428622451,0.8920048755090872,0.9151438594498265,0.9326268936507546,0.9456213902783734,0.952623726077044,0.9531480515790186,0.9145515427039848,0.007570136552563905,-0.5605072870354691,-0.6137980326004769,-0.6271232351295997,-0.6306716573482353,-0.6028016087439148,-0.5446587755016918,-0.510518202929842,-0.5409926383190162,-0.6286528850033962,-0.7248633075142177,-0.7850951317687672,-0.8035898835243301,-0.7958460590721981,-0.7812619162999352,-0.7732054832030966,-0.7728365485625199,-0.7809005027474066,-0.7956634013609025,-0.8113012805024357,-0.8206428297086333,-0.8222406957293003,-0.8174261678547575,-0.8070143437161904,-0.7926710422416002,-0.755991116667616,-0.6050118571858308,-0.37714096704720984,-0.24740758900151258,-0.1956549555290925,-0.19001205324896303,-0.21200054772143614,-0.22134779244546937,-0.18331854558057045,-0.08986862478922655,0.0044054524409561655,0.04668413820866539,0.0368991855724199,-0.01932658437728763,-0.1466977290616563,-0.37108227491148127,-0.5546962526569561,-0.6131907405840248,-0.6529262394844064,-0.7125913234164333,-0.7798008940845671,-0.836662137791784,-0.8738740513621112,-0.8884363756377126,-0.8824689577617539,-0.8620131173312418,-0.8320831205501413,-0.7952785692269668,-0.7443045312208966,-0.6695947742354822,-0.5644220475606933,-0.43059928916131707,-0.27204770993253113,-0.07790306165818903,0.20601592573873723,0.5476801519932353,0.6735902919912968,0.637383343957703,0.5850344620487271,0.5476641764132621,0.5316773322318871,0.548702801855802,0.6108045158878054,0.7144598235146505,0.8236398543964978,0.894343011105089,0.9146884468286838,0.8917760036678571,0.8271169956744453,0.7267325878950008,0.6480446794061262,0.6645823914511078,0.7550363346478565,0.8451717041577577,0.9051558674471427,0.9401293557612194,0.9595368078919704,0.9679637681277977,0.9624160737364827,0.924997224789233,0.8038887922468675,0.5062002867623595,0.06744587825705772,-0.2643157316298215,-0.4149991461816092,-0.433290301306938,-0.3664037083336467,-0.26730705306808916,-0.18265728337934217,-0.1451335988308696,-0.15638169413102884,-0.20983960796404236,-0.30646249015846605,-0.44373019260919094,-0.5940497650191028,-0.7218628900385637,-0.8041965621436366,-0.8479723714289793,-0.8680885853028181,-0.8741588230875733,-0.8726967168711502,-0.8727684756133853,-0.8782425850091597,-0.8848823194115932,-0.879307741072164,-0.8525882732475645,-0.8102070182779448,-0.7679521731313188,-0.7379876810578266,-0.7258253150153042,-0.7308282870882152,-0.7487518063573666,-0.7605473324164741,-0.7664097993957067,-0.7857871701639203,-0.8221599071562535,-0.8677414796143963,-0.8967805438259897,-0.8938627648512909,-0.8787327944249906,-0.8752916489505762,-0.885959332319913,-0.900743178356779,-0.9094573590011116,-0.9023025469714753,-0.8722385124485728,-0.8057092592018466,-0.6897740378973066,-0.5077868219912459,-0.256084568708583,0.07115439252710573,0.3993354296069753,0.6278928370889912,0.6860451727867711,0.5734543782656686,0.33080776090735076,0.054548184250527695,-0.1381150332687984,-0.22365886874860777,-0.25758957184194803,-0.2812654785244007,-0.29443564273701817,-0.255534150418,-0.11533487240945227,0.15564088254802735,0.5039227555866195,0.7519256223136725,0.8658864630100485,0.9124381799123272,0.9318825942241027,0.9388829708237896,0.940659743638295,0.9413729817593355,0.943793502601532,0.9458220443145287,0.9447099555682695,0.939755708964965,0.9327201856883978,0.9203269546493458,0.9000599898575511,0.8699549590320362,0.8234162147054169,0.7378290020876015,0.5782490575359736,0.37684288137039923,0.2841255498128712,0.37065326846441016,0.5377290127453025,0.6784799195474585,0.7599669238670008,0.7930694175358185,0.7815735741108055,0.6722536889813655,0.10522292789245491,-0.7063558998276493,-0.8818204890387131,-0.9342964883754863,-0.9371680793636668,-0.8462383819398447,-0.6729346271898766,-0.5265781134102412,-0.45895204725193584,-0.4515334528238828,-0.4642081533279548,-0.4525105805654674,-0.41152881467079644,-0.36627517962687545,-0.3407794420628888,-0.3519732162697924,-0.43311015468416725,-0.638025838636214,-0.7755707474209886,-0.6345736538781352,-0.5406215530467813,-0.5090593495483439,-0.5097072409646858,-0.5307790723046663,-0.5726896032652536,-0.638278784489015,-0.727157514497359,-0.8145982965546688,-0.864378725526711,-0.8832809783083392,-0.9016167282479972,-0.9225695872074354,-0.9389243152056183,-0.9510412050749136,-0.9600921267542315,-0.9636316928944293,-0.9609534323188113,-0.953443973937055,-0.9386638702142888,-0.9078835768638691,-0.8175727231170954,-0.3529690098246285,0.7339240162975672,0.9439015146557475,0.9747210019699483,0.9769838756772551,0.9692239337763306,0.9574540729990892,0.9439369044550792,0.9302436175690022,0.9193915178644602,0.9153386918499417,0.9186485816226422,0.9282380465887778,0.9419628317292711,0.9564952546918543,0.9676413256490957,0.9754237690866703,0.9830082846695151,0.9885786509623229,0.9882597617400515,0.9770784338576494,0.9471347825961051,0.8738808929912156,0.6234099835699184,-0.2518130081930147,-0.7995323543159599,-0.9102653578154503,-0.9399006512443974,-0.9509322836554472,-0.9570128681491049,-0.9604887368148718,-0.9559676449781714,-0.9385332355392881,-0.9115416022861015,-0.8857211152663163,-0.8753047771612478,-0.8906508327528673,-0.9281427029810113,-0.9537286502417442,-0.9409786422337508,-0.9204601561793976,-0.9109103925904839,-0.9001071459893402,-0.8661466456776594,-0.7866157880818544,-0.661016902437113,-0.5394570870438251,-0.46875915482848785,-0.4632096803844542,-0.5178243905831043,-0.6341088262806153,-0.788918742680224,-0.8979726285568772,-0.9343831875667449,-0.9406412507316594,-0.9379286207833186,-0.9248452062830644,-0.8965164315761741,-0.8506718758814198,-0.7916533310440864,-0.7312640122715168,-0.6728391387301299,-0.6140754393363655,-0.5561635639791931,-0.4960605846069294,-0.4036598951313372,-0.24803365282683926,-0.07903829594504302,0.010788460353951842,0.0019489932667237438,-0.06974194217238099,-0.13617029577077902,-0.16497549401651251,-0.15428136734575867,-0.10166215092803808,-0.0006924814913033195,0.1586203947702885,0.3709933030792152,0.5770756713388046,0.7042619503525457,0.7471624877806087,0.6907544334743936,0.3194568536242968,-0.46868409924808596,-0.5771322393050181,-0.533598464525161,-0.4830236622354195,-0.4526403118424097,-0.4587377184370265,-0.4951958620259344,-0.5279361478803893,-0.4862974700599107,-0.33993338680413815,-0.1240749149430793,0.25792334694192837,0.7020735583117041,0.8702012663779207,0.9149401805688044,0.9362798110316923,0.9574321084027041,0.9758814479294126,0.9841729419278417,0.9842644147542665,0.9813823496783074,0.9767239421113653,0.9672127596096274,0.9467757717756784,0.915339598233066,0.8856893323466821,0.8697551385192974,0.8716460425175587,0.884878688011523,0.9009240908044812,0.9151057216999239,0.9255654623175152,0.9325087968235265,0.9341769725152645,0.9281790542849043,0.9138625124515127,0.8898255075207601,0.8500172182080938,0.7773002083870387,0.5627292432211901,-0.2558192170785415,-0.6317462515466031,-0.7072352244015818,-0.7346938882539957,-0.7345179439375705,-0.6762944692292108,-0.4313887540917681,0.022885536835458478,0.25808670144148765,0.17970373535654138,-0.2763575864372202,-0.7400302973526811,-0.8940271748369055,-0.9377827610008905,-0.9501835497129117,-0.9487877581247389,-0.9392800272265749,-0.924927637526493,-0.9074750025538737,-0.8787877039487814,-0.826047210396328,-0.7550349735226496,-0.7003984638432516,-0.6845187394230668,-0.6884747988272464,-0.7030047030052233,-0.7342746756889172,-0.7822924534175872,-0.806778592356713,-0.780257830904324,-0.7335151267348295,-0.7154369267878542,-0.7260677372884425,-0.7006759168687159,-0.6350769174996959,-0.5704586705067209,-0.5053773412872216,-0.4440901375599345,-0.3925605657089903,-0.3385223149205658,-0.224595510679985,-0.013710434387874686,0.18437222355906344,0.27507232480645794,0.2618841173380625,0.1441256183241383,-0.10013091975021698,-0.42281947536528547,-0.6886281920753508,-0.8331680731502529,-0.8900990198282512,-0.9022273662015106,-0.8855461921089828,-0.8348035452544358,-0.713675799693542,-0.4079284529218778,0.18141482162990444,0.6241303396935745,0.783634124316122,0.8284452278100626,0.8264646224010758,0.812634210316186,0.8069202315820428,0.8233184327000445,0.8612991838495773,0.9050219824147429,0.9314715486928064,0.9377705017216147,0.9378884291540214,0.9366034351511037,0.9324030616063353,0.9240381162012138,0.9068745437639328,0.8703201397232406,0.7899756189933512,0.6034378578135455,0.22909746466064168,-0.16094168557666144,-0.28835763121260266,-0.0762376930094782,0.4082041528775436,0.7094016541764585,0.8121199658977013,0.8455402792899355,0.8557998971437296,0.8581604246266709,0.8583143065191376,0.8610571918521982,0.8674274898080593,0.8144959816421686,-0.27840967904357855,-0.752123007069276,-0.8394846186485844,-0.8783560487805055,-0.8986035795548749,-0.9076693632169078,-0.9107481419858576,-0.9133341491367878,-0.9172825976120002,-0.9211839755114948,-0.9220206496028271,-0.9192389063490077,-0.9141261075886038,-0.9102076479647109,-0.9088071121172518,-0.9080688528518954,-0.9063065182660901,-0.902566233760239,-0.8962848301412588,-0.8871498669415805,-0.872714815591306,-0.8493440663499435,-0.8049787588068309,-0.7105251789841937,-0.4853200229083524,-0.01068498273356686,0.5054615313594537,0.7765442898487068,0.8862202887805614,0.9294836638979624,0.942479834640489,0.9343392488006989,0.8967453563881063,0.8150083670955901,0.7004258533601477,0.6038739037039009,0.5570642823677043,0.5457267074695134,0.5283823860324957,0.4189246901219861,0.19375474280212787,0.019378414875547034,-0.07465470290740886,-0.1280632060007878,-0.132002088495797,-0.037489315777269785,0.1476985830519265,0.3250459205830236,0.4508741989693651,0.48602226381301544,0.4406556787038042,0.3900428556045309,0.36059756751608374,0.35345080802217893,0.3730232153293046,0.40081938372934034,0.40431219799976637,0.33261783609453804,0.1682696210250318,-0.007680924575881741,-0.11624847932257672,-0.1684012801323972,-0.184279209225116,-0.18097233038229846,-0.16885823054074076,-0.15125429702419282,-0.14287103381197708,-0.1557571606950766,-0.18035206217765104,-0.20983106556211728,-0.23509226422622134,-0.2504296242934814,-0.27624784054820517,-0.3296874264984064,-0.3919109851916555,-0.428098433184146,-0.4171963149781169,-0.375459098067939,-0.31932552794185226,-0.24971122565911066,-0.162637842432449,-0.06897862269484746,0.052309049212090626,0.2448272532351294,0.212669572346155,0.1644827975341988,0.14518539146540194,0.15693272548734968,0.22006214402579719,0.3251281226904933,0.34939957043493647,0.24008258717058573,-0.008404305876199225,-0.394689763097743,-0.712267876943863,-0.8583043766756308,-0.9112327636209966,-0.9196725707833642,-0.8833944621105887,-0.7022738607056913,0.22654869478431053,0.8507427301273988,0.9375135037476847,0.9586061269847959,0.9605983262153839,0.9367673497300452,0.8656292522119239,0.7365154260388758,0.5937652128204746,0.5193238013831454,0.5270704750401158,0.5645164347157939,0.5986172289220688,0.6287406072913355,0.6620270795295734,0.7043522045380265,0.7540210634419752,0.8019717959341081,0.8441601987033448,0.8695661124961009,0.8621614747442492,0.8294588869912736,0.8169150829013937,0.8420114399482447,0.8810208334633711,0.9114476678019467,0.929963384654861,0.9445664671995018,0.9460989159887243,0.9072591012245246,0.7747523959260825,0.5531367689371853,0.32850400488529885,0.11665556631933066,-0.13250840352689433,-0.3854293008879854,-0.5580871652057142,-0.6263223195805381,-0.6171723446034353,-0.5339559659676508,-0.3490112555795232,-0.0780490406414232,0.1461766056883949,0.26039173369646557,0.3032353180036663,0.3048935770280357,0.27229806437007226,0.20674740937442432,0.11165925740039505,-0.0014310781491501832,-0.10739962235932148,-0.18469426056412006,-0.22838027929446544,-0.2609675495771118,-0.30136065044308386,-0.35821284477070897,-0.43416091087109454,-0.5363962824566946,-0.6848442170979642,-0.8714895571966306,-0.9556905538126401,-0.8821936016866788,-0.7569935289305832,-0.6329754028296708,-0.520081011059618,-0.42695357460422423,-0.3617845207205211,-0.3346139344115799,-0.3471444170762141,-0.3787095248779118,-0.4020810602275797,-0.3998339034867084,-0.37177678941941794,-0.33366995927516613,-0.3022606151370865,-0.2884491435587527,-0.2946859289403393,-0.3122531568700365,-0.3257087440895061,-0.3262057404823696,-0.3083639129490175,-0.2736647288178897,-0.22614288322854537,-0.16903172911260952,-0.08983814696127619,0.0677568619160864,0.4749596057181017,0.8889582467357005,0.816802765063763,0.7488048563975332,0.7359198472814379,0.7598681215319573,0.796246981086326,0.8301338603291921,0.8558776770660846,0.8763424254651188,0.8956782865268985,0.9173278692672047,0.935806761866879,0.9387642848667842,0.9067698845320938,0.8171832949724546,0.6668046116930321,0.5018652420953313,0.3677393386390839,0.26997489589571616,0.1811254081742489,0.00703381763032052,-0.16924107003712302,-0.18458332407979985,-0.15244980069085337,-0.07533089776873607,0.0730786787683685,0.29901092887099867,0.5458400067491699,0.728726465463757,0.8277226422357014,0.8702502637030352,0.8797680099575294,0.8660066554114132,0.8317939832599365,0.7689075215347746,0.6470696427412203,0.39757652636337804,-0.04209022976541772,-0.4692050190029833,-0.6941459763721453,-0.7918489034114955,-0.8459983431732837,-0.8887699732266352,-0.9269910081219559,-0.9566320141867137,-0.9738902579553516,-0.9820793708805982,-0.9843166986357056,-0.9817032217672162,-0.9720959942511599,-0.953307263104337,-0.9281611868942459,-0.9040438310005692,-0.883322405078648,-0.8630863359097786,-0.8312125179706569,-0.7618769536485351,-0.6069697726867588,-0.34349028535568393,-0.09299209290205279,0.03639939521586996,0.153898586788844,0.3758269011745124,0.653983943910461,0.8349891246980976,0.9064471097606244,0.9235152759400392,0.9118529453042136,0.8801034999913911,0.8406173681740846,0.8138594311342817,0.8087567644467917,0.8039497041597853,0.6775602751415906,0.03513469551552018,-0.6179118181595806,-0.8094668756403339,-0.8695385709793925,-0.8889157420839534,-0.8886476327825307,-0.8693692447645552,-0.8265550497738254,-0.7613268510181742,-0.6884445293393003,-0.6367497086725228,-0.6030959543148376,-0.560333848632736,-0.48396687773411085,-0.35949587946063033,-0.17342460955777497,0.053825775137946036,0.2843791321269599,0.49763184141056416,0.6812653184238989,0.7568760187858813,0.6960945640213942,0.6021762470915313,0.5341434094749302,0.5010865011969701,0.4967578027480287,0.5143040560914841,0.5454186614372029,0.5788982787498377,0.6076727348007824,0.6391169644029844,0.6954827024549329,0.7817405844055515,0.8467861018277176,0.8631122631795519,0.8605958306355261,0.8523082736522979,0.820631478158663,0.7413469909559143,0.6115969789343213,0.45768748919579894,0.31693788538371986,0.20943147788536493,0.1220557487282643,0.055353886044802625,-0.032065649847694166,-0.20053881188652364,-0.4833499262046941,-0.748847780744572,-0.8552656684033177,-0.8581106333057801,-0.8038044216004682,-0.718711567378901,-0.6606395471653207,-0.6758577902683011,-0.7489654310849801,-0.8444318563110801,-0.9317795828025586,-0.9608851209928336,-0.9281677947060821,-0.876651385952643,-0.8361073918988208,-0.8090609079620743,-0.7752204108031456,-0.7245668897106192,-0.6685061915472598,-0.5978210920195889,-0.4812240390830635,-0.29024584276240756,-0.016580425423913754,0.27987866509763426,0.526033185771337,0.691334862680947,0.7927405489159516,0.8505526394762124,0.8818842509795941,0.8987863172568187,0.9109218222550366,0.9224745578730869,0.9302699839237182,0.9289964329687868,0.9032498582371958,0.7690770026590434,-0.2964100823810172,-0.9060704403252222,-0.9510077473280988,-0.947598422276412,-0.9334913248756679,-0.9170635020312068,-0.899517088543015,-0.8616128843493633,-0.7065594945518832,-0.3816203957828256,-0.1518205785254415,-0.08533567783317003,-0.10133826086225099,-0.13656732066958263,-0.10235917296165262,0.2602375540119969,0.799490258843583,0.867047308074798,0.8719994447975511,0.8821230699234328,0.8967174723746353,0.9103564434991712,0.9187298977719199,0.9184605843097267,0.9050679701511202,0.8736226824838487,0.8193829838287537,0.7442811124514449,0.6689393603585865,0.6241563342108747,0.6260224830392365,0.6679212100926428,0.7150709362327063,0.7240615816088825,0.6423872475399763,0.39102577985893244,-0.055593418444876336,-0.45556814112955035,-0.6625332063945648,-0.7410617691059584,-0.7405193086514296,-0.6802502427543157,-0.5841829562619526,-0.4932627963835696,-0.43971870770897253,-0.41807412855086445,-0.3973424242035225,-0.36102222827410113,-0.3203731860919544,-0.31308473396222036,-0.3728971965961554,-0.5053942156049881,-0.6795843454632785,-0.841442447968808,-0.9402278777087723,-0.9670100780151255,-0.96275989947391,-0.9587415318159148,-0.9584575774419075,-0.9596582596943322,-0.9601423549323327,-0.9597679748367306,-0.9603260914474155,-0.9614906288183367,-0.9626684991719796,-0.9631203809633534,-0.9617714960572503,-0.9565534411763729,-0.9388046738649624,-0.8817776068910376,-0.7122573841381173,-0.43910020092356644,-0.2619936788421332,-0.1946579350890034,-0.1455031796481444,-0.03622948563753612,0.16895398021701338,0.42099786108015785,0.6179337248290326,0.7436764270682682,0.8255545474265402,0.8806677660513053,0.9173973457023323,0.9413727591170099,0.9551943063265915,0.9569446294845658,0.9344726424002576,0.8493594668381784,0.593971060098219,0.16384526122622223,-0.13021040113769028,-0.21437174187604885,-0.1548883352714849,0.00467626793539427,0.250631708920786,0.5475176583759753,0.7356479400546388,0.719212993676127,0.5967428835411253,0.4465305061618529,0.30189752020091926,0.18087229760422646,0.08251175377652414,-0.019654261923395533,-0.128518493494916,-0.229661846943364,-0.3069646070700585,-0.3776042774346604,-0.4546531181863353,-0.4893349282045941,-0.4759650805966597,-0.4801971627911208,-0.5086283813566144,-0.5124075846408362,-0.46889464814283965,-0.38623371886489133,-0.28332986258518816,-0.1897886858532697,-0.08356074706951824,0.05426475751052903,0.15940922180007444,0.20865775559338126,0.23951105954248494,0.27654908038072307,0.2990528192524431,0.23973830950170835,0.007308176139617099,-0.41768931997009784,-0.7082188428196471,-0.7550839290534781,-0.696657372200054,-0.5724064341084717,-0.4218700312445082,-0.3395932771121278,-0.4009301964067167,-0.5473875923889666,-0.6414890857523551,-0.6849713031216214,-0.7061001407368097,-0.73319048683206,-0.7567287289352684,-0.7762933327497372,-0.8025592337508436,-0.8321065397238301,-0.8646485468525995,-0.9038198370794118,-0.9473215456302015,-0.9638108887135399,-0.8980518944279268,-0.850204656604384,-0.6937163968031581,-0.525030266642205,-0.49263985944162053,-0.4890353194012835,-0.45319882751820056,-0.35137365020182654,-0.1163093007534489,0.2145664661541405,0.40588799052307084,0.46457514522865107,0.4831977013214169,0.5050306925660555,0.5434285473644456,0.5894808047255448,0.6317057774230289,0.6694389281255719,0.7139668499763182,0.7658960196001378,0.8115859588748332,0.8417514071914136,0.857781036314186,0.8699321068053588,0.8831144203778122,0.9043441436187072,0.911891136423854,0.8231504477378254,0.6274487470393978,0.41705157654444663,0.1875443983401378,-0.1532539890119769,-0.5417644712963104,-0.7761614392325421,-0.8813689209964637,-0.9199730288258043,-0.8854413859539038,-0.7237903385840675,-0.39942322782295275,0.026228532657950086,0.42172530940310327,0.694553722085409,0.8354767862523871,0.8989386648637014,0.9277341964712907,0.942712758985908,0.9510888015855777,0.9548920701034523,0.9553611240128003,0.9463722225494822,0.8922247292703562,0.6264944447035323,-0.15192992719253204,-0.6871550937442028,-0.8630903473444962,-0.9304704209342046,-0.9608154499101415,-0.975127131365809,-0.9797787330399754,-0.97592190662182,-0.9582463369865529,-0.9116795956157209,-0.8153602647145292,-0.6335993863922302,-0.3239085301714358,0.00347920489755914,0.18804982954363356,0.2864115307503255,0.41578593917640144,0.6202632142614322,0.8083747072927219,0.903915089032897,0.938456201686545,0.9528637775157469,0.9644065575779587,0.9739206531717605,0.9769505430996619,0.9685329111706423,0.9412895426982335,0.8664983805520668,0.5998809049600813,-0.2632012989219775,-0.8163730098384516,-0.9357736870619552,-0.9635702119861452,-0.9674250764760849,-0.9642943029400117,-0.9616963400976154,-0.9646930274050293,-0.9717242573836729,-0.9762038279175104,-0.9717453366276568,-0.9509723319392993,-0.8985139814926099,-0.773764342117216,-0.4759246730817935,0.08529461277570366,0.5728286092651637,0.782066471846878,0.857307489384972,0.883105674795835,0.8859377579908795,0.8759678475130425,0.861525967187499,0.8551211480236158,0.8657444418574263,0.8847902436594393,0.8809926166509837,0.7548960071668352,0.21679840801943195,-0.45099697629259144,-0.6810645304865461,-0.6864445851385745,-0.5947112197608867,-0.4966921500497123,-0.4578418758437223,-0.496707982942299,-0.5911795053220462,-0.6761523728339572,-0.670489578335251,-0.538719058146309,-0.2797482687187573,0.04784009743612203,0.30787085476800774,0.4296151648023098,0.40508056926545094,0.20498939734701646,-0.1211420129309997,-0.411584162683657,-0.5850075567282809,-0.6765405169421456,-0.7266833686694822,-0.7463432700100024,-0.7209412358919809,-0.6300397148163543,-0.5029279842520038,-0.40482676629483416,-0.3595373082219808,-0.3558238233474408,-0.36504348537081305,-0.3673227469364401,-0.36321966406910206,-0.37304920889907817,-0.40278569704312583,-0.43841483650988233,-0.46638835098448594,-0.4810211428131942,-0.4838493541329692,-0.4757639718484965,-0.4626205045739892,-0.4492298255860765,-0.442223661841628,-0.4468317440390225,-0.47127018301338214,-0.5122027396225844,-0.5623617804651116,-0.6189646207550888,-0.6747168677743375,-0.7148337313335624,-0.7203229326600737,-0.6630174295426091,-0.4991891033562652,-0.17544616691023904,0.1463794195969762,0.2846774232993525,0.3239731253553795,0.3351694408514617,0.3540444061713196,0.401660610480439,0.47522215773201976,0.5803506269469335,0.7179557538096486,0.8648890953895277,0.920659286957672,0.8360997461720022,0.7388086313050729,0.6807933681117228,0.6444417590640351,0.5992044095079571,0.5386269557092918,0.4848515937777199,0.4492338632098011,0.4290415432145035,0.41710675277012016,0.4108190406919349,0.4058405781444916,0.3952270588554067,0.3596618025031118,0.2762751040898635,0.20373159181247988,0.20970985336422668,0.28322769283834165,0.3333248222004585,0.27594509835743225,0.22916596935135747,0.23713683067777386,0.29086074492941993,0.3954627236845598,0.5754498609911145,0.7989653678726757,0.9046957939139841,0.8518060552192506,0.7578853925269688,0.6752947085295309,0.6073202716145139,0.5419310791209793,0.4569598970290607,0.3053066902844373,-0.019644004219375497,-0.392952120710581,-0.5296086804487762,-0.5767255442920238,-0.6184074299706177,-0.6775294869264732,-0.7529044867247306,-0.8196792483967583,-0.8611012309703564,-0.8775598599487874,-0.864618785555079,-0.80303751550449,-0.6711133064037765,-0.47569725446051364,-0.2726115605298958,-0.10962032154167842,0.012567402005671632,0.10097660961617905,0.056963521944152704,-0.19998750336008603,-0.36618523307877227,-0.455171510538454,-0.5226990993497614,-0.6016341933382312,-0.6864395187813129,-0.7498022319385211,-0.7866397221024678,-0.8075990432630255,-0.8183067021167323,-0.8064083431765396,-0.7285786841585415,-0.3904992631445502,0.5182448899576585,0.8934069970297084,0.9600035585563668,0.9741719254284967,0.9747938918276645,0.9702517453380577,0.9640111433147593,0.9581425238200926,0.9540402809487919,0.9525373982352348,0.9543037998228189,0.9586397651108112,0.9636914382001477,0.9685528623493457,0.9735973974066572,0.9800972778496673,0.9846864045341912,0.9853010492346282,0.9778662354288996,0.8821550609110177,0.1084642398193167,-0.4592952794616693,-0.5811596100424642,-0.6099587789409117,-0.6244338720078328,-0.6463581674110893,-0.6828840493972094,-0.7283430778367544,-0.768573286800107,-0.7908387628042236,-0.784256394067825,-0.7466891756204052,-0.7010227813732348,-0.6896189752960431,-0.7307901429655687,-0.8138578119163737,-0.892655774911866,-0.937591103292964,-0.9607812067203408,-0.9726992788101716,-0.9775765636507002,-0.976906073144148,-0.9695392653264623,-0.9501096494377802,-0.913317582602579,-0.8683484628458878,-0.8447735577575968,-0.859191509296512,-0.8947529366019565,-0.917357728381397,-0.9091818754620212,-0.8802630724608284,-0.8539276225929169,-0.8462779728895633,-0.865570475562269,-0.8944710623114136,-0.915015879921478,-0.9271205096327518,-0.9314319781039917,-0.9189281296079798,-0.8849177681642987,-0.840696482478937,-0.8060214953247841,-0.7879293313555666,-0.7843627838730551,-0.7947883658323437,-0.8076644625087974,-0.7803393306435027,-0.7044151782375201,-0.5953845343340276,-0.4562597020745127,-0.3006756439097876,-0.17444204279733788,-0.11831586850944363,-0.12642639922576876,-0.15219033271962787,-0.11477569382735721,0.05493504647166452,0.3262270195855367,0.5434104073887343,0.6691481655178321,0.736713300634156,0.7590598740985953,0.731512706176124,0.6578702736590569,0.5733131138568043,0.5307714898737468,0.5543689069804559,0.6350110445951073,0.7295338667334897,0.8086276609341546,0.8633008177406598,0.8949280353494256,0.9105622758871018,0.910305110144033,0.896808936646936,0.8770516031564232,0.8606675209376706,0.8641316203211014,0.8941266940517998,0.9143418484018088,0.9048505371035359,0.8752097041282026,0.8297018012262862,0.7600607219482589,0.6614988001682207,0.5014510940785953,0.1305039773556555,-0.4429475057618534,-0.6173756792495599,-0.5791893903170314,-0.360689715178012,0.10746430214903507,0.5582421439742775,0.7704393080242228,0.8631643939905278,0.9176887769069021,0.955203009244027,0.9779061708009965,0.9844095594760774,0.9755075155304321,0.9434505605113223,0.8510107710806242,0.555061563786267,-0.13664861454281907,-0.6365583114710923,-0.8144977209573007,-0.8820392145988158,-0.8968969605318285,-0.8252252385513918,-0.3127783150679689,0.6108810019452675,0.8445655101582836,0.9019696361891076,0.9192189679647713,0.9204234208208901,0.9087060252501281,0.8762181700832222,0.7943662293171723,0.62351708506181,0.4262974199048584,0.33797944230976706,0.35498706877928,0.39899721219635537,0.40129893804054867,0.3100158923069647,0.08850063447521904,-0.19417604851495174,-0.3943256420692039,-0.5237258753617116,-0.6235849774010341,-0.699811356673622,-0.747536564976748,-0.7672305977942786,-0.7673477954250049,-0.7584949483505883,-0.7498241808696683,-0.7445066506109882,-0.743115270953675,-0.7410799441364945,-0.7318884795885771,-0.7134318039225221,-0.693070183198307,-0.6780418503618515,-0.6701082528471004,-0.6755319207288847,-0.7024828019882123,-0.7530540923163468,-0.8031340058801908,-0.8361063942989102,-0.845278326482014,-0.8382624271613377,-0.7981416192321399,-0.6881971071916217,-0.45183032782965216,-0.1313378256269715,0.09892608052390289,0.1843334904413576,0.16855614590409873,0.11690304413207132,0.07704683442576019,0.06642772545677318,0.08402624925744326,0.13527530487692496,0.21561298330159426,0.30457922554742994,0.4067170428469777,0.4809317898766034,0.48722651915959275,0.5778161538945139,0.7109319136902369,0.7565323447368509,0.6670266388656527,0.3829100207537326,-0.17942934924474835,-0.5132584425916292,-0.5429495906563602,-0.44820386782435956,-0.25137326224995127,0.03658527689587816,0.34432921145399675,0.5515103283614469,0.6001887753602815,0.3966546652951917,-0.32762746310965307,-0.8319418258666874,-0.9344286287291361,-0.9575380045130047,-0.962595002541002,-0.9605952835721087,-0.954270392125619,-0.9437046583708033,-0.9249679208384831,-0.8858501326326638,-0.7865041143955848,-0.5555800232382113,-0.30688462217877666,-0.2359203114381888,-0.26693358776566484,-0.29200070795972044,-0.25774013479991353,-0.1807125461271483,-0.08430172880649137,0.04087113525720162,0.22527341907358023,0.4877619436796536,0.7459586768586292,0.8921164895619799,0.9274424042810928,0.9091280784180409,0.8599995189466725,0.7672418157486045,0.6146863465261121,0.42504236680797947,0.2560854012064184,0.14087445495861767,0.07608975831625304,0.04579941866023756,0.049159765794245774,0.12240910131131362,0.35430941838745267,0.7523149548822311,0.948011009410561,0.9783631637189566,0.9796163616372718,0.9758828691973308,0.9683796366183763,0.9534345290757114,0.9185450138553062,0.8260313688444026,0.5500840765781585,-0.06714199858535483,-0.5602398922856409,-0.7421869888512175,-0.800589508191411,-0.8118872904556653,-0.8002194509342878,-0.7726068353388132,-0.7299756709084226,-0.6792995792874804,-0.6310570081941687,-0.5966031035780411,-0.5841628156663404,-0.5879046617840195,-0.5921164325939516,-0.5875364766701796,-0.5692432005361621,-0.550231437492697,-0.552706803333396,-0.587199730764366,-0.6585421569615475,-0.7178886241648351,-0.6752434861923496,-0.5840829413825326,-0.5277887815315695,-0.5198104734050207,-0.561011521124148,-0.6429173917152774,-0.7254427461155146,-0.7711430709880684,-0.7599645577088388,-0.7012691570951576,-0.6321922096171352,-0.5854308675579973,-0.5744552604244217,-0.5986876949583257,-0.6424047407460839,-0.6781793155480422,-0.6865410904964964,-0.6674583291516755,-0.6405530168913218,-0.6282288972010183,-0.6284544638090844,-0.6176615932186951,-0.5503399435182578,-0.40545304836988333,-0.2078788221593731,0.005838930900924523,0.2281293033567494,0.44817018831013666,0.5761917659804857,0.6122075089289658,0.62304184266188,0.6292081495880244,0.615876370449492,0.5592392491696047,0.37826983413377957,-0.3099877006515009,-0.8479399558788777,-0.919009937052382,-0.9291576046536855,-0.929505168517414,-0.9315564712608784,-0.9348696306391151,-0.9333175159753132,-0.9211038151181803,-0.8871563659312819,-0.8024636312780604,-0.6254482227928205,-0.3689752413488443,-0.13371533589677825,0.019088472741981617,0.12500817487305257,0.2519102210757565,0.4280941181369088,0.5948930258966048,0.7208602656351539,0.8223486680796398,0.895201328912212,0.9292896601273266,0.9327284580223166,0.9132330193952567,0.8555247602671873,0.7025206372121522,0.40456271475843697,0.14940248952756024,0.15381691026549746,0.3740669335725995,0.6376867150064782,0.8165268024112783,0.9047681435880504,0.9243045150839874,0.901934655115517,0.8722034993219518,0.8532141622739812,0.8382343258139804,0.8135403616103695,0.7779569388799958,0.7451441070772029,0.7269138160678201,0.7240409258431076,0.717024235919728,0.660419503745316,0.5135959880115616,0.30537438326028316,0.10881537020927591,-0.05543051634026248,-0.20699291748250942,-0.3624005112865912,-0.46017969208487924,-0.4209628350677899,-0.343027029824103,-0.2897499513194896,-0.26349438294905486,-0.26273088790829735,-0.2899515022812367,-0.35473243936526316,-0.474679173938925,-0.6352527893864253,-0.7712029039154839,-0.8310818138814292,-0.7593675397631651,-0.5128328249329709,-0.22756214731709964,-0.047652424566499034,0.02607985749397402,0.020826246625542114,-0.04247779444607615,-0.13758472616428966,-0.23632773185833283,-0.30395525363259923,-0.32110187262626416,-0.2996051002874097,-0.2445663044413121,-0.15653305251083396,-0.06383048787222853,-0.050175638304704236,-0.16254124580245988,-0.32639924867004694,-0.4552826590065517,-0.5318435200205628,-0.5589034722678317,-0.5516637204827661,-0.5352933303067533,-0.5286057080445915,-0.5292852590584285,-0.5178446391444407,-0.4846784319578575,-0.43677209009133183,-0.38278812504501963,-0.3351553377859145,-0.30197575057722514,-0.27982957484699983,-0.25907185819250095,-0.22844164541077783,-0.17622344284210303,-0.0813137384198936,0.0745495378528907,0.25100904256724144,0.35532361342443924,0.39593985051497554,0.4072357973979733,0.39908504885472806,0.3712934308599611,0.34049679455204207,0.31408842174378626,0.3007615096026586,0.29390309614408083,0.27306784861651695,0.2210150190494131,0.11609373766486789,-0.07365562101522619,-0.37598165570242337,-0.6803421502597814,-0.8601744780155148,-0.9354536597418309,-0.9611376736228855,-0.9658030446123755,-0.9642003161618152,-0.9610647276690197,-0.9574293856243908,-0.9501448517556947,-0.9140530941382398,-0.7018781963349087,0.04059913660282731,0.6372111085068006,0.8475001897917017,0.9336443874986192,0.9739349732734818,0.9900842456271278,0.9936178820241031,0.9911235079312362,0.9861238863554116,0.9797957294884654,0.9720625238166589,0.9624465350488718,0.9507367832670309,0.9369030748718674,0.9216481533702792,0.9054354027949904,0.8866892960957463,0.8630537366430898,0.8262432930791442,0.7436225767817835,0.4686216282035357,-0.34973166725783617,-0.8459748083158495,-0.9424212834314759,-0.951677025952408,-0.932921560725087,-0.9112882851932902,-0.9060313874321978,-0.9222401104589492,-0.947749771253154,-0.9682586020825347,-0.9791887746131763,-0.983830087553489,-0.9850682282647738,-0.982832467870059,-0.9770353242993075,-0.9682072446232223,-0.9564622267567632,-0.9410906202847139,-0.9216293944716334,-0.8993763147595072,-0.8794404504972485,-0.8680445818017866,-0.866734584713241,-0.8731385672459621,-0.8831151427812156,-0.8938687033555851,-0.9051027290522832,-0.9170841164768421,-0.9278465123640227,-0.9284069990316288,-0.9127438497661701,-0.8926560429212257,-0.8780326432437394,-0.8415928168421658,-0.7398951028083944,-0.588554480392549,-0.41769154304100037,-0.2621444788762193,-0.1442794799854115,-0.05394428062301469,0.0324246545764775,0.1257021957193675,0.23757673336303603,0.35603323422812383,0.4590536753197874,0.5160654074426243,0.5435495999376353,0.5706342004147582,0.5953381542393769,0.6178457716177267,0.6330200038853763,0.6456602114504578,0.6246976010524188,0.5272829652249038,0.37791152307147907,0.2742560250539162,0.24865437632654208,0.30293065546290954,0.41608106082572205,0.5505993737770737,0.6679332398946086,0.750895753982663,0.807869397966722,0.8541616504312652,0.8963159167328648,0.9313609470460356,0.9538162555416293,0.9648557467255297,0.9682887239455656,0.9661395356850353,0.9588796942568117,0.9440016187535218,0.9140837341121509,0.8486388936511812,0.7262453135926483,0.5935494578981388,0.5322518883473403,0.531525629096894,0.5278516008004687,0.47661106823131677,0.3566661979755039,0.2147497321943221,0.162168425838527,0.23776560946347075,0.3441452110160967,0.3692834060821538,0.3125531110682739,0.20317552445061265,0.06194728469115574,-0.07154890121912379,-0.18563686191901507,-0.32116010146110346,-0.479162030484953,-0.5407551421266898,-0.5732778997380382,-0.6289266421281801,-0.6930012898860451,-0.737810808077993,-0.750228256902709,-0.7171519973227941,-0.6580169841019798,-0.639028916073061,-0.6919844687600796,-0.7801034279182448,-0.8677329989852778,-0.9275293724069009,-0.9477781450418267,-0.9270882023775181,-0.8362467513610757,-0.4573503180961906,0.5351400537091912,0.9031330903310457,0.9690771983763675,0.9820300764034934,0.979075944807153,0.9619927378873528,0.9091051147012534,0.7117398425723769,0.12015109936332015,-0.43557092236969175,-0.6574457295033611,-0.7399359194270112,-0.767405176931246,-0.763354602581526,-0.740630092988015,-0.6659455625249403,-0.5190330774431274,-0.3748562385378799,-0.2003241749153595,0.078277031879678,0.45436643132999777,0.7729925264245525,0.9184910490623464,0.9445106480811037,0.9143817863355074,0.8587987158675159,0.7953441556320682,0.7373873800704788,0.6899723768265627,0.6576433155097196,0.3352763911550437,-0.07006106294148548,-0.15406883953875553,-0.23248074117230388,-0.3606276375016506,-0.5264116663643525,-0.6619555417016042,-0.75380999758836,-0.8257839285946275,-0.8879822581369534,-0.9359041714023666,-0.9667116587294099,-0.9822277969757464,-0.9876824168922742,-0.9869889645119109,-0.9820408953062897,-0.9725264432515781,-0.9568068604394817,-0.9290886041441894,-0.8697902131392234,-0.7112040032518921,-0.16271086195854073,0.709751581236762,0.9332372454878801,0.9713626342629927,0.9760956256757418,0.9662930231217186,0.9450052650484309,0.9128948347177661,0.8705416331151767,0.8212653564950521,0.761980892009139,0.6696419562533704,0.5462358988418815,0.4146587816839822,0.272514825624146,0.1197858054342772,-0.039019027345384115,-0.1904767586404455,-0.27970834005323836,-0.264210696162338,-0.15982018931663938,0.03813758113642771,0.3608732142490347,0.7127026575808011,0.9039573956502666,0.9669412243576057,0.9855745619014525,0.9909540272699706,0.9916748367897182,0.9900125622097973,0.9868907051377346,0.9833856333647384,0.9812729159303897,0.981257547435103,0.983435778531791,0.9851858325356363,0.9814043106403892,0.9651398948996717,0.9242635352779276,0.8115018667644833,0.30605660883781016,-0.7075483829361162,-0.9197293393037538,-0.9434391107197111,-0.9313038684658135,-0.9019729444587263,-0.8536142143822734,-0.7812212841094824,-0.6775770086344711,-0.5341377840397743,-0.3371769777583754,-0.09550118576541106,0.14884831815629113,0.3406185202376895,0.4490823539058933,0.455105712725604,0.33407366516919285,0.04871505385193619,-0.3226314389685844,-0.581678707699622,-0.6838314630804913,-0.6874754536909841,-0.6261026534773187,-0.5305839065175771,-0.455207923389948,-0.4647498710037383,-0.5583755989868384,-0.6707907364177385,-0.7496239325655543,-0.7803796855748515,-0.7380369645635553,-0.5965866940734782,-0.4243785662237738,-0.29885170143097,-0.1792694203617498,0.059978337333693385,0.46771603488920954,0.7597232120786368,0.8581279842986236,0.8856695746808132,0.8887696917120943,0.8771996325671656,0.8456791645856929,0.7678394917985032,0.5651449282296779,0.08911195534595945,-0.44502834943099545,-0.6831550814617058,-0.770999436134005,-0.834266328508878,-0.896382121554737,-0.9376646496466506,-0.951509222102571,-0.950284009673892,-0.9465152684269611,-0.947107954371391,-0.9524089765538972,-0.9599265693358902,-0.9672190550593731,-0.970972364632745,-0.9617960487442743,-0.9035193788776987,-0.6682890159175783,-0.1408936487353804,0.2838935969271822,0.4536407709819307,0.4344805665357918,0.182930143227863,-0.15356281152323278,-0.34353153372644246,-0.41449142254937027,-0.42324470161712496,-0.40168238727886607,-0.3534641851445231,-0.2721259144766055,-0.15716610144244672,-0.031078648273884853,0.07388459868306692,0.15032402315728627,0.2020685507415341,0.24489811935656605,0.2917209963604005,0.35454983687074165,0.45634886681987125,0.6051361917662146,0.7731308980799322,0.8579319265788287,0.8440657164775681,0.8003126000605293,0.7623615736867903,0.7389074035541551,0.7291385524626818,0.7247969004220007,0.7031488592455201,0.5987525446467107,0.3619992093746186,0.10000420935102972,-0.07698097979605076,-0.14179119914687885,0.004821955686263401,0.29279195516596734,0.5165143551991187,0.6165955930144427,0.6106703322433998,0.5837259011961241,0.5863875600761754,0.6433291933160328,0.7858308357103291,0.94861588450866,0.8351846044103692,0.6386015422141514,0.5247420146066429,0.4655115974304081,0.4310041179999641,0.4064460614041217,0.3919682204145661,0.34377242000522507,0.18086692586997877,0.08234370226143355,0.02204493229216148,-0.06574529693922371,-0.2319614885593504,-0.44064652782575287,-0.5164291210003246,-0.46357477867503505,-0.3415153368813381,-0.14756785595159852,0.10034288137697697,0.2505740431466824,0.22889104004008776,0.026980765325117416,-0.3026029717534034,-0.5730681450923029,-0.7094594792434792,-0.763563911668261,-0.7735022125189178,-0.7533581951686583,-0.7092873548852889,-0.6463999729232703,-0.5832223034359649,-0.5516745716360326,-0.5819764717262584,-0.6838457059958922,-0.8184420642664549,-0.9107357958740343,-0.9241446847424054,-0.8623578126962528,-0.7109001340755431,-0.4409674439301377,-0.12851075208079674,0.039741265493254796,0.09277110282456481,0.10979254587932728,0.12485378582579315,0.1549373339062643,0.2199236068636704,0.3383948480680321,0.5264792619423834,0.7307224628474108,0.8645149767671073,0.918787301378565,0.9339939515408346,0.9345542074105354,0.9320828118761286,0.9328637536970772,0.9383713319202155,0.9483658586762037,0.9618226858584549,0.9710657199060349,0.9565144534873952,0.8503620395114406,0.4298121775342257,-0.12811639048092677,-0.39634131427568753,-0.48874466378819537,-0.5012197153228074,-0.4416529150713384,-0.24253947371826937,0.24886506639080644,0.6144710572994625,0.7034344873963067,0.7212939730442801,0.7037540622202312,0.6616639841352121,0.6157520055882132,0.5726665971676151,0.5414993063943416,0.5196230866442443,0.47512361765138306,0.3632090733014003,0.14486958758015733,-0.1391645556906637,-0.3677093248454944,-0.5083201570123994,-0.585045837306976,-0.6096962653273588,-0.5817276299812637,-0.4916333303020322,-0.3323268160657601,-0.1261898758191236,0.07685200086022152,0.19353694488920914,0.186688979967205,0.15996248851726025,0.163778743201336,0.2106861693351061,0.31014093915549373,0.464528385784747,0.6071857755976687,0.6349855395162896,0.6353116016393399,0.6706201429288643,0.7295530639486403,0.7933044737620475,0.8455873288709207,0.8756177359313285,0.8701200702688157,0.7941119169813294,0.5140830290865602,0.024098282285256647,-0.21376519536741678,-0.11601159988183078,0.286003184469534,0.6645763412901824,0.7941496182099009,0.7969467200142895,0.6973129261812675,0.4092465240677469,-0.08419884079443087,-0.49948430735126065,-0.7181093032315745,-0.8232409919330791,-0.871426296253824,-0.8875774412681829,-0.8756012626945401,-0.8372823577017873,-0.7932352590624634,-0.7868640237491015,-0.8257004548854254,-0.8767001181395693,-0.9157047404621246,-0.9410165894201444,-0.9533864454944555,-0.9487729546341823,-0.9115363413451196,-0.8197253550562297,-0.6714132015633186,-0.5124056362583973,-0.39713171060041874,-0.35973646968173323,-0.42050501989988553,-0.5633135040626486,-0.7287001543228799,-0.8129814280857458,-0.7573827999140856,-0.5098702939897408,-0.08840453280324093,0.2553960666396859,0.4316289623824695,0.5258828023748353,0.6116319150180511,0.7137030765976746,0.5818597386878137,0.40099797277788946,0.31532933124574486,0.2579891737723665,0.19712439139635582,0.12311074790919657,0.023567334802095868,-0.10334836177144005,-0.27549590015941794,-0.3593553373718136,-0.22568595008612669,-0.1589179923791081,-0.1284204093696432,-0.09679763520023354,-0.046948526531055725,0.033547803358444636,0.16825721155185405,0.4118600089992644,0.7794428837493277,0.6452669299574892,0.3308166223404775,0.09835891512786854,-0.15625836381794606,-0.44463807690775686,-0.6641019954638004,-0.7788619328309917,-0.8236891116113638,-0.8385919231788989,-0.8556975143032055,-0.893270415469147,-0.9399943576124804,-0.9745282150245517,-0.9893353225891992,-0.9926941595399207,-0.9913985669958352,-0.9878534064328605,-0.9817473887602567,-0.9705180829165448,-0.9454556126233539,-0.8611381841359833,-0.13200538742581625,0.9235792654195514,0.9883758255559932,0.9948520332863939,0.9957459508202766,0.9959396856368727,0.9960933686488941,0.9960879148334686,0.9957685846046244,0.995119901723493,0.9943513854876068,0.9936769101031667,0.9922374693050012,0.9869870604399279,0.9733984085449024,0.9387828754726671,0.7055627036880464,-0.8456021881472509,-0.9748368902988922,-0.989603069917601,-0.9950637569001475,-0.994865643479676,-0.9853491339477155,-0.9649252400374076,-0.9369283426186029,-0.9078945108385762,-0.8835673176395308,-0.8753915938027008,-0.888304456983795,-0.9021359371503207,-0.8933652556507312,-0.8704988844210434,-0.8483692866199148,-0.8302244950767597,-0.8143530828770673,-0.7964447220023041,-0.7681819582681306,-0.7144179116577911,-0.6288196344912027,-0.5379275268638113,-0.5240736390891381,-0.6231596211421072,-0.7711912415139454,-0.8849389227027067,-0.9486526397973383,-0.9749767355478756,-0.9743860465041695,-0.9376390491851365,-0.8082515935934054,-0.5257686811973881,-0.2899521820407172,-0.20618709416303085,-0.1928896745188699,-0.17460398438941394,-0.1223113056036116,-0.06417605476629376,-0.08289620369188996,-0.26555496309030385,-0.5297303311311763,-0.654592818905523,-0.704670122469885,-0.7657569594749475,-0.8556096996944198,-0.9194693386594638,-0.9153239366015897,-0.8988423197604435,-0.9027645147637561,-0.925741683752986,-0.9439887149381727,-0.9329202797728569,-0.9083466415288679,-0.8865300917220437,-0.8657751152780154,-0.8330512568881432,-0.7703396785126858,-0.6638817005690929,-0.528882119094977,-0.40322007993005504,-0.3102151936871935,-0.24339157616213963,-0.18416283620053941,-0.10706073990824409,-0.011305598980904342,0.08985848124757255,0.1808768467579181,0.25731681470424206,0.33321819560652877,0.43019820317112656,0.5336573636222011,0.6391405876919356,0.7414617828704059,0.8122567723296404,0.8364497231095305,0.8356508860853018,0.8171026281540025,0.7713678672482727,0.6952913729171586,0.6058039873861205,0.5316142855854243,0.4887916896998958,0.4714599505994968,0.46983382501595466,0.4762039784419821,0.4865470955551411,0.49784709279297273,0.5100235050090967,0.5281724021329528,0.5570058828263564,0.5955220646070039,0.6432102645940961,0.6995626256515246,0.7703983544197073,0.8603297158767718,0.9358812472573982,0.9557391868348352,0.9358781542318974,0.9053089929878982,0.8763523494172973,0.8495405429598851,0.8278008690729101,0.8173250388853464,0.8269996514928677,0.8536391783819404,0.8567033359299471,0.8325131139102843,0.7948710893068223,0.7436628518314434,0.6679933059353383,0.5644521306742581,0.4140687573871548,0.1694165720988023,-0.17749117222885266,-0.4972259191157741,-0.7024112938180261,-0.8187882500616686,-0.8833311587446355,-0.9139958934839327,-0.9170127525465002,-0.8983126540926326,-0.8675928954470414,-0.8203268795430727,-0.7516930501690015,-0.6712229421580135,-0.5927821595558757,-0.5282292999676513,-0.4666661891681005,-0.3688767518562862,-0.08126154477445291,0.3655464198764342,0.47340037550183894,0.50370503914425,0.5564947055287822,0.6328246357530783,0.6996126681191913,0.7306974792128854,0.712962538184132,0.6180159005113475,0.3725912993025533,-0.04894778589418025,-0.42398727980373335,-0.6310160716920545,-0.7307812687672994,-0.7766008011448622,-0.7890370634165605,-0.7813314409659182,-0.7652299207371124,-0.753646219708661,-0.7596372610686838,-0.792711417674113,-0.8101467517147292,-0.7477076165932058,-0.6711430489146558,-0.6324636499955352,-0.6212184343692806,-0.6222498108144672,-0.618930708751179,-0.597667787068259,-0.4594783813999844,0.2007784835245532,0.7476676750793507,0.839284051777443,0.8457431622133923,0.8373630329599087,0.8253006958545177,0.8127686946850987,0.7977813978063729,0.7758670261672224,0.7446899461511319,0.7006959904071702,0.6181836954742432,0.4080727821774342,-0.09759633366989803,-0.6054337677697483,-0.8088015652572843,-0.8773615001832226,-0.9013687460765613,-0.9031933659863298,-0.8611947306379919,-0.669945646644296,-0.20320510900624372,0.25405726623289354,0.47893394083350715,0.5473408573202307,0.5128175866270973,0.37860377024366915,0.15357520556608617,-0.11640899336180538,-0.37507703399386627,-0.5855541333998626,-0.7149509340517216,-0.770403003657233,-0.7902659496128454,-0.7963362687250706,-0.7979652758036269,-0.7927682464721048,-0.7703065638421424,-0.7219030704835572,-0.6496300268498775,-0.5845297764771163,-0.5730396385158774,-0.6273042841317955,-0.7197940477249716,-0.8114998504704654,-0.879389521585271,-0.9220564048570269,-0.9456485617980503,-0.9537862456803665,-0.942971222460498,-0.8897226837873995,-0.6782218172136092,-0.09869657703622405,0.3934241808348794,0.6381233421359697,0.7676211052538086,0.8424277849969015,0.8937854526779924,0.9268146935436324,0.9163850470092398,0.8087356157147817,0.5843461919799147,0.30928448752257265,0.06792307633549789,-0.11221825000382596,-0.22567188907012214,-0.26498852818230656,-0.2209992278552451,-0.03871626845184801,0.44862869262579314,0.6230226232195667,0.5782547897111218,0.5384960124375039,0.502734419964504,0.4694193172763103,0.44568978736026615,0.43917034883998646,0.4579173661563071,0.5185149120438426,0.6478274869119218,0.8253046878098095,0.8717733229308017,0.8759727673762752,0.9169696114683642,0.9486158504003152,0.9617276331155216,0.9653121947763399,0.9641047697298303,0.9584664934884238,0.9458633787375325,0.9173105661483938,0.8364277799902223,0.5186419267971802,-0.3770250510748701,-0.7487311176161864,-0.8238019736569696,-0.8738844203287135,-0.9062127434139692,-0.8745183079449578,-0.799238936450716,-0.7433867733572448,-0.7448981175433307,-0.8105681308750171,-0.9073546829328593,-0.9696482366765954,-0.9511999683029377,-0.8740857735582047,-0.7864159922830491,-0.7130213820095187,-0.6593986048809868,-0.6248435939628075,-0.6089334680229089,-0.6144682480872358,-0.6463535828066692,-0.7065183134277934,-0.7780434839552511,-0.7392963326607916,-0.3928972638140276,-0.07198882369008285,0.08212664659257789,0.14880862039918816,0.17718374527339711,0.19118372277426243,0.21702025825145543,0.290256105670329,0.40786189360633907,0.5389005795095465,0.668391680955912,0.786881508098349,0.8730772206413602,0.9136957041048966,0.9215852517999021,0.9167195725448242,0.9056152053161061,0.8733966266931925,0.7589007274692803,0.4424157677339683,0.026385660454336886,-0.2539417918962087,-0.43585557962940763,-0.5698623719612148,-0.6605999862670142,-0.7222031747159264,-0.7753210494571192,-0.8393553978642214,-0.915453141870942,-0.9764793932347198,-0.9905002452396131,-0.9669394251465359,-0.9395604250935424,-0.9191800212731983,-0.8964579967022018,-0.8597908333884304,-0.7382596300635986,-0.1519388333963166,0.6205140427382217,0.8499513958162559,0.9180872969814639,0.9426755501560071,0.9503506508256436,0.9517895079367628,0.9537208854684911,0.9594419480727011,0.9669587272503296,0.9719735764021287,0.9717789185150538,0.9646913957632127,0.947784374930909,0.9139698034271798,0.8501537130709428,0.713333498797506,0.23988102410191292,-0.611600981441215,-0.8333437061363773,-0.8868237495272014,-0.913736093035628,-0.9302692197318935,-0.9382571848432115,-0.9389319479702596,-0.9356697435975002,-0.9299848936958802,-0.9244925310080802,-0.9209284874334376,-0.9231419707289799,-0.9273196756166477,-0.9274710870857311,-0.9204423735484503,-0.9027738078696252,-0.8728806531909252,-0.830462429358317,-0.7938219872190408,-0.7460796137211065,-0.5878279304483098,-0.4318684561136806,-0.35987401676183467,-0.3390852484300659,-0.3398705079115519,-0.33982583788293835,-0.2985010439638734,-0.20410496201483436,-0.13767081959598274,-0.16210738968674396,-0.28954207196225423,-0.5071681824644101,-0.7109485949767275,-0.8124525622838645,-0.8513541210420781,-0.8745850749509444,-0.8986773241561126,-0.9260170436092324,-0.9572893410898682,-0.9806001369558681,-0.9811269265481866,-0.9601847234861475,-0.9254795981927634,-0.8767129648773935,-0.8244150906878761,-0.7903166419080363,-0.7760007026913464,-0.7657918161753527,-0.732136370329949,-0.6294143198477959,-0.35899470084079943,0.14248133007127506,0.5614086638809717,0.7687032485608403,0.8672351853629504,0.9170671433812398,0.9420973445695632,0.952638736097704,0.9523916415986212,0.9396437491088742,0.9031126810316669,0.8153881330889695,0.6273832188397477,0.41175701103676754,0.44532351378961926,0.6655670248290895,0.8387808129584979,0.9197240344157539,0.9362685351380531,0.9111499332235862,0.8528831555016247,0.7733602006583058,0.6877097923933497,0.584068679111661,0.43949414789785085,0.30135861408726133,0.2206944368611804,0.16005092141537824,0.04571275702951662,-0.1609417224326286,-0.3056911498896049,-0.36330742053713416,-0.3842684883889088,-0.373855916545995,-0.1984797752572762,0.40119904405037266,0.44776290780741473,0.3676516041278309,0.2143195584037439,0.0287351124148108,-0.12012789642962271,-0.1872294561109921,-0.1556341219030694,-0.03398967265356693,0.11430429332905845,0.25424187559107236,0.3533601592136044,0.37040094695771586,0.3629402387411608,0.3630586382031541,0.3681108123776344,0.37549658445845135,0.38567894892947524,0.39208846071449943,0.3911357311910585,0.3831182826229145,0.3523876548024883,0.2838255918122021,0.15386581236360794,-0.057780728159135486,-0.31662142412788263,-0.5289250009084647,-0.6507025094193271,-0.7120766600707621,-0.7536363346276435,-0.8009347155691842,-0.8538731916762268,-0.896287020040532,-0.9091852203717433,-0.8881413846910948,-0.8590682068417497,-0.8430416478689179,-0.8443739096119219,-0.8546261412374991,-0.8576140112568557,-0.8381736337151809,-0.7807121589394058,-0.6646763957152616,-0.5015500533380919,-0.3592385488726226,-0.28099080514936986,-0.26710581493481317,-0.32557866612960545,-0.46694670174054576,-0.629617295116143,-0.7410995985913231,-0.799418581000512,-0.8273129179414022,-0.8330590084951192,-0.7978980667947225,-0.4990781127105308,0.7921039675505488,0.9647423452029996,0.9844180063606645,0.9897625468583292,0.9896527458416086,0.9827729059237837,0.9529702167722296,0.7900412669833203,-0.06607745185897114,-0.7210345782783947,-0.8620515003736192,-0.8780643678945923,-0.7259842140412257,0.33940110222849246,0.8773211475210041,0.9516241719779925,0.9730469865249802,0.9834874452456318,0.9897190038611853,0.9932412421670377,0.9938471048612117,0.9917076211381489,0.9869724923218419,0.9732352823124508,0.9320489707622581,0.8872662457270369,0.862556764354473,0.8467788337521847,0.8274688572922773,0.8045361926445702,0.7762206574733067,0.7488689874439057,0.7144990491202853,0.6535793061950235,0.5264963614313214,0.26723719485715425,-0.12644622126523697,-0.4716985529244342,-0.6674770216845152,-0.7661072753324558,-0.8218212422568,-0.8609363969706544,-0.889567117259426,-0.9091561288361747,-0.9225606777822012,-0.9346771639412261,-0.9443857619230432,-0.9491732423365418,-0.949177082822457,-0.9507646918096258,-0.9616072293952118,-0.9820845023022633,-0.983980618915358,-0.8954862985255667,-0.714726559984749,-0.5718167336176584,-0.5390741323466852,-0.6454332141972883,-0.8534973792647107,-0.9686832645466896,-0.9598826155971927,-0.9259968274386333,-0.894412610041104,-0.8612178350217621,-0.8194305211058365,-0.7635128737531279,-0.703393175252623,-0.655311834023168,-0.6329762955046522,-0.6258108147635251,-0.6129676418249133,-0.5829563151088526,-0.5361694620060455,-0.4872897143590473,-0.4479726127780206,-0.4153405648777962,-0.3737101630883172,-0.28616544649717873,-0.08144168558718616,0.31004087511392703,0.6589416366000654,0.7946264418378898,0.8212263280186713,0.7870544071263115,0.7135976577488556,0.6524053413554787,0.6489564968867507,0.7046444399971203,0.7685136217326449,0.7950623588604921,0.7801930492311243,0.7419881486235034,0.7004713384109206,0.6629230491130943,0.6266371539178286,0.5849836232974847,0.5328266988013977,0.4704868122917866,0.39545065055843137,0.3094169169661128,0.22142142240908838,0.14045669603027738,0.07887134485707406,0.04260034521422938,0.044945695603913434,0.12342523459959921,0.2991754729207305,0.25110208203795525,0.1900292275810138,0.16665209411281415,0.18016465989773073,0.22217565197055608,0.26840662199443793,0.2955605908964142,0.2876239040930754,0.25521106749337136,0.20411244970533907,0.14158149118448854,0.06580584341350033,-0.019171822690018266,-0.10913650070756738,-0.19719727825633582,-0.2674939188866051,-0.28401132543762303,-0.22234978955155663,-0.07185759834702284,0.12356897053983235,0.29365621567424743,0.41011805321732336,0.48156602571873863,0.5345780251906508,0.56431525205331,0.5268122340974113,0.46016329416878693,0.459174381367196,0.5313491516645105,0.6266325546898672,0.6925869692876445,0.6856385479380382,0.5990661152099716,0.4541847004409933,0.2518493056867363,-0.005289353284770505,-0.26982118784203213,-0.47640090441278543,-0.5987485542994618,-0.6548242998153774,-0.66580646013723,-0.6481382687485467,-0.6221359697928962,-0.6243304456899462,-0.6762007157390578,-0.7513641161991576,-0.8101513253567153,-0.8420600815053413,-0.8469966933490748,-0.8132957868134738,-0.7067755928326844,-0.5093014019287142,-0.3293417695361668,-0.32472968050906814,-0.5919837157198773,-0.9245029642424774,-0.9220382677469086,-0.8186957741733497,-0.6892759651398543,-0.46594026977565234,0.054701733121639916,0.6889237464536574,0.8986735675098073,0.9384804414802901,0.9389529804407675,0.9276872129625944,0.9143096888101134,0.9038094077819034,0.8985193291049707,0.8963281265553397,0.8894846490739975,0.8573772083944546,0.7335119141732634,0.3350678582516704,-0.23882813689966076,-0.4833475333226029,-0.4630705677914892,-0.33257723256853067,-0.22211406416433618,-0.17681630767042494,-0.2039813344590444,-0.31057253445704724,-0.4774723338151108,-0.566314299449918,-0.4142993562237953,-0.06388720442082743,0.27046998256324156,0.40909299717758385,0.36254805821589287,0.15772408960198353,-0.19130897657411305,-0.5608603144417674,-0.7824410881266819,-0.8726334772392592,-0.894398409612165,-0.8830873244099818,-0.8531561800938169,-0.8171340962173842,-0.7979414687486901,-0.8073717915540584,-0.8358654729677396,-0.8611531696611755,-0.8813385601304192,-0.9064435753847516,-0.9379120090307249,-0.9564778404320914,-0.9506765061290764,-0.9305839064738873,-0.9119882546900244,-0.9001125021228528,-0.8944983368691298,-0.86609659001777,-0.8063187029383938,-0.7501960738243413,-0.7134551140894312,-0.6986635916003237,-0.706144827586742,-0.7290512736357923,-0.7561950145347758,-0.7789861191403791,-0.8081756527796831,-0.8486018620929051,-0.8900217274715211,-0.920825494074308,-0.9335416701374201,-0.8981497297304708,-0.38718239329442217,0.8043693895275588,0.9375968975331564,0.9654540046054971,0.9702177226205588,0.947908486881997,0.8506990040055651,0.6192720160190304,0.37242549143613407,0.30133085838238055,0.4103740840438255,0.5759967640768318,0.6803293896170863,0.6740907225420169,0.5230486081506297,0.26568008757298245,0.30688156428612634,0.5165335975338091,0.5668598982924494,0.6007270775568981,0.63220942495184,0.661039781371896,0.68521097303817,0.7136999311410921,0.7514317624643199,0.7707471880869055,0.5253004419539399,0.2120180511644874,0.2104801571602287,0.4348033964506813,0.755502871969097,0.9356558433626404,0.9420812287627077,0.8400166000232359,0.6372059779642396,0.3257622087644925,0.07259397132265509,0.04598035354717377,0.1363026005495527,0.212365182246197,0.2421687253348864,0.239196069203935,0.21238023537476647,0.17016333024306293,0.13916617806593426,0.253814482380936,0.05950414654063433,0.04678903880863479,0.05587564661120413,0.07565601302693749,0.09981210829918676,0.12024113540174751,0.12940719040400134,0.11207496054192699,0.07317028071845662,0.0443607999685717,0.0011030115811397503,-0.05085715422456167,-0.08168043432692065,-0.096633883734022,-0.08955788846111318,-0.030062583403689686,0.10991702497885567,0.30035168689530634,0.4590176547372463,0.5372476436619568,0.529251129569411,0.4495664659502561,0.3077873423134212,0.13271780744526523,-0.0016885513984381633,-0.05783448996697389,-0.037937007079580934,0.057530688608069376,0.21795809757677276,0.39910190363768433,0.5299096664008982,0.5927662889579473,0.6190030362760094,0.6295139060115079,0.6182231163210796,0.5670540079023167,0.4749854496885935,0.34889896141270965,0.1731965168729818,-0.1113509102888891,-0.45108605237219024,-0.5160980113133351,-0.4582696036011523,-0.4036863738709216,-0.3676140432795885,-0.33682057813943084,-0.2997251874971961,-0.23841279177906533,-0.1213523558019857,0.05499731306069844,0.14866592114088484,-0.022690107442188717,-0.2509220156556789,-0.4213336454845533,-0.5410173880324772,-0.6394316680852884,-0.7505237655576049,-0.8635061956694734,-0.8979410010801531,-0.8480056599396959,-0.7720891466246281,-0.6772812401597487,-0.5052346446458009,-0.12165297746607474,0.4409981102735949,0.7534747173722127,0.8573212929358058,0.89559348274447,0.9142900378942237,0.9231018129719846,0.923378742793083,0.9140865601496432,0.8919800010613904,0.8453789196203667,0.7521244557643914,0.5999814201654232,0.4305085826294307,0.34075304492313074,0.4510779014932193,0.7143571731957997,0.8571535056292743,0.8988129928168835,0.9060623662094489,0.8892071963315931,0.8135450279335729,0.4018994182106957,-0.6462280159538356,-0.9095199963488277,-0.956937821550025,-0.9715447403408116,-0.9776287030729299,-0.9789001879472999,-0.9761383003996167,-0.9680206442103302,-0.9555401602812222,-0.9426331352419907,-0.9375250172522802,-0.9479269142898455,-0.9696282101512804,-0.9823720592814171,-0.9817744016251979,-0.9778069701507305,-0.9750489909164112,-0.9737273141571813,-0.9730814825118329,-0.9729131186959353,-0.97155422988676,-0.9674269758707806,-0.9597781083123984,-0.9447534437766862,-0.9119944904016815,-0.8168252426029484,-0.43069937137813585,0.4981644019937754,0.8751928088027231,0.9542639262558191,0.9757243408444247,0.9838031530340589,0.988530106635416,0.9913982047404444,0.9924086234029552,0.991938881645613,0.9920086882917615,0.9935311892525582,0.9956174677522732,0.9952193786579746,0.9829952936725617,0.9097492676181443,0.38319612291201793,-0.6386480336602828,-0.8660433207698651,-0.8820907484287196,-0.826961393833632,-0.7408536232711092,-0.6641169078311399,-0.6200425819135335,-0.5996618367770783,-0.5918718693442867,-0.5809969445995739,-0.4697194262152918,0.13551890890296625,0.5059161069853935,0.6223784126849226,0.6869315908736956,0.7362270731566759,0.779626512737637,0.8199046835528327,0.8547291904068662,0.869494261992807,0.73196387359018,0.2011701082196788,-0.15967062808372673,-0.2758033526847709,-0.2890229555091472,-0.23200196593026795,-0.027268854502244113,0.5525725292631634,0.8658670216311628,0.8225075653021686,0.7697219501758089,0.7175844205755199,0.6453911425756018,0.5281111617100287,0.33160711359236045,0.049485836241135304,-0.2412084600117845,-0.4583266496882558,-0.5958949894930153,-0.6921356975961815,-0.7738505973577812,-0.8450148394785033,-0.8929365104292235,-0.9144207861180148,-0.9136802387950052,-0.9045246857333705,-0.9006069413751219,-0.9039756289323937,-0.9089305901216074,-0.9095487040102763,-0.8973253826466796,-0.8639421258591911,-0.806735144215571,-0.7248609483333079,-0.6187653584923049,-0.46307522903567333,-0.1943756580452928,0.12479477477453117,0.3410953383562527,0.47855326046320157,0.5950756257639925,0.7080124692328097,0.8053554672484026,0.8747434283328474,0.9144320576104192,0.9307953501056166,0.9272557290552409,0.8990405155475942,0.8250632724021775,0.6569123423754092,0.31676573458553936,-0.13990176144442967,-0.47713985873217235,-0.6472490575338935,-0.7276689913216312,-0.7818347509328011,-0.8330557818041819,-0.8747936928339232,-0.8968910938259046,-0.8909895758114615,-0.8156930775298027,-0.5126729891150884,0.054266178731561886,0.3604689586187397,0.4654043549441577,0.5446910653529614,0.6511232620565427,0.7484034656717806,0.8143103304654502,0.8561741251010939,0.8851018222685935,0.8755122129531181,0.6299349118491292,-0.19088284473948644,-0.5908399906884844,-0.6853028675598588,-0.6933391423895324,-0.678522214719376,-0.672962914400625,-0.6618544698910588,-0.6037895016142363,-0.32358412515546725,0.48101668897809396,0.7884029098586224,0.8387791943459899,0.8545796235416249,0.8642060906026398,0.8731656803295965,0.885363309016444,0.8993314398166362,0.9128257455066673,0.9242449896363311,0.933103615177915,0.9357573205005719,0.9282202534957635,0.9075558352533313,0.8728939237689226,0.8205125062066445,0.7471077055033754,0.6368204407803415,0.44747654591053365,0.23052214201506607,0.136739789436211,0.1260684742102287,0.0914436078411893,-0.05257943298809655,-0.34099864967144833,-0.6605987535444675,-0.8443205649945668,-0.9172078231893345,-0.9359807461290296,-0.9291699041517257,-0.9172729840805521,-0.9126915613505248,-0.9170757752491988,-0.9242777865465026,-0.9252040416599959,-0.9094376848650366,-0.8660878635116515,-0.8048939754225742,-0.7540082611175842,-0.7310855447589909,-0.7345726797898048,-0.7567398479405357,-0.7864190668140919,-0.8106112348071342,-0.8180005669090726,-0.7961208924616671,-0.73767392388192,-0.6403377504153216,-0.4910878992295418,-0.2640044884810217,0.05947072695188935,0.39377877463502736,0.61906521691623,0.7183419609161116,0.7450411238872183,0.7199464117060883,0.6266846790569369,0.47266785063325195,0.37479449834658085,0.4321790580385718,0.5701469700377176,0.6604410943798549,0.6926908709834902,0.7007435791731789,0.6886514125840378,0.6448112528929406,0.5420215140124583,0.3296135522559123,-0.07629722189312121,-0.5725161341227214,-0.7389472879712792,-0.564445796156205,-0.1322446281510448,0.22529720599850936,0.4250930984981087,0.5485808430782103,0.6438680639320892,0.7266903217870212,0.8084786754779447,0.8864690824221194,0.9364234775110774,0.9064048091291906,0.8044508351067705,0.7134125952356074,0.6695252502765101,0.6655364106830675,0.6688132509324223,0.6494988418278862,0.6257587130545973,0.6262745701583905,0.6527091326190276,0.6957225862556171,0.7399481144893372,0.7634123002434154,0.7352104781955141,0.610007992237209,0.3698419123919312,0.11421736099128268,-0.054582027028537455,-0.1543451618245512,-0.22443030254983953,-0.28294366066935567,-0.3357749557624221,-0.378088750404833,-0.4073752374982524,-0.4240874532763591,-0.43815055086988414,-0.4707059003697623,-0.5397786166738499,-0.6426030565789029,-0.7374999418453846,-0.763055659875325,-0.7202242451337454,-0.6792028116232056,-0.6644806232309015,-0.6695708319027619,-0.6840247092470093,-0.7003557680271592,-0.7143387822267735,-0.7228059116966183,-0.7264341822314793,-0.7257085701516668,-0.7217212010821574,-0.7136332343283978,-0.6995646039400921,-0.6721097619952972,-0.6217537718678701,-0.5435565490240876,-0.43589742123441666,-0.306630635301819,-0.16544734134638306,-0.00884533644195323,0.19789714659052415,0.4675563040760092,0.7143905203614548,0.8516807719128417,0.9093738854149722,0.9382057756578835,0.9564854167690388,0.9664691772893703,0.9692638263131559,0.9660094143665314,0.9592003929277109,0.9514820027111345,0.9457937436404448,0.9450993066581561,0.9504159761191865,0.9580667983881838,0.9654897980545433,0.9714608478351042,0.9728120832631008,0.9583588777777461,0.8905420987377797,0.7025082427520852,0.3981209622819797,0.06405587864411989,-0.25968412102914396,-0.5507104933663785,-0.742541967545939,-0.7476544947398136,-0.30052990975962507,0.4948749151390902,0.7438951794860774,0.790404669888825,0.7789739548502951,0.7228222140134889,0.5887260128529505,0.285213946505221,-0.2422523238935743,-0.6932562710786763,-0.8821795858435894,-0.9234927619116127,-0.9102524346535615,-0.8929906171050068,-0.8908770452587995,-0.9043155856227558,-0.924979792916289,-0.9399699262189629,-0.9444833743915545,-0.9350939876503456,-0.9094454878127876,-0.8780403400294275,-0.8621317389072604,-0.8731386803279332,-0.8995680001657225,-0.9227016894440505,-0.9298094612092561,-0.9174894249002409,-0.8811285717866139,-0.8245457485312898,-0.7685136235132031,-0.7370630224658117,-0.7211712801881124,-0.6511838230140233,-0.562646481184497,-0.5550704914511012,-0.6309483112868786,-0.7476734572566021,-0.8384538921973029,-0.874756280151786,-0.8809349155861205,-0.8739295140008715,-0.860110950367905,-0.8394347135053296,-0.806043242076385,-0.7511726504605518,-0.677607768043295,-0.5962273156340383,-0.5218603017768694,-0.44475375846877935,-0.3416889317153789,-0.17682908606690792,0.11032586535109931,0.42416644240911777,0.6264273232280957,0.7537795188895008,0.8428195861670063,0.9007050396019638,0.9318217436495232,0.9503726409695736,0.9636580659774013,0.9646812414612606,0.9486041622810213,0.9215055052537109,0.8939972868963559,0.8754163015899881,0.8728736536301877,0.8913001290886968,0.924646126741944,0.9533040023907391,0.962462117265953,0.955103985492493,0.9366168507761291,0.9119943746880091,0.8922366396905345,0.8763191030339035,0.8523775651956087,0.8039577189670005,0.7278087412455677,0.6626133194701747,0.6313290195841049,0.5985735879594235,0.5444572047910677,0.5082936773553668,0.5033124063169189,0.5189351082826098,0.5368427093920707,0.5251744698791442,0.4501419206466816,0.30243370902961125,0.06995530045041615,-0.24276158997769628,-0.5216606937658849,-0.656710625010499,-0.6430797523432928,-0.5038341310865734,-0.27361832074388576,-0.04600946410859088,0.0817378658300693,0.09019615033987424,0.03455733762397462,-0.0340858715273533,-0.09280436275544231,-0.13629273265240296,-0.17036001795417216,-0.2047911870626547,-0.24808573495189287,-0.3160806911907057,-0.3915957788609571,-0.45329739860935725,-0.5046417778257535,-0.5534640819078525,-0.6101262767682162,-0.6928899213281113,-0.7913781537088824,-0.8522250851234902,-0.866570459328725,-0.8575356769651612,-0.8428504052486566,-0.8304608019494487,-0.8213721361475426,-0.809961983874977,-0.7813452247809163,-0.7085080966259546,-0.5354154910276727,-0.2674643359849267,-0.00770515786100616,0.20034702843466198,0.4010526654154536,0.6197215756118799,0.8096550107914224,0.9237016346571894,0.9753045056952346,0.9858864321157736,0.963249779351737,0.9089135654428039,0.8191531643188659,0.6771535171430817,0.44708915812847333,0.14341640185012594,-0.08245350896210311,-0.14745021825449914,-0.12245451731739991,-0.08019446158697957,-0.05378237573238538,-0.058174105335209725,-0.10433940988075395,-0.21340318027402025,-0.3749789589958048,-0.5202661546112624,-0.5774097634625187,-0.42933243402717447,0.17284425751264063,0.7049238341869487,0.8641133471631632,0.9149302224484568,0.9451202690423638,0.9705689540793956,0.9844720972340278,0.9756831215485936,0.9268725753858545,0.8008620675867992,0.5205518864217645,-0.09325061999543663,-0.8633874217970181,-0.8387768610568539,-0.6394540392584679,-0.48694770889037814,-0.3780390697367792,-0.29226096844693156,-0.2025176170267717,-0.059589419464173524,0.19768589213326726,0.5426923859206908,0.7776830137954053,0.8388596580721351,0.6881684509787501,0.04871263522557999,-0.5227774346678796,-0.7661423720716545,-0.8919221904911449,-0.9301492153584512,-0.8810414685202973,-0.6504180051519212,0.16466628805731068,0.7644543435092837,0.9011671606816086,0.9358468120758608,0.9381828444745526,0.9111985815173661,0.8268171874053282,0.6286883128413994,0.31915975233312965,-0.01663719484395962,-0.3658564402708218,-0.7051349654997494,-0.8891919889697409,-0.9298247706668982,-0.9286970267072155,-0.9254501501369816,-0.9267769632303405,-0.9305785504171119,-0.9335535499498008,-0.9320791039794689,-0.916416807079423,-0.8725577026308137,-0.7994224402802146,-0.7247077872658201,-0.6861925301713521,-0.6978896636006728,-0.7550405249183364,-0.8338821397450348,-0.9008586843936236,-0.9384014764000971,-0.9497437188192617,-0.9427914023737437,-0.9245691391385829,-0.9000708310636081,-0.8673213829117349,-0.8068706602457956,-0.6952773806453293,-0.5263630067813101,-0.321313824155871,-0.14267966540874297,-0.030284033272574715,0.027310050829310976,0.08303945585636549,0.2004961009743835,0.4215166509539189,0.6794339215250045,0.8546741333692706,0.9379552497455816,0.9723232702636032,0.9841776294178275,0.9833405290897368,0.9733434095597706,0.9562974346216754,0.934382056281235,0.910981765883023,0.8932782505091013,0.8918939929166237,0.9032891216637855,0.8843134130712728,0.7929454495149234,0.6662971931710968,0.566591799551946,0.5157796087443398,0.505759152045085,0.5030215088219109,0.45764164144934916,0.3323462175217309,0.14543175752313123,-0.04118083143780819,-0.18252774338259306,-0.2902893606689582,-0.4050301064544275,-0.5528516177638735,-0.7224994083870399,-0.8698772456288842,-0.9518708400739752,-0.9636467325838571,-0.9352213526687363,-0.8971410429005955,-0.8670527784042652,-0.8534921546816044,-0.8534129681991148,-0.8555336186669055,-0.8451346212591403,-0.8077386152039836,-0.7333108361483123,-0.6300846365011274,-0.5143999535929848,-0.3903810038650334,-0.25695496584509564,-0.14249257424691467,-0.08682227541195797,-0.09451101018849394,-0.13109946439709544,-0.12194542483333444,-0.06233261673816609,-0.07998562773859,-0.19313816183442936,-0.4076995604116118,-0.6472020286716219,-0.7823546547453573,-0.8024980888570994,-0.7340082285141035,-0.5719943321276854,-0.26504459434732475,0.16953620749211262,0.4899947576872272,0.6540467799294576,0.7511706353570987,0.8296215734707536,0.8960334648074062,0.9412055557649673,0.9638019618291037,0.9715722103907897,0.97016780171571,0.9587709442062768,0.9269198967785555,0.8386869236748237,0.6391038337046598,0.3794299898674497,0.2042384134085064,0.1433905647744237,0.13070711889657155,0.0802049187138747,-0.055675248849256516,-0.24404859039395368,-0.37005796673870217,-0.37862027565637524,-0.2792751298745399,-0.1189339796553964,0.0248898477959735,0.13556261503320824,0.2737697664876699,0.4292792961765082,0.5305789123105692,0.5570052130681056,0.512840005624885,0.44067514883527237,0.38197391655343016,0.35270184151136524,0.3407119955907818,0.3224924324183295,0.26681566628557774,0.15556237161137443,0.049127416850448254,-0.010897667642751442,-0.015751322888799577,0.06284729093714173,0.306168151037514,0.4245354946351542,0.34637947736182845,0.23940717560154953,0.06979077660178121,-0.1805716726740843,-0.4129895019801009,-0.5247942567190491,-0.5262857995039125,-0.46304970663156053,-0.3407851297509055,-0.10098899119202015,0.4028621983650771,0.829455999136628,0.9013320230068628,0.9115210120808104,0.9130289099649825,0.9050454030567108,0.8907558882450689,0.8762082708267591,0.8585306944265679,0.807382487488789,0.5958180296278274,-0.15657499759742696,-0.759908760603486,-0.8948045671372101,-0.925374914128516,-0.930662349098599,-0.9267944479030656,-0.9175025899977255,-0.9008212319561512,-0.8652899281680652,-0.800460952408626,-0.7134567433874367,-0.6415522180240223,-0.6171395372213976,-0.635395691184623,-0.672387348614038,-0.7102306806740045,-0.7382910108460157,-0.745958943687626,-0.7238930075789556,-0.665831851518211,-0.5786474036845344,-0.4801156966338938,-0.3796979656121406,-0.2815939551469976,-0.19522711313140742,-0.11865607703292909,-0.020731750586555357,0.11119612415624765,0.24661321389243243,0.3594160957968319,0.43128408532800894,0.4489140688809424,0.4092507913113464,0.3052688562247017,0.1617907913491189,0.05949142986454125,0.04490943502903356,0.10027777625582111,0.20755472565582958,0.3045601345938529,0.22659625583436718,0.047302053349399395,-0.10371740557849857,-0.19845170743994933,-0.24306450404890523,-0.25271243684073075,-0.24007364897494596,-0.2121193995223113,-0.17266580866730202,-0.12300319105506347,-0.049668800052515054,0.06588308912748671,0.2521797762202738,0.47570656749821094,0.6637848625403304,0.7873662015561786,0.8631744898865278,0.9076261003491353,0.9181258129727994,0.8773437724316104,0.7806127295935955,0.6930199806375825,0.7001073223664777,0.7786891831261826,0.8466587400826884,0.8797835424138415,0.8849317184919091,0.8578697981426509,0.7727618849181572,0.5907063079951319,0.3033826080526823,-0.04368646751064885,-0.320589464939201,-0.4696396303068573,-0.5624991069278551,-0.6611467674440756,-0.7717422612612513,-0.8585958999546449,-0.9009547035301829,-0.9133618116719379,-0.9119624121340809,-0.903715813891871,-0.8911571527336856,-0.8797476920698957,-0.8763011292246347,-0.8788830201994479,-0.8769290256596751,-0.867563566244357,-0.8580621581016434,-0.858448151338418,-0.872902491621711,-0.8966204964519139,-0.906416804826567,-0.8674360480567678,-0.7294985298146105,-0.46562291917832205,-0.18819645621193906,0.009935615497568098,0.15633846830941472,0.2965188873271603,0.4599926714306301,0.6458718762452911,0.8132793372917989,0.918859875327477,0.9638553226201477,0.97202383542536,0.9645498458789716,0.9542552793023003,0.9460119668701099,0.9393971338419339,0.9327280141061084,0.9218419154224363,0.8969102562878969,0.8302461774227617,0.5985519056393983,-0.1440576933845729,-0.7031320703434932,-0.8317597089838761,-0.8449023956298128,-0.8144436502271292,-0.7700536947034868,-0.7403434481164177,-0.747083271574839,-0.7847628551831339,-0.8178984549238488,-0.8015231402306778,-0.723123049575751,-0.609115510304168,-0.46539195533710853,-0.24286285167729446,0.10902929069765133,0.44889256328659055,0.6121065556707198,0.6472951889753704,0.6387577166685718,0.6570084301470839,0.7241381581945794,0.8023869738624185,0.8546538406977743,0.882576345262907,0.8886573408133224,0.8594910684204515,0.669354568853,-0.048803429234327025,-0.560073655960531,-0.7039670721578426,-0.7142414954308478,-0.5860920595087006,-0.2792523045594824,0.018476786689261785,0.019400875580726253,-0.4188753340779318,-0.8262423259948383,-0.9284223158942971,-0.9460090144416412,-0.9450636715104709,-0.9400182961695631,-0.9349942383253346,-0.9312376376098773,-0.9327383180375834,-0.9433457368347551,-0.9616940149185197,-0.9797805265124865,-0.9859413074587873,-0.9449128837815918,-0.47709285218246744,0.5618317308197369,0.7987469796723895,0.8540279605672826,0.8672951884427309,0.8632067434828781,0.8523335270577369,0.8351938388733023,0.8071608794062209,0.7432151746799995,0.5768695600179283,0.23116176557216586,-0.07956434590530902,-0.20688416932905723,-0.21647180721462966
