0.8744221377054385,0.8737395170694024,0.7756533719069122,0.6690098570714876,0.5931386981857437,0.5457124946339132,0.5240275491047734,0.5271501913966448,0.5482558366290577,0.5703325709366235,0.5746679691910097,0.5585243951568534,0.5192773849517107,0.46202625561986155,0.3963846442398053,0.32592914929616934,0.2479623393782206,0.15299910291967844,0.048096616274358905,-0.05183008623582458,-0.1326340954874708,-0.1854629034706766,-0.20634131991099952,-0.19935322785549253,-0.18570311418177002,-0.18575308459636056,-0.20822796082403092,-0.2475381816019913,-0.2882728230452254,-0.3168357394164296,-0.319620754311687,-0.28180413291281625,-0.17413799490560447,0.030112673536103883,0.23603128422801678,0.33785366601382794,0.3550150878774437,0.34870823351004243,0.37599071518475485,0.4782355988598823,0.6243178698671004,0.7216083475424332,0.7582709865805329,0.7692449942884193,0.7687690045478285,0.7579995861234412,0.7385893081857092,0.7170470045377478,0.7071030909691209,0.7094513080062804,0.6867668976763295,0.6083251513879936,0.48241927029067116,0.3202540220422,0.13076263105249342,-0.06589154679478432,-0.23584314047410662,-0.36406891843067746,-0.46301801981198965,-0.5496872719245398,-0.6354668233689406,-0.7197915083008486,-0.7876850371714115,-0.8250290713587696,-0.8261277945931101,-0.7928932738612543,-0.731768529763609,-0.6593046466054916,-0.5916550986367195,-0.5324509416136901,-0.479162396199816,-0.4287336798207184,-0.37897395273151185,-0.32078717837968607,-0.24259006576196485,-0.14684249165820945,-0.05986617682091703,-0.0011018233672436533,0.033790546014947895,0.05286117341174935,0.05919593231325474,0.051671680394969964,0.036211021258627414,0.01110352462829118,-0.025176500296051136,-0.078120045011942,-0.16118378490430055,-0.33144902688394606,-0.6307309465648714,-0.4861855361211047,-0.314907377817567,-0.22909222072541496,-0.18063143133938384,-0.14962224237919164,-0.12298877873947316,-0.0866669716330186,-0.0025164952403761644,0.30979333100658035,0.8948523652711524,0.9062431607038044,0.9342364707649929,0.9099285212408035,0.7052011051937427,0.4553380944056137,0.2780349457650267,0.16237178291111284,0.08232660070128452,0.025548797316197074,-0.014934749103150858,-0.042509493401171716,-0.06100416366540338,-0.0719585052412163,-0.08157990447336975,-0.10693301312011294,-0.17500669728090662,-0.29263512008642484,-0.3971575143865375,-0.45225022610609306,-0.48441045453136233,-0.50336216144836,-0.5070849438813866,-0.49706578828890696,-0.47708660581054424,-0.4529546542356273,-0.4331327001894482,-0.42979768894165377,-0.46413610394173727,-0.5547361365213911,-0.6296818632689796,-0.5037174984728174,-0.29112070962444253,-0.1072065351214923,0.05981038711682849,0.23032319178118138,0.4021039861514355,0.5494966913787678,0.6515945676819448,0.7112267944007417,0.7423535282804474,0.7557876947692117,0.7559205627448689,0.7418411343253531,0.7125682450510563,0.6691406817552235,0.6096542843655398,0.5311920417956568,0.4494233206361668,0.3886550081222077,0.3477340768531939,0.299776714486225,0.2029466741441566,0.015151175498415053,-0.2512646381429788,-0.4977452578815471,-0.6607265842593932,-0.7587652755512304,-0.8219429718926315,-0.8642983846170585,-0.8925657409433605,-0.9089278900004321,-0.9130100866094397,-0.9020693970952615,-0.8661387091815179,-0.7742940048824865,-0.5513331227318619,-0.1597097212148296,0.15878352470906448,0.24510443681758998,0.1709783426480177,0.03690840286874892,-0.06956553645227846,-0.09553134672651663,-0.025036708830982402,0.12081364229573685,0.2739816685484671,0.3665190433157517,0.3465041125799262,0.16256380280683155,0.009376684014141762,0.011559428571226998,0.08485433093965195,0.17843166867135274,0.2631822708015023,0.3168121320786441,0.33213286548580057,0.31537270717105936,0.28824371734192694,0.29150260951426255,0.38039926099022553,0.5676120916472721,0.7520169018887486,0.8625024287548798,0.9166372977989649,0.9438160603146003,0.9597253502062945,0.9709982719536139,0.9778266580153999,0.9595287528101007,0.8663451949593438,0.7171520974401754,0.6014373299708291,0.5286951838426106,0.4745989455844348,0.43195940626353696,0.4099715535734405,0.42606541493913935,0.49041125026044846,0.588432484755717,0.6763337819821349,0.7027802647713933,0.6434030446792531,0.43333101740322577,0.0018717507071466448,-0.4223629544939045,-0.6742871870384247,-0.8206411837747932,-0.9036355685313253,-0.9421238247064507,-0.9500515539414736,-0.9383099520186111,-0.9125249736840766,-0.8663216577663881,-0.7603437255688759,-0.5659913021545063,-0.3702834244794376,-0.2401152154779592,-0.1690275413969809,-0.13336432813666904,-0.11952536576853134,-0.12267012527712545,-0.13765712852244036,-0.1573770216721821,-0.17577226952071565,-0.19790947333906575,-0.24256905850869787,-0.3345861902092785,-0.5014225020763918,-0.6981978183256558,-0.7806405061049106,-0.7708350065629612,-0.706744567695466,-0.6187948976969867,-0.5482506058868166,-0.5238228335657894,-0.5662672694759112,-0.6928877171936487,-0.8323746935891849,-0.7580664341143684,-0.6277785395876898,-0.5612410837717046,-0.5472391677789992,-0.5700460246261925,-0.6163555390071643,-0.662112371408457,-0.6767365525612995,-0.652898534465732,-0.617810924385995,-0.5887438461655936,-0.5509911684261171,-0.4647705668849697,-0.25428482782160194,0.13152600241163848,0.5042718566189036,0.6970725926659178,0.7794613392977063,0.8173898897426767,0.8380713256465502,0.8503802238853907,0.8606901852023792,0.873487434363747,0.8871273695682359,0.8808745563112719,0.8280999597235874,0.7500533352352046,0.6949458374464831,0.6755531906542136,0.6704293970476549,0.6465592283623013,0.547617845335473,0.29099286200251645,-0.12432905409394716,-0.4917947417563196,-0.7391100949745818,-0.9106376316105531,-0.9900818849116566,-0.9528996084719848,-0.8550815043301381,-0.7606178053210506,-0.689334028867325,-0.6261247371520509,-0.5539688862059389,-0.49576874355226336,-0.494523778416206,-0.5433330177233264,-0.6140431601084964,-0.6876517537781676,-0.7501483069276913,-0.793182735898883,-0.8139328015067004,-0.804839278302452,-0.7156952473927574,-0.28257485121448583,0.3553509875688784,0.5704448635550624,0.6245012904005247,0.6417621050713745,0.654496649658425,0.6670188850741888,0.6762958733629538,0.6808782798489169,0.6773746300406843,0.6658671071122524,0.6523543692668349,0.6443491698499701,0.6363048949642682,0.6087420537927016,0.5445434353934885,0.4388349393125298,0.3221481887487183,0.26780185974621523,0.3160923538349691,0.4368409258746472,0.5637756030617329,0.6554070088000277,0.7062127966847993,0.721553208340742,0.7024885820605488,0.6490725671711667,0.5546638519946444,0.4016437582494672,0.16403900410210698,-0.13572183463476303,-0.4201868436349909,-0.6413023305398851,-0.7961293133222729,-0.8856095400352447,-0.9299135835535838,-0.9523409614645343,-0.9637654124707207,-0.9638983690985045,-0.9244982200304359,-0.5350965841272733,0.558709558815078,0.8205751001192255,0.8683379273963423,0.8397480777929516,0.6250601941645784,-0.030903848929865786,-0.431457031835106,-0.40755764230056385,-0.2256463406991442,-0.09708274545608268,-0.06592892559053949,-0.08349576230319357,-0.11267895177239695,-0.1338243453019921,-0.13159785833833434,-0.10352111253798747,-0.05923459020717124,-0.013787349307225357,0.019194868487667757,0.03881806553106422,0.04972012775541377,0.06375129146000917,0.09867685235865772,0.17825272370718187,0.34444805418184155,0.596045518377651,0.669906713267344,0.5988769034805164,0.5287225893302147,0.47876347247582773,0.4528535586885235,0.4411243755151915,0.4245011228373481,0.39017314634566536,0.34880104512681953,0.31628893263354707,0.30355268255298573,0.31613882366947077,0.35682597410654143,0.42426943711286136,0.5020209232744395,0.5663302130495174,0.6091091852671654,0.6344504406181307,0.6427353176308974,0.630782328248699,0.5943305241123022,0.5275923054171914,0.4222410390856894,0.2767127375065974,0.11225981286871436,-0.03862296219548051,-0.1568974503608993,-0.2434484368608096,-0.2927792160550575,-0.2920438325665988,-0.23236038513161222,-0.12325517363168356,0.013326440299881795,0.14791334584908544,0.25225168040234025,0.31164057376404297,0.3294370565092222,0.31216228991674966,0.27372064170784866,0.22259842183096037,0.15968072199043945,0.06915170519590123,-0.07406182289654334,-0.21283319917448812,-0.25954424159475864,-0.2757736519414202,-0.29103459088284755,-0.3115095048591524,-0.34219938943247613,-0.39410364259941144,-0.4871205003539078,-0.6364319073266345,-0.7950282020929872,-0.8651378861269602,-0.8711006217459247,-0.8820796594523596,-0.9090417425452335,-0.9369337862021889,-0.9449611910657645,-0.9046527134697191,-0.7585268758024565,-0.5745009863178308,-0.4650902281507029,-0.42044210121554504,-0.4041973207205783,-0.4002540957897032,-0.4103376038479705,-0.4446666284578938,-0.5218056394711791,-0.6562122089048845,-0.8423114135743776,-0.9245352726534821,-0.626314033044614,-0.32777769041222726,-0.18231944963972735,-0.1223675715540144,-0.10305403679683375,-0.09982845827976213,-0.09421996002144457,-0.07366418076498557,-0.0317133542351143,0.035331156319849254,0.12834724926529897,0.2541641192924974,0.4085870722115516,0.4251918693789814,0.2996816035126134,0.21012368294834488,0.15230555424799375,0.11381225243181321,0.08976350481901921,0.0786421339636707,0.07737998307367387,0.08370268592925968,0.09654644235271007,0.11695163776620371,0.1497406133914851,0.20904336449432545,0.3167226313041817,0.44937661110569316,0.44355376297690396,0.3718681873124823,0.32679833529823776,0.3010208344798216,0.27070367986543276,0.22304273413813297,0.16055719773602672,0.10348283178824352,0.07481839221456418,0.08649146519411187,0.1378291060790755,0.21392569920840437,0.28382984497784863,0.3212318357176755,0.32484002405959655,0.3048374463460832,0.27394059920367586,0.23892422658817286,0.20317415695804555,0.17014482723355429,0.14207251962079973,0.11660806844849432,0.08370122598824649,0.03285257955906069,-0.04840672293801916,-0.1513262051277072,-0.24961405196196043,-0.34411216770652797,-0.4566730377248827,-0.597728583513923,-0.7215081757140119,-0.7448168198936713,-0.6991443104615416,-0.6528016836924276,-0.6229093737597248,-0.6059901089413088,-0.5952556224829791,-0.5863135469366939,-0.5770918012398784,-0.5672237446819927,-0.5622913676537329,-0.573897821349019,-0.6136993661494538,-0.6778767528930055,-0.7353306434291944,-0.7461863876677033,-0.6893636848055291,-0.5633496724429251,-0.3851199451539184,-0.18033875502669452,0.03886028584566805,0.258406043109331,0.4349480018668436,0.5405304603016728,0.5845555514079548,0.6008525475802678,0.6159253481039038,0.63854785098985,0.6675183990342475,0.7019452431626579,0.7418619916688016,0.7826137623342986,0.8253684759931572,0.8701024122735025,0.885272861120874,0.8323478697839496,0.7520906913299471,0.707780900159407,0.7090114062548546,0.7402370253528372,0.7871541465299243,0.8297238777708363,0.8523219891187995,0.8599183105624754,0.8697742260091362,0.8867463613395504,0.9028078368422046,0.9106561293835993,0.9067238789180196,0.8877121930878102,0.8531049941223202,0.8102318988150564,0.769891302192758,0.7417428137767393,0.7291456116505589,0.7121675166475877,0.6499530750706307,0.48448536657539776,0.15215680009650473,-0.29821863464140996,-0.646609065367045,-0.8296187154269692,-0.9154869500213838,-0.9543915248411113,-0.9706398342808358,-0.9761022086299002,-0.9761669858371621,-0.9722707220759588,-0.9647308331539024,-0.955781722208941,-0.9505079170770709,-0.9540659087240606,-0.9670117507243595,-0.9814986966641138,-0.9742784165919615,-0.8672434761017671,-0.32004890568073363,0.45734799062985737,0.7425187569177495,0.8396217135753004,0.8771459151152907,0.8803425261039158,0.8568823776882851,0.8227060486910585,0.798799439855557,0.803479880975862,0.8549755712388613,0.8549401407072501,0.28675289436156665,-0.10053323726848346,-0.2824572491739597,-0.4201123237560271,-0.56098513207041,-0.7045521934956543,-0.815982254524766,-0.8827798204674321,-0.9247663091867017,-0.9524300287569442,-0.9674963009770027,-0.9716708941294975,-0.9603328655956435,-0.844648927011801,0.7600438607752047,0.9757153274654663,0.9941127884642557,0.9929253707518177,0.9680296205268089,0.8920859806433961,0.7331846150064075,0.5194421139344009,0.349043307625323,0.2737333482058206,0.2756945137612673,0.31160971295894685,0.34171995641723657,0.35776847945870965,0.3631003036078046,0.3379638771732522,0.2332327370937067,0.06504604843829032,-0.05413855436123699,-0.09282393184698001,-0.07396069000303986,-0.011031400923877024,0.07437399480122717,0.14834257229768283,0.18789034389361584,0.19013608626968997,0.1645316965182953,0.132756289458006,0.11065831477598205,0.102278087503742,0.09832096637161135,0.09126759621794804,0.07723394546566337,0.05852431265613986,0.040123296404100436,0.02631201622343175,0.016581479065597784,0.005724513204381771,-0.009729205830576244,-0.028477085168893183,-0.04956884307625503,-0.07328221887413609,-0.10753004624337871,-0.17246702241386155,-0.13312784496064292,-0.10035025773728823,-0.09705364916229653,-0.09901183514766718,-0.10241332696184687,-0.10910876583928279,-0.11830271739756723,-0.12478651512987489,-0.11806598001553074,-0.08948454658459985,-0.04870600357907473,-0.017769563000996313,-0.01346515493286779,-0.03142329307508653,-0.05632445802226396,-0.07364686324573887,-0.07973616257896993,-0.08120778268228117,-0.08614039366106895,-0.09382468869812657,-0.10332872282688317,-0.11373401730902018,-0.1249401723207866,-0.13812647926762012,-0.15173914204243977,-0.1629981783152127,-0.16924392332944546,-0.17282316472108117,-0.17747117117877362,-0.18630458746614295,-0.2009726831909348,-0.22373720127569297,-0.2593227076385779,-0.3138899867583299,-0.3952604460458283,-0.5103573811698623,-0.512092858775921,-0.20077280594287128,-0.03447130131757763,0.022073304548045864,0.0351528377243271,0.03377690571071102,0.031058868277607753,0.03288801790787973,0.039793117529562744,0.05059724657275436,0.06343933447239698,0.07757532594893936,0.09402887757508933,0.11463637863678038,0.14089763901527919,0.17119387792379526,0.20118846928631826,0.22591304226922088,0.23937750640837477,0.23222162313663933,0.19874238395644558,0.14776915077405825,0.10530026409798517,0.07777262106502668,0.059404414373865316,0.04769160677924402,0.04611415529616566,0.06002761134281054,0.09470510495352903,0.151958975763564,0.22656220702172966,0.30336342991448606,0.3613294324655438,0.38995801525778717,0.3903400597244467,0.38168477675751755,0.38944108742986094,0.42855691154397424,0.4878016054862058,0.5394622948495312,0.5568673283652177,0.5263287186678068,0.4524438961901361,0.3550202884047556,0.2532840767164646,0.1522904024714836,0.04968637382730502,-0.03067488951541574,-0.06708269068951034,-0.07630502844337934,-0.07899166232524102,-0.08803821013408866,-0.1122487714742574,-0.16358376154044485,-0.25387010365839763,-0.387722047121179,-0.542044331524872,-0.6675228848653404,-0.7403581242196065,-0.7712536789659172,-0.7762908973790913,-0.7707150293702459,-0.7652900614046156,-0.7653588717512902,-0.7709136832728263,-0.7746336533966803,-0.7663414334786551,-0.7243392375006243,-0.598173819802797,-0.3343900415558995,-0.030165051818615465,0.1830513904499261,0.3111125152828597,0.3853270693287404,0.4185717773985086,0.4177320718283604,0.39673721929863237,0.37576593265501446,0.3802169526640582,0.41394433022916716,0.45409117169621716,0.4685027872360846,0.4481930633381064,0.4048557432686038,0.3319123763387597,0.21547791331221386,0.04874004062289385,-0.14813601199518253,-0.33994705185390867,-0.5012979103193655,-0.6009384115025701,-0.47370639009549553,-0.1326991429450159,0.03534427815462339,0.08194537145993037,0.08403791620078158,0.07155442428017532,0.06254900955250475,0.06653804563190108,0.08427343414520423,0.10345970784384513,0.10610974476049927,0.08425205136446721,0.046461729808909696,0.011798641974022521,-0.001417023232197947,0.006891007646165169,0.023785541217963502,0.03418213862050577,0.03037518238241948,0.011673180091541821,-0.02144984606357471,-0.06583377130930523,-0.11368801399610266,-0.14638850787456606,-0.135414246614009,-0.05684645989571035,0.07117460161980844,0.18960810549796323,0.2549423578649582,0.2582675144054221,0.2277273026653009,0.1930459905813908,0.17282885972286047,0.16375926285780937,0.16542408618760734,0.1636166187819998,0.1371892267924055,0.06894744796035963,-0.05659235738198196,-0.19525241753622902,-0.19685012850350592,-0.09751956062847467,0.018811241171772297,0.12101023736793863,0.1932797874844898,0.22015099303599903,0.19384261330178945,0.13540993604111687,0.0751043936399459,0.036525234689238996,0.029816111629306228,0.0777956429297163,0.19710044572773397,0.3987960909971306,0.6442134570401677,0.8245909065934119,0.8910664484017207,0.8845509135287758,0.8492631947845005,0.8064995846413999,0.7623496640405213,0.7168488953180701,0.6733872773881592,0.6394778342505909,0.6195170462234013,0.6146006510258142,0.6208243092722125,0.6349513347053092,0.6490704077846515,0.6519842430157273,0.6286897628938071,0.5399415815612217,0.28013341734207203,-0.21300741785478888,-0.6091733901637324,-0.7965841108106614,-0.8871351381042284,-0.9348468787785776,-0.9600613032579826,-0.9726289582139771,-0.9787115242740239,-0.9811544223058128,-0.9802049345625109,-0.9728911986074912,-0.9379764948852227,-0.4077875811033238,0.8261687759941584,0.8920063363126978,0.7970328378020984,-0.26082124676850993,-0.8995677533458355,-0.9404396800867384,-0.9062036257111351,-0.7845573181056159,-0.5579385351953207,-0.31454546771034736,-0.1415051839238359,-0.040957383551272174,0.006521720369152868,0.02718313815247956,0.04326430743797848,0.07456723312338236,0.1322088607732529,0.21262690754077054,0.3101423629223696,0.42440183602236176,0.5495184891176931,0.6726703580679138,0.781899839968642,0.8742990112509459,0.9386787306376252,0.9313425126495747,0.7748117445396252,0.525174495971366,0.32828430751123705,0.20491916396150303,0.12725113351549341,0.07689142574067936,0.04581514981966978,0.02851607942244649,0.021626806239449244,0.0227086297626958,0.029316440409964825,0.040159067409814626,0.05640530142746777,0.08089653234647302,0.1218124782642695,0.20657536330212095,0.35310152614607526,0.4590403543620442,0.5016001670698859,0.5005469466395297,0.42630205571200636,0.2329060352587896,-0.09442296184064809,-0.4370261690440755,-0.6548758569181452,-0.75260259346362,-0.775094754470169,-0.7422136966845383,-0.6667468115948567,-0.5769645437874458,-0.5076825096640704,-0.47395719889971993,-0.44677534015734066,-0.31034320220751827,-0.11388535217452778,-0.004918600602668422,0.04031827300094721,0.044999122531055216,0.013635847958502026,-0.0636987354045283,-0.19731513949509266,-0.35095022003408277,-0.4568551028889153,-0.5060431096419842,-0.5205241526415937,-0.5175811779070374,-0.511405039679738,-0.5113993859872012,-0.5183286769327075,-0.5318022144791245,-0.55234171534465,-0.5739183656611045,-0.5843012546051551,-0.5579820828272556,-0.4735483931676723,-0.33032455787630643,-0.13162702264464332,0.10963825858033562,0.36167537605968236,0.5797292658574202,0.7348611007385849,0.8215206173997807,0.8465366331305161,0.8257428294137334,0.7784134234130846,0.7236765103730078,0.672559888209419,0.6300951182887846,0.5981297202227835,0.5707469631076115,0.543319022872065,0.512453737525132,0.4719783896026206,0.4165017933609134,0.3441221411921599,0.24560900344603984,0.1176699548217793,-0.029130565398502527,-0.1813771465087462,-0.33782175781071355,-0.4579900439186629,-0.5106605489667189,-0.5337246343815526,-0.5586798343764633,-0.5924467930292479,-0.6267695648407169,-0.6441024741379933,-0.596607011871116,-0.40140020636200824,-0.15729818509683935,-0.03389313274080307,0.0029000165528510367,0.021947945939835282,0.04586303345168168,0.07755152632339929,0.11403525797335705,0.14957194140147365,0.17902185552672395,0.20068240747279167,0.21776886994349168,0.2329303203261769,0.2451355939373792,0.2497924509240152,0.2411046136895234,0.21288785774610627,0.16480500677229856,0.1052665642588968,0.045969059268502595,-0.0061994461087191725,-0.04429079571825953,-0.05730677282754192,-0.03927433149513421,0.006108852001501332,0.07046917605647716,0.13229774418535348,0.14714613365426998,0.05470263428753029,-0.19731180382228086,-0.5307156432296642,-0.7336337776299677,-0.7784934909257833,-0.7307310642239061,-0.6275227567589482,-0.49266164311304195,-0.3537181186900336,-0.23160400963992123,-0.14251663761041564,-0.10232061415251598,-0.11088264429275116,-0.1464590343812499,-0.1816908084286257,-0.19898089780124886,-0.1956566982452735,-0.17884619409934396,-0.15171777422794647,-0.11643860341946222,-0.07629566309443432,-0.028467372736134193,0.033513167271339725,0.11770398214493535,0.2293719471951048,0.36395100496313165,0.49831065721691475,0.608026747563476,0.6851478133897362,0.7308023399115801,0.752561146340527,0.7614321753362938,0.7646687543545705,0.7604494338774174,0.7432918874872183,0.704430662901161,0.6353752646453605,0.5318568529826904,0.38684956091628825,0.20403592525446296,0.05040155436809709,0.03657349699349207,0.2338200124154128,0.5175440198057438,0.667723339641176,0.7037692022347951,0.6645296372505524,0.516126610817815,0.03907839414879806,-0.6837863537614586,-0.81723402285504,-0.7714716496697869,-0.6938737303051778,-0.6358715116730755,-0.6731768904826128,-0.8236124880734378,-0.942174411725862,-0.9817442523208568,-0.9919324681915868,-0.9942131774723292,-0.9938626321084798,-0.991768039011479,-0.9855365981969528,-0.9647475216103543,-0.9044620435344686,-0.7844320353301842,-0.6219926935371236,-0.42761138284860467,-0.17078531182903808,0.12256217842772056,0.37226835213817017,0.5493630820935539,0.6502582524120252,0.6866923081960289,0.6727549518462412,0.6211460534946835,0.5211764202902309,0.3742124315601559,0.28305030616972143,0.29649484997173914,0.3401452151581614,0.3198965690114663,0.14451182299575563,-0.17045494131295363,-0.42441495341379804,-0.528147705020279,-0.4873590862111889,-0.20573134123612694,0.4051121526673782,0.7771184349529848,0.8327421698961508,0.7649901708452359,0.5946581960236741,0.3161933800874463,0.13227637401016049,0.1070803188251277,0.1438719135243429,0.1751171399137534,0.19008190532037286,0.2005057266016041,0.2162392296116266,0.2436923590059926,0.28826574639111785,0.35014234693157564,0.4220649689650056,0.49286728106819516,0.557629762105093,0.6192093697136722,0.6828020097497287,0.750256624321463,0.8173347290497647,0.8754469278536845,0.9171516717428834,0.9340651366656729,0.9103588743032466,0.8291303860867877,0.6905277979577807,0.5141931732152784,0.2910422381273092,0.04536017010329413,-0.13622933749348362,-0.2355681486593244,-0.2866202405167209,-0.31906432169822035,-0.3485748431108401,-0.39036673472062045,-0.4562304834954396,-0.5415632378772859,-0.6295233307656545,-0.7047696542093996,-0.7530416497333982,-0.7568455370630582,-0.6539993917143608,-0.19469574711110343,0.5372881475256626,0.8059697983488678,0.8756040472503874,0.8908272198292392,0.8822775349234755,0.8527015656523779,0.7891191374739143,0.6123530785482519,-0.15615139226410563,-0.7621305428957547,-0.8346005023379419,-0.8443617254651121,-0.8426998082307986,-0.8301504593185413,-0.7996412757060436,-0.7535848335529526,-0.7084078977919674,-0.6825899452207532,-0.6639953501706222,-0.5819867701176772,-0.4342059504023051,-0.3143127259740815,-0.24415831733836355,-0.22189498731929408,-0.25360938137262834,-0.3117839886900443,-0.22145409343301817,-0.11756121969304616,-0.0701710160223917,-0.048757560390238874,-0.0411769283403596,-0.03727039726123927,-0.03533490572859516,-0.034215052159242296,-0.024868549011898937,-0.011747705575005873,0.0053427724201547755,0.03387907839051989,0.07732819080332007,0.10285442360611823,0.09199068730035465,0.059359655315256915,0.03180490777429404,0.02163732386509611,0.04158989899369457,0.09118568001688042,0.1631494003164288,0.24910216385423606,0.3388468225893229,0.41474524123725764,0.45512494300216677,0.4469107741641989,0.3823465244986497,0.2529858680124391,0.06102261894630801,-0.1686476770489471,-0.3886373139202702,-0.5695428397334387,-0.7151945709737789,-0.8362551693826265,-0.9250980975151868,-0.9501916979887803,-0.8819290931269553,-0.7201223595932619,-0.49393997565293524,-0.2658436474405947,-0.09249999576057669,0.0012708005190410398,0.013550164216619337,-0.0525272220537184,-0.18935794096662828,-0.37432362585038503,-0.5665446555302418,-0.7300464844172958,-0.8303667394986773,-0.7688140184871572,-0.46379172361542154,-0.1510097780992968,0.01773587324661629,0.09016648129347789,0.11300268428625652,0.11512519460014066,0.11965329000937898,0.15022061386927174,0.226386447636648,0.3599950506570815,0.5480644494649396,0.7360857049021717,0.8110775385905336,0.7081577681199156,0.5000927837613526,0.3185888879412793,0.21453834316274076,0.17082330747873237,0.16289717567641648,0.16957451704698995,0.17766976607200008,0.18603933403769637,0.19573032298821827,0.2004255648191539,0.1659293578204257,0.07204387708079174,-0.005629897272256084,-0.05998562113026492,-0.11143886277008917,-0.1752365438820335,-0.25960144827498416,-0.336827184449173,-0.31943500444729506,-0.19933165383935103,-0.054781773777390866,0.08247133868305051,0.21075855831768162,0.3291948425808499,0.4341966626918529,0.5225893240330817,0.5952106299304575,0.6548560718947986,0.6965211896558486,0.7200658308533792,0.7422840348861354,0.7777287127256893,0.82491928322938,0.8758698257059208,0.9256124970942153,0.9343292460183135,0.8000815399264094,0.5851688151922555,0.4249657779782511,0.32050463898439774,0.23548467957994393,0.15244732174969786,0.07404895310311754,0.01541408950077208,-0.00451545851265238,0.02306599132001916,0.08571061310669235,0.14667327434025576,0.16551820512339518,0.1166478335538124,-0.019814334128958774,-0.2790731958163192,-0.49267780977715137,-0.544847825919371,-0.5573425089942812,-0.5643320826709576,-0.5662117472612831,-0.562484147700739,-0.5607105323021566,-0.5725485696377358,-0.6081183424828528,-0.6675432233585981,-0.7196882624639936,-0.746849858302769,-0.7487096981802879,-0.7212505365211959,-0.646529434036004,-0.4894117349757001,-0.26999573778445113,-0.0754071163922688,0.06200599974812987,0.158309966269651,0.22082720901396918,0.2496163679076336,0.24776577367992217,0.21763440648262014,0.15860406515932807,0.07763348502560667,-0.019495890369145244,-0.12913550878989094,-0.2526532016524808,-0.3874004001914946,-0.5228628432343725,-0.6443668559739973,-0.7361845541257103,-0.7973453654054957,-0.8355132117474577,-0.8611500822075441,-0.8798740987602981,-0.8916968888049689,-0.8916317146301614,-0.8707584525720931,-0.805323802992825,-0.670417168835239,-0.45108786398983136,-0.12362628928822031,0.27118651988306075,0.5949386114185582,0.7743872164921709,0.8449419268951649,0.856052807788721,0.8339367407270583,0.7911693930632873,0.7390221071901826,0.689616286715611,0.6558379468303098,0.6447709587897172,0.6564873777076288,0.6798905457247837,0.693713920258255,0.6846696130224811,0.6608418584317437,0.6351156685874818,0.6145175768104584,0.5965950350631448,0.5256641638812507,0.27633797313110303,0.039326025195368874,-0.0875045921623642,-0.16307151911377782,-0.2248965202390616,-0.2947966428721041,-0.379443663941353,-0.4800390228337098,-0.5909049428589801,-0.7062891455014472,-0.815038253675354,-0.8967416526177021,-0.9385199771728256,-0.946737377940095,-0.9373032027500768,-0.9233524514553316,-0.9098178602294731,-0.8979293256181136,-0.8867315537962294,-0.8638090978073643,-0.7826713332399312,-0.577477907240982,-0.28976384147919504,-0.01439958970147423,0.22420993776522766,0.43517251830944503,0.6252978466462333,0.788049152931672,0.8989043594691414,0.9411639429569427,0.9340390235107846,0.9070911871626227,0.8703342707579053,0.803783776729486,0.606172929450114,-0.1002847276825494,-0.7924481393176948,-0.907399731489247,-0.8510742777720186,-0.696190602040641,-0.4833180048155252,-0.27970313513325357,-0.11993383759578666,-0.0015386305140443416,0.09596610285711149,0.15828600968058454,0.07737139167385497,0.009365495395817835,-0.030445334546962174,-0.05701760633096124,-0.07243368674387624,-0.07623777459100547,-0.06940156209562753,-0.05469417873008608,-0.03794571186694267,-0.023106082169101216,-0.008487449682516248,0.015358386765829686,0.06433341664501831,0.16654730235119286,0.34645738133009024,0.5608646440116647,0.667112937305422,0.6195784545989785,0.4758591790323087,0.2889630874129793,0.12359071903314757,0.029628652507578616,0.009620507571281132,0.04173578997531271,0.10120164686356073,0.16920783160051472,0.2508756529449281,0.3654632469506804,0.5478039991001142,0.7943656810937847,0.874309915659338,0.7310321141882218,0.5879046272100439,0.49942980289735756,0.45870690023433436,0.45599145579307354,0.480948338298298,0.519689399962546,0.5593529748563004,0.5903716712569341,0.6054263000025681,0.6018393707662112,0.5803369150249744,0.5518173196692798,0.5346568943463078,0.5435988501892915,0.5764143513294776,0.6250874326867796,0.6709676857494901,0.6758590782681511,0.577153055802265,0.38535105802901376,0.1771391835432478,-0.02224466023496344,-0.2139622176018785,-0.3844176987451311,-0.5085799029108053,-0.5807912302965265,-0.6163246342608643,-0.6404958730448379,-0.674386760918165,-0.7273755109757846,-0.7940988996197145,-0.8611267646212416,-0.9159832124478978,-0.9532609156889948,-0.9732886628859817,-0.9796210796359568,-0.974601093790754,-0.9565435145109471,-0.912239649497179,-0.7937215909694219,-0.43346964574478775,0.2799132757680475,0.7051991498918141,0.8392810470368289,0.8796940680953904,0.8872925874953108,0.8805189653846923,0.8644945177553915,0.8391198418288591,0.803838994221415,0.7672546371183425,0.7409338254441987,0.7294206910282999,0.7296334722651758,0.7422262900167873,0.7621121237209016,0.7699722639362718,0.7129897420039838,0.35210469767624514,-0.29986170425494746,-0.5070263103296215,-0.5325640659816295,-0.5173695067727476,-0.5056243804566504,-0.5061736055678683,-0.514868021069095,-0.5249797638881127,-0.5349280006638034,-0.5517750246353739,-0.5838945600850698,-0.6332641643917329,-0.6992151043901457,-0.7600261730282819,-0.7647332472795182,-0.6702154311280045,-0.4961102616505508,-0.33992218600586177,-0.2718779894247263,-0.2642989093675474,-0.2334680875083178,-0.08114986844863813,0.25455966762814247,0.6175304918262319,0.7983876200803763,0.8632868341273796,0.8824169982978777,0.8792664646496827,0.8568190282808833,0.8097313533682282,0.7261800429099211,0.5765840988923873,0.29841633950306146,-0.11912613876701739,-0.4721953516279062,-0.6496211741781939,-0.719244297404293,-0.7383579949742756,-0.7331793482767709,-0.719656525609075,-0.707658344989506,-0.6915984534255667,-0.6629278758110606,-0.6115228833119747,-0.525437610227698,-0.38767363005708133,-0.1936874759055854,0.02091107524306105,0.1863495803113317,0.2792596795205461,0.30296098042587055,0.2780301038165494,0.24087169892354876,0.23624125463033013,0.2805355494278109,0.3514137380623298,0.4367940578808147,0.5053560705678023,0.5309216729753824,0.49317741762589495,0.34897782502116925,0.10052601524599823,-0.14215753698318606,-0.3161781856725974,-0.41265563119442433,-0.43763886516670936,-0.409953355840424,-0.3527536073256585,-0.2937271613709652,-0.25459408688362617,-0.21929726581177164,-0.1767102393231706,-0.12336835361693328,-0.051607745258442965,0.03600741289691475,0.14854391718209667,0.2859651829477365,0.40164819809519736,0.4639233181075212,0.4703105979257305,0.4147738748810079,0.30293747161435136,0.16594600562374612,0.04593770419089326,-0.009657662232073103,-0.006293601403775815,0.0644038620763496,0.21573880211648336,0.4090348591858185,0.5897265338479164,0.7269293894086014,0.8225359784954228,0.873182852567166,0.869701916763147,0.8373441261287375,0.7949340060924873,0.7380500910312222,0.6402619113313157,0.45543388294559595,0.05618752330039839,-0.5221681145469029,-0.7388666193505048,-0.7512076020737267,-0.716625014670909,-0.6794620819774563,-0.6559821475392489,-0.6583146215575014,-0.6964318145833682,-0.7686273189836944,-0.8557186705896219,-0.925851133092429,-0.9610997710040495,-0.9736621874425117,-0.9798715373126333,-0.9834455212550242,-0.9745937545369524,-0.9147113314758256,-0.7149345850882326,-0.32710630706717364,0.08412034661898797,0.39400791811815533,0.6124620672577564,0.7590911352020355,0.8527078040433635,0.910050771152887,0.9457714328929966,0.9547394714059729,0.919124671834557,0.8351921237787885,0.7248825796591747,0.6167810660044707,0.5251896010721833,0.45557565123600485,0.4026569932306186,0.35257726101039394,0.28119008002282064,0.1626875655202256,-0.0015469230926946419,-0.16765772509150828,-0.28002386653702344,-0.2704530484315221,0.11620658737949098,0.4528321905828093,0.5348807282652128,0.5592120653897823,0.5569930911461458,0.529703163265355,0.4768907113984469,0.403109023667842,0.3173473546291806,0.23190999446948007,0.153411937816385,0.07991968045689575,0.006703190707706641,-0.06675147358533443,-0.12715633886980365,-0.13947702554151917,-0.08774481890943434,-0.026153839047900945,0.008269960827752238,0.0073265033201954256,-0.035596846292646166,-0.10317650753488954,-0.14146510309946742,-0.15935783655887298,-0.17227411860752365,-0.18463407455429368,-0.19496816028385436,-0.20220908072120233,-0.20571897090125424,-0.20383933266052492,-0.1941008408375115,-0.17589903685621322,-0.15581969418575048,-0.14038787834909158,-0.1384756539984209,-0.1631070663414317,-0.2369856757621187,-0.3893594069464542,-0.4042807625300783,-0.2866149151072431,-0.2117140919315425,-0.14793449805368505,-0.07467172365667359,0.014781605617744548,0.1089626235630946,0.1869426411547133,0.23490877946791058,0.24807571343726456,0.2300049284627982,0.19000547117373015,0.14434350612373695,0.11203078475822069,0.09619803824258827,0.08933749401439972,0.08683850561172562,0.08752824572720894,0.09079881100600198,0.09457030409430618,0.09654213937331182,0.09679243021331252,0.09555303588046964,0.09341146301781757,0.09132387558642653,0.09175036862182064,0.1024596271621334,0.15022585991062026,0.33928119376569843,0.11947746739723357,0.05704461854185871,0.03434162841875018,0.017852856840531117,0.003443285748813441,-0.006340989167101184,-0.010079428214768132,-0.009553518125424293,-0.006078481288709184,-0.002855013605121157,-0.002435967749600654,-0.004548991952581997,-0.008365399982619273,-0.013712512338292963,-0.020509263323449656,-0.031152592661580013,-0.05836607227168644,-0.14866531076678968,-0.6192095849984157,-0.40032372344901884,-0.25262057902738666,-0.19542828676162285,-0.15947214768712034,-0.13054779973158978,-0.10929746425412218,-0.10024982698474444,-0.09842320082140171,-0.0961589342707191,-0.08752126088876186,-0.0705302615259788,-0.04753311667108936,-0.024082768525668236,0.0011527294499085712,0.036062543238355824,0.08854592131632931,0.16603713161211472,0.28723903230458636,0.4783192511529993,0.7351449588227777,0.8210803237291392,0.7104583010635901,0.6109220499694028,0.5512850438787702,0.538533769104745,0.6167095647266571,0.7386202106748985,0.5071954950723563,0.3244107008938025,0.2612218280950114,0.2538208707712475,0.2706175092370947,0.2795879439257296,0.26112628478927774,0.21704825305121378,0.16575111174462015,0.11482090550684841,0.059644898628592256,-0.002671989751233003,-0.05400098581928087,-0.07136095669763858,-0.06563860179865666,-0.05230714656394593,-0.04483908910016892,-0.049254560380652686,-0.049136174267645376,-0.012219615983503655,0.057765233818883994,0.1088213560828612,0.1133440686051577,0.07489254739358255,0.0067044440451593254,-0.05847738501344173,-0.09192290572284503,-0.10115836781072236,-0.09763109884633468,-0.08704028331484442,-0.07358096595631089,-0.061089933861266286,-0.05254008273172275,-0.050668609214256505,-0.05671280517863041,-0.07179249897075286,-0.09790029908777577,-0.12830681766101149,-0.14354278335841486,-0.12463118467414366,-0.07677652771366468,-0.02745643652954372,0.008981487765003215,0.030352414402891062,0.03567414395410146,0.02204310915214917,-0.024557854727885024,-0.11615272566003859,-0.23907809075182074,-0.3452595193101158,-0.3908157315840076,-0.37968176716889307,-0.34267273288168415,-0.30673592993553844,-0.29198858479405165,-0.30753216776064396,-0.34525768741864477,-0.38810956123127066,-0.42166312812850665,-0.4411762555286771,-0.44284992110303395,-0.42926831203810456,-0.41594644794620805,-0.4173722195882214,-0.44037841905838765,-0.4838901162019145,-0.5382941998312742,-0.592078441100462,-0.6378257057699527,-0.6882809437138635,-0.767654475958889,-0.8011196457890891,-0.5078421522224262,-0.24002606720655437,-0.09184424926061129,0.018079177157242807,0.12603067037837745,0.23255866204238687,0.3332852546907029,0.4155035610076788,0.4839637038173033,0.550845810443958,0.617611214906441,0.6769712125041061,0.716590793020302,0.7307488689255576,0.7225905536512778,0.6961858853387063,0.6541140345417328,0.5954014077847374,0.5205725302211545,0.4246652333854867,0.2893173836228313,0.13699932307211232,0.041734777634600796,0.015573095514508337,0.02695662580131867,0.03885926531840753,0.03160435642883978,0.06361860248040271,0.2751667399976631,0.6246108881083918,0.8335813334056772,0.9165341931517926,0.9492836323269195,0.9631084724987671,0.9679394364829874,0.9671040478811016,0.9595191771291581,0.9392925123463168,0.8947089609352422,0.8275303200819807,0.788299435222997,0.7947795272807089,0.7989951636710153,0.7756990289351644,0.7021982186317813,0.4994526555015736,0.011149550432093942,-0.5432350316132762,-0.8111960497713333,-0.9170350622858361,-0.961642695084598,-0.9804163426775839,-0.9863238696016203,-0.9832594110156114,-0.9721802530421019,-0.9549196724605985,-0.932895782974661,-0.9049458445803766,-0.8734742755181499,-0.8447869956978089,-0.8245523965752523,-0.813172443192312,-0.8025930111860311,-0.7811722406792435,-0.7330896055415796,-0.6360636156872281,-0.46348978226412435,-0.21732297276749887,0.011292244035048672,0.11204617082353462,0.01811703269793573,-0.2911783579472545,-0.6038687446149087,-0.7450603818591051,-0.7486304969099041,-0.5763557859295615,-0.051745686961971134,0.47899987598278665,0.6889060613949449,0.7575036607090334,0.7754683072772773,0.77215709356207,0.7604643213150014,0.7492327719698351,0.744183152857372,0.746824363051436,0.7533721331994825,0.7580103872500965,0.7588106000931212,0.7555443659542395,0.7469989317700791,0.7264635994561695,0.6922364486126943,0.6371604573311462,0.533869292892459,0.352450240743043,0.14430674428307538,-0.03538257061456217,-0.19994034156238524,-0.3783300122888982,-0.5706181253451189,-0.6675136029687588,-0.590402843429305,-0.4293983415051562,-0.25663713528618515,-0.07957695887579185,0.11372716831961585,0.33037534544208197,0.552627675469594,0.7519202349232469,0.878499871090894,0.933446447653399,0.9561517449870476,0.9576456644045128,0.9416426046960703,0.9199497892292822,0.8982251958482433,0.8823880610417306,0.8814959061855423,0.8943253904495015,0.890348589694369,0.7774079907046346,0.44353128555081006,0.046523968147373244,-0.19524339208377656,-0.27109962482773237,-0.17224251350276779,0.1049594230891165,0.3118528700034228,0.3510078749164855,0.2468717001451095,-0.05887654048424507,-0.4590022737207537,-0.6844480053255837,-0.765028912136104,-0.7892154629595783,-0.7888628269687797,-0.7815027487175101,-0.7797803319766301,-0.7959114799974635,-0.8375555116015438,-0.8900864903723419,-0.9299351056510298,-0.9482965297847906,-0.9511128550736462,-0.9450591456808833,-0.9314538883966396,-0.9033258397879862,-0.8523608571415978,-0.7847639481724581,-0.7142165225514978,-0.6415101565310725,-0.5504890547245344,-0.4042111376895833,-0.14529911587494634,0.23212651941666057,0.5745262383485263,0.7666452763156073,0.8520786243368108,0.8829535006238014,0.883758800158665,0.8647886007175337,0.8313387831190933,0.7763108741010093,0.6602848322606486,0.40475536814131297,0.10131827282938437,-0.0029941573372575794,0.15364403806974478,0.4771072055429037,0.7394411859148613,0.8663985586743146,0.9205886991032839,0.9436028884782264,0.94764516918195,0.8347714609163432,-0.38578520054338883,-0.7105727902756157,-0.7392287921284736,-0.7252126900978942,-0.7020057216917381,-0.6838325070026935,-0.6739282436451633,-0.6625429387168421,-0.6337677416573093,-0.5673657628400025,-0.39816529914998483,0.0804255173245819,0.6215482231884941,0.7372344085650289,0.7480604181765945,0.7495884306491026,0.7436429615949496,0.7274407570506098,0.7059460031180774,0.6816005033264753,0.6483077095178671,0.5911097709142045,0.48560422443941065,0.3274544674788369,0.16276105679069613,0.04049197502064315,-0.03178143190175168,-0.06765454624407327,-0.08198967601220905,-0.08493788385342528,-0.08223944150271346,-0.07603629725601721,-0.0592483545171377,-0.012037680499675959,0.05296042887141842,0.06432220152768223,0.046933477063178894,0.037727983018412514,0.0657108448037233,0.16024511405926323,0.3402143758831954,0.5575200010589878,0.6597842384424383,0.6144596455473355,0.48912137639980213,0.314092877422515,0.1062219409104874,-0.10300977985474909,-0.27597659194450264,-0.40286259411581105,-0.5025633011516498,-0.5922006768422301,-0.6739410681818344,-0.7420829867361187,-0.7947528707092983,-0.8328763797184771,-0.8566725398421808,-0.8648636380376409,-0.8575711180786917,-0.83708517193723,-0.8123044032473555,-0.8009204879778622,-0.8242782104939516,-0.8819246778131974,-0.9392096401132428,-0.9582474416356613,-0.9171778354207027,-0.802880575106692,-0.6198097365843602,-0.3879850285015868,-0.13728757051797144,0.08158798969064023,0.25241555567828605,0.3876690993038037,0.5092850389762914,0.6308538108939364,0.7439428336044608,0.8359697203288926,0.9019526804875315,0.9462417518979898,0.9724324810028585,0.9768299241617403,0.9538036478197716,0.9065080057265993,0.8480425331922429,0.7893247103588245,0.7332466674540828,0.668839257343196,0.5869591047047737,0.49900015505558576,0.4408118895994702,0.43073182397240817,0.4652300632428321,0.5230842145597074,0.5765757109337558,0.6040891100921577,0.600231919133544,0.5851111669891773,0.5815210709581483,0.6007235736762865,0.6399563113796831,0.6904139349762108,0.7363310351128992,0.7399129333040977,0.6309613969698542,0.4121832424294996,0.1948337627983621,0.02393910389974596,-0.11269015904670293,-0.23754446359558218,-0.3632137645713898,-0.4983363311007298,-0.6511073891014276,-0.7856038957950582,-0.8504469627856348,-0.8726949001560969,-0.8808274039319269,-0.8554435243203582,-0.7925939479321262,-0.7228718698607918,-0.6620397056042873,-0.6102033805312097,-0.5643458244303045,-0.523034165129018,-0.4892911219871345,-0.46496672207613227,-0.4532127861727442,-0.4547583359277766,-0.4635962903987243,-0.43697455695948867,-0.36729145763379933,-0.3494278677741091,-0.37030479354156703,-0.39602497264040354,-0.4037767761071201,-0.39860616040351576,-0.3965884627575885,-0.40033139306254517,-0.4065611100356916,-0.3937633727683793,-0.33373139690018305,-0.2302484064509576,-0.1625915269141904,-0.20173570250166153,-0.29731607239087987,-0.382965156604681,-0.42444631140397204,-0.4263533015964896,-0.38873240266012715,-0.30341173928904797,-0.1713562185966695,-0.028655140268484147,0.09980403925085272,0.23257192285106945,0.3776196287399046,0.4995203237222491,0.5437748252356271,0.46868356963209584,0.3086872562578993,0.1780710400208111,0.12006850984056651,0.1331593929872303,0.20724878449008569,0.3226323727021924,0.4517517063244284,0.5725180363352845,0.6707913410998014,0.7398103363327277,0.7715690685845484,0.7675744381436294,0.7335305293942523,0.6784057941556317,0.6080517767142344,0.5364359629574932,0.48312891429701693,0.4542506555007927,0.4448280481894022,0.44351861817767424,0.437961825280398,0.4040440794444732,0.3010254654144518,0.14225322815459226,0.05226268821202021,0.03951904896870688,0.05749054296892847,0.07787055887650964,0.08736748837697189,0.08206935388343548,0.0529937241127338,0.003532214526586677,-0.020270272420424344,0.00414728009942049,0.05971844889928597,0.10960447542904847,0.1302205668346597,0.10835705897260203,0.028898053251575302,-0.12182929683850859,-0.3786193238532715,-0.6565325505990494,-0.7156320077313987,-0.6771990980791827,-0.6466196415219239,-0.6282163145136735,-0.6108342125487003,-0.5899810381737425,-0.5672600165601325,-0.5452263278533648,-0.5273542442246609,-0.513896995016087,-0.517117188764615,-0.5403480123481971,-0.577251833692679,-0.618433700836953,-0.6672549454457981,-0.7024771042674035,-0.6979766107470607,-0.6513157207488723,-0.5911659640636306,-0.4756545356489263,-0.27911843736320213,-0.2360930592217926,-0.3179835338161318,-0.44922416210098076,-0.5556934631812197,-0.6136498718458905,-0.6394376359494538,-0.6424751157803352,-0.6020473820982214,-0.5136554360505933,-0.3730566161746752,-0.18520774704391188,-0.006819711102367469,0.128884106503175,0.2233387251395307,0.29459409971136863,0.3527437509929098,0.4089497821929424,0.467132800055604,0.5386604694604616,0.6672218998243716,0.8031339501296276,0.8716399250491205,0.8930639751677208,0.8943665988017643,0.8831025878490831,0.8653695492512581,0.8436695032685413,0.8165974940730257,0.7786727433062945,0.7266147302421473,0.6634829436018849,0.6034679462883009,0.5585667758415199,0.5142675346092079,0.3393456481279558,-0.12596197902080106,-0.4704189472378187,-0.6604719836053494,-0.7852634871897225,-0.8691760310594657,-0.9125097627561312,-0.9254219121552719,-0.9234010594594483,-0.9134061007918524,-0.8923915920643575,-0.8578190663757651,-0.8116670917596444,-0.762269649450181,-0.7183651092746758,-0.6827074855925314,-0.6526088197444595,-0.6265655342721798,-0.6092448189083725,-0.6019911103765299,-0.6034951769360823,-0.6128253758179852,-0.6402362416080598,-0.695282310577562,-0.7760508025513634,-0.8174735356141255,-0.7216209417482287,-0.5198084975367947,-0.2828302838144037,-0.008316812009622997,0.25275460451403253,0.438022954467608,0.5411039202645379,0.5944330475219156,0.6190998624126846,0.6258997430600439,0.628083341835569,0.6431197096582775,0.6831983708911786,0.7448340742356204,0.7926313719497058,0.7062819397207888,0.4454004387346836,0.20966776922744887,0.06229535028770716,-0.03281510582728777,-0.10467093543861258,-0.14060761568468927,-0.13985104081160782,-0.12901371779195842,-0.11801448092457877,-0.10817490487940858,-0.10117839380886928,-0.10018986771184446,-0.10597347300670194,-0.11726790666743558,-0.13017109472088043,-0.141487347175184,-0.14160071659449325,-0.0995164226990335,0.03792582020084646,0.2779727928122729,0.5330285667095036,0.7172586304757838,0.8145225229107925,0.8464411844833859,0.8373306094801819,0.80733559117503,0.7693932290653084,0.7326047932652333,0.7017555964481197,0.6759505892073858,0.6553716174438954,0.6429826047550621,0.6391562005676553,0.634741078598762,0.6222922169259353,0.5982071341579548,0.559988139973447,0.500309949012773,0.38265459650123973,0.03286649388049598,-0.8201953024831892,-0.9672155335812375,-0.9807342337371323,-0.9658390137360653,-0.8884433671658069,-0.8141483499002193,-0.7932358856890162,-0.8317342116150751,-0.9071372596183789,-0.9567081710503172,-0.9320690639023536,-0.8828762285350938,-0.8624640598270825,-0.8704747216520216,-0.8856002199250051,-0.8913014848009664,-0.8731891640748128,-0.8068527937931754,-0.6319981935991352,-0.3300417338902792,-0.11824317236121457,-0.12726666167504774,-0.2599101664836603,-0.39001644109414413,-0.4621271528182018,-0.46818275528562764,-0.4128870290338198,-0.3243520034414072,-0.2470036273095956,-0.211051570398401,-0.20091330917618117,-0.13868194310706058,0.09793324427901694,0.5283891558274095,0.8243602196032012,0.9274317667454001,0.9613400538156088,0.9741165292640083,0.9787557959747741,0.9782461669405934,0.9701722708453022,0.9316355101077236,0.5450823799181664,-0.6507960019538344,-0.8345350855655566,-0.8480348766982576,-0.8287351474744583,-0.8084236811425611,-0.8078629632502817,-0.8272134329125473,-0.8532900738578002,-0.8747682089782468,-0.8851493948622218,-0.8831753512984538,-0.8708596823267708,-0.8463140999930233,-0.799206618554838,-0.6840500864898373,-0.3281825073174524,0.3354169390158735,0.7123180752284863,0.8328542473624582,0.8674336012055563,0.8687587138237345,0.8559633672538438,0.8357211629288158,0.8072490483546122,0.7580608682019833,0.6670044240305485,0.528481530918578,0.3844703768825189,0.27881887006883316,0.2051134743181323,0.13152686182205522,0.027988395592814467,-0.1165667828873693,-0.28663919769840235,-0.4234773319063872,-0.4844284524532269,-0.514722098571733,-0.5557412126805896,-0.6061972566675559,-0.6510786843545425,-0.6778724488895405,-0.6687489184782023,-0.5731946389659262,-0.26573513852421793,0.25636590378739876,0.5338915710129007,0.6212792952020093,0.6684989163398143,0.7238133368153766,0.8071224311098618,0.9100167030497065,0.9384334968950209,0.7886687816997797,0.5939010509762279,0.4728314102110203,0.4326017358911593,0.45124448450768295,0.5065094951979459,0.5745712199818711,0.6344818036929387,0.6271750724938191,0.1236450729259044,-0.294130537479856,-0.41099135803153586,-0.4437483954742789,-0.4238166578190986,-0.3391235635529273,-0.14157613388843307,0.15263618442868956,0.22921569281092916,0.17203254951780914,0.10196522791714142,0.03791664002402736,-0.022371509719990232,-0.07743477581630696,-0.11712203847638487,-0.13452613390699303,-0.12407285417601817,-0.08537518463492712,-0.027320907536036717,0.03589667021091596,0.05543881806849833,-0.10283584234755216,-0.5059069857636553,-0.7209151692892029,-0.7835171099764101,-0.7761780938486592,-0.6864360393514816,-0.4233087410437492,0.06942126027829397,0.44465943982590694,0.5996674633778402,0.6664305197958986,0.7058269769051988,0.728732709484309,0.7267840708041763,0.6820655571152363,0.5684046994285928,0.39295619638301305,0.22703319308900474,0.13316575367649727,0.09804218692990684,0.06015368937507991,-0.07192352332565485,-0.3698246961208116,-0.69686262118375,-0.8648074578316678,-0.9261383436417814,-0.948816765187148,-0.9557743563795432,-0.9510919100940468,-0.9265102292002617,-0.8549848572575872,-0.711383354774875,-0.6153122784227248,-0.6879450636182398,-0.8074545837694366,-0.8830303993632229,-0.9174127530604195,-0.925012182578925,-0.9082830289309601,-0.858625250421086,-0.7616776454602576,-0.5952564726813196,-0.30826069396567124,0.11298796873243908,0.45969299725130625,0.5949512339662529,0.6190543687370235,0.6231067266631657,0.654269345911537,0.7075268132848275,0.7599994732437557,0.7985579835590028,0.8235712539614164,0.8354685555813388,0.8366790707937515,0.8268534081262097,0.79692654262764,0.7414070428998266,0.686814348776082,0.6542644572686696,0.6276707039859374,0.5864624403484057,0.518343857917828,0.41971278452959393,0.2914757640605864,0.13914037694387985,-0.01908473172071048,-0.15501071431729535,-0.2593024277011057,-0.3441600918410128,-0.4249055077470061,-0.5029063103381521,-0.5658513591436506,-0.6002126576758758,-0.5976788616346023,-0.5464859408531089,-0.4191938678414228,-0.15522856180226888,0.14035182756600653,0.31941412461761226,0.3952035782176262,0.4130337462335976,0.4211800346669567,0.46439167704838047,0.5634489066553288,0.6928509510168129,0.7986188976100792,0.8609226701496537,0.8866957782454176,0.8770905501392701,0.8195170853492524,0.7008357823527395,0.5405770870496146,0.36780239509787754,0.17894170947436275,-0.023755016923487002,-0.1976498581814192,-0.2931316524949204,-0.28368311450520434,-0.135524274606776,0.18558087511409696,0.5632183096580029,0.7988234622085364,0.9023245376491434,0.9419626831426371,0.9466728858041106,0.9201244736450729,0.8520804204126462,0.7316470217731545,0.5639110767500662,0.39170236168820566,0.2636626710334907,0.17557623171668568,0.03796060086530435,-0.07476599552062342,-0.1516536440199249,-0.2055785991946612,-0.2415952593409739,-0.2722562837516692,-0.3126023274016982,-0.37584739465509986,-0.4707890038893067,-0.6022291386292579,-0.760514709015874,-0.8985758697038968,-0.9626126602447403,-0.9621752468528995,-0.9436304503739638,-0.9405449020106158,-0.9385937011346417,-0.898089164942624,-0.8495858134883538,-0.8341258008768406,-0.84791369199827,-0.8713253239008348,-0.8855378410129134,-0.8751703012505575,-0.8305031202745037,-0.7472897086645209,-0.6326679998856607,-0.5163872745378664,-0.43613641029081684,-0.4065826024416122,-0.42821005252364736,-0.500009841158869,-0.6240997248927095,-0.8069869366725688,-0.9551051337249293,-0.7040985213951089,-0.3453028918117619,-0.12162498066390418,0.029005772777997617,0.15394135875764448,0.27578655271674957,0.40445706321758446,0.5348096375863962,0.6468413229601377,0.728671589215012,0.7854895983000033,0.8290389258873531,0.8711248633741793,0.9192547664726712,0.9512577157752906,0.8432935019171036,0.5804741392414138,0.3826344307656976,0.2936392267614156,0.27656138752077425,0.29427610055467057,0.3062091874360732,0.2536041203105113,0.0717568253294571,-0.24706382498420668,-0.5432359915607496,-0.7079869699669445,-0.7761595799112317,-0.7912636782765994,-0.7717567389245702,-0.7290486328238948,-0.6778190078639335,-0.6266273404687095,-0.5731740274879262,-0.5096328676843932,-0.4239085495220527,-0.30020468759578695,-0.12735004160954494,0.07674017250267966,0.2619637108693729,0.39440246427461195,0.47312093349163176,0.5105156339416251,0.5175119362567048,0.5024793578365688,0.4722802186012762,0.4303170094277127,0.381498196337026,0.3359309983907696,0.2977638978348918,0.2743787788401906,0.2702128625738532,0.28705350011990144,0.32205347031747866,0.35629015414452736,0.38110501144226444,0.39740100991217986,0.41442225625765794,0.42774863282149667,0.4246959726193745,0.41347379929653966,0.4201325495961643,0.46971744571980395,0.6019191860464584,0.7921682160416925,0.5324360798064851,0.28658814330396903,0.17642427499505817,0.11627402408453706,0.07174736560431753,0.027150253622206827,-0.023857469531471717,-0.07892503828270553,-0.12909239386407684,-0.17039568751312328,-0.20149467780864141,-0.228024708860528,-0.244307210091185,-0.25408572590862794,-0.2666069264363028,-0.29055222403877634,-0.3341366169729455,-0.39879941846193573,-0.48539518622707833,-0.5617415721425086,-0.544899112153229,-0.4576310255638258,-0.3695421037859907,-0.291681917329048,-0.21109249017964474,-0.12348922527511708,-0.029080036948686765,0.07952159658333412,0.21762704218366427,0.3841412912849676,0.5599216930962276,0.7107315753093044,0.8173695562287187,0.87920242786758,0.9071429108674671,0.9059696178849398,0.8716245519316901,0.8048748029331801,0.7132328580927335,0.5848890184582571,0.4023659902699733,0.16747195205925935,-0.0567189952956265,-0.18608830058909115,-0.22635588682078558,-0.2424881602836383,-0.2599082431642296,-0.288313443911326,-0.324740380933874,-0.37293281529960426,-0.43731324731215265,-0.5194058442590281,-0.6183836651849407,-0.7263671284403174,-0.8290040979651179,-0.9091048227666289,-0.9568451329762485,-0.975193591761251,-0.9733174698116641,-0.9543003238416279,-0.8938473165751271,-0.47176878695844277,0.7289764568859998,0.908886891377484,0.9262807688325194,0.9040984000409317,0.8259402389767276,0.5995840229964934,0.17758567681407414,-0.11118300165906989,-0.12010872086928207,0.06853243685506648,0.4044727321100044,0.8029284094462359,0.7904513737864791,0.6714155157970868,0.6226707917626254,0.6185413001356541,0.6235048590480364,0.6038783150195552,0.5522832728930437,0.5011332678611231,0.4923155937243812,0.549026704963339,0.636913698130009,0.6227296541296383,0.5402691534099182,0.4652397375133427,0.39653398077365815,0.321763721912054,0.23543447548322535,0.13901859638961037,0.03540624989454041,-0.09588201822437606,-0.3060134298806823,-0.5777048629255221,-0.6252755273070477,-0.6032284333250284,-0.5931549262716143,-0.5571015277744438,-0.45609327181897147,-0.2959518629147425,-0.14009209999929567,-0.05697282429962616,-0.07615911381327939,-0.18251704843761457,-0.2743138908226875,-0.21306042684857,0.07825921266044755,0.46114324362495623,0.6990785392123223,0.7983562339913095,0.831370022858147,0.8307838102698822,0.807426156632618,0.7681661600311565,0.7176347786201565,0.6576342229530652,0.5896507518186869,0.5095327152501431,0.42021643696160144,0.3219007197728982,0.20173445518571276,0.04731451022177066,-0.1349401065404984,-0.32628959225678034,-0.5093323852076549,-0.6746177287457851,-0.7994733319480766,-0.8572956437525895,-0.8707442366654782,-0.8740289678967785,-0.8808415255072156,-0.8863887014902913,-0.8868490239366241,-0.8857932569346096,-0.8993588566142241,-0.9302850819266387,-0.9569886160660414,-0.9692761162077198,-0.9706762313662837,-0.9636443614488516,-0.9459858882519544,-0.9068870924939518,-0.8117952540092035,-0.5544598771758127,-0.02394283054298459,0.4279678047915223,0.6212507666088692,0.6826869378226675,0.6640709003527077,0.5219779454471856,0.06629549859345141,-0.38319420616767724,-0.4579724726988706,-0.3817596935475748,-0.1894228164903536,0.1579756790652785,0.48126063619030246,0.6044126220051569,0.6412811471076475,0.6526058617393851,0.6456031296820511,0.6216556787172189,0.5926928122411828,0.5706991415326172,0.5556392130662854,0.536469961731551,0.49204041343934324,0.39490762670628016,0.2533327398805033,0.12769912727977795,0.06817232741771792,0.07870602090508931,0.11036672983840277,0.14497518184132827,0.18939785293756123,0.27479252001357934,0.5790423899885602,0.20020033106162752,0.01190492806756637,-0.04081065593592616,-0.05674527547786113,-0.05283561993172919,-0.03336812222892507,-0.0001992535632329905,0.04557448886094745,0.1045881049261346,0.182678065393737,0.28135172038402007,0.3955967107373377,0.5117989151899524,0.6316386800270797,0.7467207098621327,0.8196607401179208,0.8189017572077733,0.7547587742864728,0.6682790063233092,0.5835329121329169,0.5050841430864201,0.43255786966657456,0.3637960811402309,0.2942764241316383,0.22573196456683872,0.1655196999966808,0.1204439452678299,0.09063146014577711,0.07776119092698566,0.08000990952377303,0.09201630953530486,0.11033734612156433,0.13549106293898874,0.17794734501409368,0.22351088344815315,0.2474121419060457,0.256256159110262,0.2553635191233555,0.24388954875562263,0.22972122569311298,0.22558619151426976,0.23232009004182594,0.24269950809043073,0.25029842145714865,0.25199686070766314,0.2569893887291788,0.2729370370344742,0.17440683425518516,0.041116087927087125,-0.007940475302186273,-0.03189910007147567,-0.05263652866284959,-0.081070783454488,-0.1233430737457226,-0.18052043046317984,-0.2482241334697667,-0.3177255614093367,-0.38599049973264304,-0.4528381061956232,-0.5291354384685782,-0.6188838337464163,-0.7140840856121968,-0.8063520483631735,-0.8860441572993888,-0.9406868481625705,-0.9597834728222847,-0.9227181435674304,-0.7987847422160328,-0.6374252179282123,-0.5168974881113503,-0.4521960903329831,-0.4230321594497403,-0.4066503747163911,-0.3911539968967412,-0.3704633116493656,-0.3475733426902747,-0.3329014888013583,-0.33381667907698964,-0.3457819257172793,-0.3546465587881392,-0.3269109584045341,-0.22018914673645767,-0.046208385178853575,0.11900952079956897,0.20889559801885602,0.2329722556790283,0.23793556304010025,0.2518158037012492,0.27325201702777174,0.29399771319844614,0.3088874132343886,0.3161243994032882,0.3134446815912223,0.30051682480620756,0.28275554445546536,0.26952209282956974,0.26711131395646953,0.2720593436453942,0.2761794114577905,0.2745134164862071,0.2660085385839271,0.251804722539052,0.21707882946563742,0.0904297704169359,-0.0850772069776339,-0.2133253512318453,-0.3188203962686106,-0.4152604986053957,-0.5038807767103256,-0.5712672853859686,-0.6034677970941883,-0.5934298699930677,-0.5327162291969505,-0.42600141844763956,-0.2920104592339102,-0.15603245124328852,-0.02980974294508857,0.09011853796315637,0.20723587911334157,0.3130653667510693,0.39505718329792155,0.45124162637074067,0.490722585772049,0.5246406008909463,0.557933780437286,0.5878405639902408,0.6104137996795144,0.6233724542054057,0.6289754645014871,0.6295284041840495,0.625139668591118,0.6112731654747131,0.5787716254888454,0.51830378116484,0.4031834152485087,0.003403593281686301,-0.2091175081770799,-0.20050141048069717,-0.19954454165133165,-0.22790150699741774,-0.29046370828742707,-0.3970456232025924,-0.5550262585667599,-0.7497250287054686,-0.9175956444973927,-0.9795935960842441,-0.9256952067376218,-0.7705835098279076,-0.5096322244666117,-0.18643372156568652,0.07559740511543535,0.21185728623983216,0.24444533269298077,0.2230140723760899,0.18656942493683057,0.15021885541645427,0.1015369845817649,0.01767634471735233,-0.12581323506221354,-0.3341650595457402,-0.5565300664641055,-0.719712446190956,-0.8130663391635244,-0.8662321611429471,-0.8965819749621378,-0.9103999230818597,-0.9002427990241894,-0.8437146494228378,-0.7565263423853327,-0.6974710830329416,-0.6736923874873488,-0.6502750727765761,-0.5917588879020914,-0.45940461757658824,-0.21124474500242355,0.11517680321612797,0.3592194271438349,0.47098617971348417,0.4899826404188077,0.42572970607477,0.2685901271967484,0.05556675031118047,-0.11616614560399914,-0.18010677344387707,-0.16393300858980828,-0.13362813334290136,-0.1339304640908824,-0.16606607176938404,-0.21824968596226033,-0.2533385103592908,-0.1182602855925984,0.19649409492693753,0.4193249199660059,0.5653680566614626,0.6672678225407126,0.7378523477485469,0.7798689050439175,0.7864784938092848,0.7049185035595684,0.08784319320795102,-0.7270162044883209,-0.8564658610660689,-0.8190860944464942,-0.6871975714458696,-0.5551457512960317,-0.47862805099960815,-0.45834336442112666,-0.4752196098379083,-0.47211847456934986,-0.33260357254465267,0.06259795878046945,0.5145283496273768,0.7543126802248848,0.8522792745619333,0.8898593030100429,0.898307379530819,0.8857157831800241,0.8494400449229962,0.7803414153347681,0.671578609311216,0.5525318160015666,0.48118889442098156,0.4740808583054185,0.5066067164808455,0.5504617290074963,0.5815187370601225,0.5779462633072205,0.5063158772104016,0.34140617931800754,0.12380674090844244,-0.10476122220929976,-0.3476586686544366,-0.5762416448745087,-0.7431713354332772,-0.8367535422175051,-0.8729137229951492,-0.8715141266061045,-0.8493665658434184,-0.8192419135834081,-0.7902000876561356,-0.7692770477101838,-0.7614249498042585,-0.7718250011050175,-0.8089726008937621,-0.8747767621863529,-0.9367199509729652,-0.9308805536639778,-0.8688972148389992,-0.8172388528588924,-0.7952623860846464,-0.7779928797695683,-0.7424841773854083,-0.6940819484528193,-0.646966938884104,-0.6110983028112553,-0.5858501194928083,-0.5627913536223109,-0.5266514966305821,-0.47351356885301094,-0.404300326441825,-0.31720493010023765,-0.2079571075491841,-0.07218716261978915,0.09173178845290131,0.2768805273940301,0.4578970703025554,0.6038072757249069,0.7011604112169515,0.7533995570309524,0.7719553743870906,0.7628019935912148,0.7327117950030893,0.6931430387274025,0.6614504816510284,0.6571057539481472,0.6944323026810542,0.7445469191259556,0.6711963048054691,0.47361096577416784,0.3158615972132483,0.2167869124046162,0.15164807425090002,0.1105182476598121,0.08922651122073214,0.08838339846635464,0.1101510266595226,0.15881692282546936,0.24042482576317148,0.3285382656137412,0.342616075022629,0.30587963314393324,0.2614435472641964,0.19984878271059195,0.10044693899525987,-0.022186051677245605,-0.11689200555002442,-0.13753861961704136,-0.06518420995467918,0.11325010983598155,0.23032794682232613,0.12220506970974733,-0.014951003072590717,-0.15088299339491698,-0.27967265938431707,-0.38292039485084944,-0.4533446877067673,-0.4970737207109645,-0.5258152263700914,-0.5525525315784289,-0.5878869779606767,-0.6343509080694558,-0.6822690575298649,-0.7201256313570187,-0.7402238639856623,-0.7426773254940807,-0.7274429322225084,-0.6962675424736474,-0.6602867957156877,-0.635145938829966,-0.6331932629798169,-0.6497405866983959,-0.6697927854707619,-0.6823206273376212,-0.6768880351692209,-0.6344334365975484,-0.5500700730414243,-0.4393485806205908,-0.30920076441264677,-0.153806140686136,0.03770702796480649,0.18652856641886284,0.13646734174596697,0.06459348641248024,0.02891271870300051,0.03603248282992711,0.10401892408266916,0.272131169051088,0.5590471178368939,0.8196479722808371,0.9339560595999324,0.9609481389466096,0.9517909458686101,0.9268460606624304,0.8945900690859879,0.8570907360080419,0.8134370052849298,0.7521289258587689,0.6522412177644213,0.49148870611140233,0.3045460630421329,0.1880237076768178,0.20097677103502487,0.3500159351943172,0.5749968588466083,0.7654824554915769,0.8694623596977733,0.9122857772186996,0.9181050034077609,0.890978638102281,0.831293573582613,0.7506533476601778,0.6713759378848605,0.6172326642823796,0.6094912704831913,0.6856013461938928,0.8788545495951098,0.5957252482608295,0.2719050621896365,0.17756414387543237,0.19266788377449046,0.31159394370588983,0.5585306908602053,0.8185144013442687,0.8396708819236786,0.7402529552710576,0.649338932117745,0.5824327582303711,0.5408515145900031,0.5209025673481831,0.5004856816288723,0.43455104126909044,0.2495828009133982,-0.1060470570285255,-0.5230275600603347,-0.7925044215991965,-0.9083220409805709,-0.950916246282254,-0.9653553426288772,-0.9671110354151775,-0.9564861556133214,-0.9112907222570383,-0.680451341029126,0.17800231766020844,0.6070013293055055,0.37175532834056196,-0.5158882652067893,-0.8205163421103101,-0.8902435407322752,-0.9124929862011261,-0.9167121413945866,-0.9077499098041611,-0.8866939641819811,-0.8582304601641133,-0.8357901818661813,-0.8307958228470269,-0.8193533529330557,-0.725207707145849,-0.5478305690905592,-0.37099715358230523,-0.2207402330158818,-0.09795591264020995,-0.014885927181091742,0.02290008097072359,0.02154881213467591,0.0025640552816425283,0.000784126109194203,0.06739592782624941,0.32086242424824707,0.5431369147212999,0.49911546093972203,0.4440161031980669,0.38323983730151373,0.30196869953784705,0.19752777914660766,0.09095631979978791,0.018151143342630592,0.011469641320551978,0.07280562926977013,0.17891704822243978,0.30234369784146636,0.4251256097084745,0.5375840226374553,0.6215362712687157,0.6741426251412519,0.7272295460410036,0.796803817695991,0.8630833498514277,0.9052005014189798,0.9160640417715951,0.8972922567518657,0.8524456838937295,0.7818503232982577,0.6879065248653539,0.581086783734487,0.4775640114066616,0.37572095081434487,0.24841277555611696,0.06916161214389364,-0.14295351814808038,-0.3272421358834784,-0.4599980366890067,-0.5618237294273299,-0.6480657415086108,-0.7173259599342018,-0.763220193007613,-0.792225033354415,-0.8134987605883283,-0.8328482271092499,-0.8544305956999029,-0.8795567571547195,-0.896509656335853,-0.8925061258390842,-0.8647424862211275,-0.8248873327744027,-0.787574560792072,-0.7573105135439832,-0.7362965152772737,-0.7222446008607946,-0.7197115906430123,-0.7242166152103028,-0.7231969384972704,-0.7057508069681918,-0.662417674395903,-0.5926561171728675,-0.5067268640181932,-0.43709344097780967,-0.41751369513003217,-0.4473666287432069,-0.4923768870728275,-0.5271216398908745,-0.5369894822445201,-0.5169806506201955,-0.46403239974647653,-0.37933399264992673,-0.2627422489929479,-0.11391051837303556,0.0675968368372525,0.2523165834697437,0.3982992067592015,0.5097588619164066,0.5724742847288137,0.5303467465099143,0.488018559806587,0.5199633713945004,0.625576191475565,0.7636250369794867,0.8439632596073303,0.8430193032950981,0.8269483794202169,0.8369195666031533,0.868726952299147,0.9030734370490398,0.9319029283298234,0.9539051528384189,0.9686356487914227,0.9778050215000303,0.9831900347107224,0.9865872226417928,0.9886020309533496,0.9896995362059762,0.988902418675531,0.9846618550348054,0.9742224910313909,0.9494776615401396,0.872981994040346,0.5463080616023925,-0.3016829208478835,-0.7152573249608182,-0.8255505486484798,-0.8658698901468981,-0.8865699192863903,-0.9018728655022669,-0.9152066490518695,-0.9269319183136062,-0.9371151133209441,-0.945819621400259,-0.9531350256953457,-0.9591419756473755,-0.9636371301721315,-0.9664742792424534,-0.967458571196114,-0.9665118059208767,-0.9624753637658934,-0.9501160399296391,-0.9027495558608287,-0.5608251104204348,0.5522906453473511,0.8334146545685002,0.8918759262454335,0.9139541897657433,0.9275718279062092,0.939322980693112,0.9496651664514826,0.9569363868174148,0.9596868739726628,0.9568751142803353,0.9478948400093077,0.9316986195187649,0.905063166273616,0.8642456826049503,0.8096930164710199,0.7489944166059352,0.6940787840206671,0.6577936995057715,0.6621658087622209,0.7288569947120329,0.8300642245466031,0.8756155151269293,0.8425344238270377,0.7880513784712557,0.7556630546788133,0.7717984428916432,0.8348045652114869,0.7981288692642986,0.6140405266300708,0.501419231812029,0.4741821646407879,0.4927648725737902,0.5242316474641392,0.4967246527490706,0.21662074265910605,-0.1410639239514882,-0.33441675206631677,-0.4488777445118187,-0.5312345035763223,-0.6034795376832599,-0.6802717128730529,-0.759220786050955,-0.8247590697241033,-0.8648922245856425,-0.8695112424916015,-0.7887895701044608,-0.21386460654360884,0.7887371834010182,0.948419724361929,0.9771851235474491,0.9847946355067159,0.9823306071780088,0.94252960158474,0.5216843535403297,-0.5153743414851871,-0.7598877599321053,-0.8121307982730109,-0.823516681962564,-0.8266857185740155,-0.8320601622846389,-0.8383170785933934,-0.8438383413308421,-0.8519005368141257,-0.8645229151004654,-0.881577262505097,-0.9016950639951424,-0.9220388957399137,-0.934596672005649,-0.9297447514364466,-0.8828093920431207,-0.729295480940369,-0.3976764442062581,-0.039180524016736544,0.1846168972197392,0.3053843375405847,0.3676677729553574,0.39821068552739675,0.4135391970621998,0.4223735521403917,0.43506588185724016,0.4646739324338593,0.5215470297302737,0.5934438649898977,0.653600406568072,0.6823851486374758,0.658835399068929,0.5605743568213637,0.38068864798652774,0.13138959308776516,-0.23739459989523468,-0.8049891263404649,-0.728748369781324,-0.5775318778813745,-0.5331327334592595,-0.562807514109834,-0.6456990939972619,-0.7406410565972241,-0.7845788116123581,-0.7760347592384818,-0.7576368402270722,-0.7511811056892099,-0.7578242744197844,-0.7738074463828769,-0.7926912407162079,-0.807616706434587,-0.8136620860833383,-0.808449313704642,-0.798916354109481,-0.7939620828380273,-0.7931439029093806,-0.7874932521454746,-0.7675912429209432,-0.730808729960071,-0.6790998229933847,-0.6142110565905706,-0.5335313568748704,-0.4245872248996357,-0.27674658855658446,-0.10257390695445108,0.05981793458091228,0.1780868379446951,0.2574476177467734,0.31707368648133194,0.3730089256858874,0.4344821350492307,0.5123355136497745,0.578978005882339,0.546873599981666,0.4302262319266167,0.3370154446698548,0.28216475440576133,0.2513081479377842,0.2347047842704355,0.227967127865624,0.22780304880191032,0.23191226291915765,0.23906329948637284,0.2507174660615952,0.27150718552560593,0.30532599024591295,0.3569893420112015,0.4260987847499527,0.5031628063888953,0.5740296672455576,0.62426623738287,0.6569897185019166,0.6841977818837044,0.710334565038255,0.7168688999884728,0.6759078214573729,0.5955942205314447,0.5223533965636832,0.4940872128638754,0.5189008923378248,0.5689951231179613,0.6050007336345631,0.6028616514760335,0.5572236160904964,0.47681175730840114,0.3815651037937968,0.2885859517284453,0.206561605831291,0.13927065029939614,0.08485006315439725,0.038814650884182,-0.0070999974648017295,-0.06628139562394451,-0.15149313823433166,-0.2552758628580386,-0.35983749054624453,-0.47344043204833,-0.6478022275348609,-0.8623355068437373,-0.7390450726714618,-0.5410148098397466,-0.44986480910869303,-0.42066966619018564,-0.4273567647970563,-0.45871541440315466,-0.509467866578262,-0.5734286071104961,-0.633536761098198,-0.6536804536784129,-0.6023247940531443,-0.5023363223379311,-0.38888750779111225,-0.2692832634570563,-0.1613177477537256,-0.07551644237177947,0.004263525215272785,0.1049561319464904,0.23088296129441294,0.3383348115128322,0.3892735940989723,0.4027552257231148,0.4258875362334096,0.4935339205656162,0.6152807006749866,0.75807824451568,0.8548293551532775,0.8740898871288157,0.8455334810215602,0.7971766931580503,0.734081144547929,0.6615209262306498,0.5886200906611813,0.5220513082310108,0.4620864710334041,0.39804051634856547,0.31821239812205454,0.20474270418378487,0.02775592772397196,-0.17821183628989526,-0.34346172121810975,-0.4537571608403301,-0.47946235671411913,-0.39488503552234483,-0.24834517100259781,-0.13196753581526585,-0.06802875582294066,-0.04246465225912509,-0.037170757549506474,-0.054434240776648914,-0.12510083168554467,-0.28951490886092557,-0.5094753798858515,-0.6884577207311089,-0.8020266187017966,-0.8619298573234211,-0.8839662259879215,-0.8868847270048902,-0.8821098913068505,-0.8746778397819638,-0.8631885392375026,-0.84456995606645,-0.8208689208836185,-0.7998835681066946,-0.7922995711981833,-0.7926500044734545,-0.7483441955906037,-0.4628379039310551,0.11037816582929207,0.4381115067243844,0.5899648805442614,0.6873399565426088,0.7499221338434392,0.6646253982574317,0.1838795625031029,-0.23119990617996689,-0.3777374701189719,-0.37184587761839283,-0.22405746807515875,0.12806650044606438,0.5410562847115501,0.7514655336697256,0.8131193626499064,0.7996737038993923,0.7170922602394921,0.5388706952894344,0.27209892076916636,0.03075559636399452,-0.08080767220760085,-0.05454706290386734,0.06821037983504866,0.21406919498075574,0.30781683997124254,0.323798457488015,0.2801890114294964,0.19513208029074225,0.07439378706863664,-0.0626730769680329,-0.18312485569784936,-0.2589034491826843,-0.27429285111211893,-0.20882258994353156,-0.011767010674628061,0.29796742264562065,0.3612890153658726,0.2757212487584653,0.2002534101656214,0.15123679471795523,0.12172004329253332,0.10588326317395506,0.10113249505357566,0.1034146765653259,0.10251192275171876,0.08794487514967211,0.052238758872660655,-0.011195845031003128,-0.10667869781136928,-0.23806302534756058,-0.39555115754918,-0.5561081795540951,-0.6800946442313703,-0.7213787611594069,-0.6946444991693884,-0.6566075787839954,-0.6319099023186694,-0.623070085506761,-0.635405091370072,-0.6720326168548942,-0.684929320203706,-0.5905945992842119,-0.4291244208569929,-0.2608444802574769,-0.06719819447926816,0.13772733602305193,0.2828850629259406,0.3665434654987674,0.42521730488452775,0.4787278856600878,0.527200389297132,0.5664997513159196,0.5952418723683653,0.61350439311755,0.623111747173546,0.6313613033980757,0.647286247174263,0.679153119812624,0.7213339333442007,0.7251594567540853,0.6992936606515633,0.7110911987394468,0.7609636532783001,0.8017747916024436,0.7920746712424314,0.747275672915928,0.6941768030042331,0.6448873120882299,0.6002352983818744,0.5605713671943547,0.5093176800286109,0.3932946667542259,0.08881055563761495,-0.3969397064469594,-0.7299832148406481,-0.8844458112375088,-0.9557421142247703,-0.9750329913585986,-0.9564593002571395,-0.9193148445009034,-0.8782770057627803,-0.8403226565107591,-0.8092672064857138,-0.7907791975376265,-0.7907873484350032,-0.8130850493806437,-0.8527320005002134,-0.8945728078750561,-0.9228195136764056,-0.9257156835186772,-0.8599453955489795,-0.16635887239637742,0.7551384628410724,0.8523599765515014,0.8160915447913067,0.6371814884170638,0.10487143149513024,-0.5194957342977564,-0.7595562912511398,-0.8198373987520078,-0.8340151923406706,-0.8440462849160886,-0.8572306720694778,-0.8653732853985879,-0.8493835491949536,-0.7580789466591035,-0.3018278343657916,0.6174878651618688,0.8843143577384499,0.9437422980792723,0.962410138113285,0.9682405246266924,0.9673982697688812,0.9615974914347196,0.9525029547666386,0.9437699933636967,0.939144472617904,0.9374187200642717,0.9326944302927973,0.9134631110606927,0.8538865376852469,0.6754582437960831,0.22106104000779742,-0.26468240711324237,-0.42665641102515145,-0.40755750255328416,-0.335747512734868,-0.3119568131600563,-0.385896459711278,-0.513185551479416,-0.6185647216851451,-0.6907901718923171,-0.7391774957518978,-0.7153745044641987,-0.5385983246995835,-0.2549794644026644,-0.0019223526676351967,0.17046003896314424,0.28476524770279377,0.3672466221474672,0.3378777643004464,0.17470404586071298,0.047511512699728135,-0.022412982045437502,-0.045487506815834786,-0.03250305940308431,-0.01570736153482188,-0.033131238293431634,-0.0672962139701383,-0.09670664423140517,-0.12346520491841977,-0.15541274746059122,-0.20299730730404142,-0.2892050672578685,-0.36909528845972595,-0.2971675238076866,-0.249360108734367,-0.2504070574791695,-0.2778357624242313,-0.31608117414854026,-0.3619573409999408,-0.41936178863025686,-0.4942241759197696,-0.5863783076292429,-0.6739552765107164,-0.7289018045296141,-0.7338947547199947,-0.6898674118680853,-0.5929146966900573,-0.4545939656028793,-0.30589322078093756,-0.18701629431518033,-0.1210037653913287,-0.09113819649789114,-0.07766859053323774,-0.07132647631425966,-0.07442624668315362,-0.06189016368405693,0.032489348761368574,0.28533237031789327,0.4998176729372823,0.5698894669413592,0.5869699121634324,0.5917092411897399,0.5909614644091653,0.5812730691225194,0.5446550519140788,0.4591453875556021,0.363635880481873,0.3578441845109427,0.45371440719492917,0.604969034308172,0.7507481119339552,0.8186931817163374,0.8155248523980393,0.7937797305231463,0.7771784255025975,0.7748068138590144,0.7927105383456301,0.836279332273545,0.6841796529507926,0.09941284657596978,-0.27591818986005057,-0.4708438843585088,-0.5797564830506623,-0.6314763170951271,-0.6483693023066681,-0.6382911182924211,-0.6126517200523004,-0.5919792339284158,-0.5895643751710677,-0.6039296715550857,-0.6176285263713965,-0.6165121543863055,-0.5973743802831477,-0.5725669763679477,-0.5585108143778178,-0.5737460581203505,-0.6197257419877407,-0.6617275743164251,-0.6758613312145346,-0.6804923446235073,-0.7098013936712426,-0.7594594950443495,-0.8147702386767446,-0.8687160270972517,-0.8944334425759263,-0.8371450969549497,-0.7126641637156041,-0.5856243418672464,-0.4636312644086599,-0.31664752492243387,-0.10661045661025687,0.19270373658177806,0.5557418437116218,0.8442489801701193,0.9494242422919025,0.9355078317362453,0.895184308728521,0.8715252549803826,0.867818610881949,0.8737294260127929,0.8800091435246288,0.8785405622707302,0.8617222761938064,0.8249299240981708,0.7734818749330146,0.723815053121456,0.6961523489729106,0.7011760026271835,0.7360151955773725,0.7829736215112663,0.8205477397369954,0.8230399414347478,0.6731369516349343,-0.5228738089666464,-0.9097257097777259,-0.9503189202696738,-0.9604736842087833,-0.9634177309465951,-0.9629539710196582,-0.9581979598933421,-0.947047346942497,-0.9270531567833645,-0.8870734786528734,-0.8005738711089547,-0.5934048705375088,-0.1452235548366626,0.41827618686153056,0.7507920504026763,0.8866295822239444,0.9397370595589188,0.9577646653026406,0.9544798708100719,0.9346476914934116,0.9003086612005444,0.8555631092716119,0.8063659363012478,0.760741708583617,0.7179162631818193,0.6679496473776388,0.59417295430622,0.4778803423559951,0.31162897259595096,0.09126676625020502,-0.1810244198399195,-0.4591344493232132,-0.6706870198857312,-0.7942554088186656,-0.8529826017931385,-0.8775666862728282,-0.8894604542161703,-0.9001461647595266,-0.9123922627522736,-0.9255902271811558,-0.937554612360446,-0.946410721523877,-0.9530356433977702,-0.9582542556883353,-0.9577585111971699,-0.9388995036393397,-0.891082070515867,-0.8379945188878555,-0.7990254631442767,-0.7613523451260961,-0.6827385062673419,-0.4650099074159831,0.12653259097991373,0.644864390652405,0.7156521333409654,0.6869820269702211,0.658693899873994,0.6643048687585901,0.7235830647136117,0.8284894220013322,0.9188666214694515,0.9076052830875392,0.8167567772823185,0.7761649454754845,0.7734049327583675,0.6466047012220352,0.5287254154316923,0.47979486254669745,0.4760206034450636,0.49912699515222186,0.5318065231309721,0.5595011864315871,0.5838011226855262,0.6121929728793247,0.6500798753442605,0.7057649004994649,0.7892484776518266,0.893252447447245,0.9338088353201625,0.8195304934504284,0.6638663610795543,0.555185062070114,0.49368047913081275,0.4614604688265097,0.4437914832444924,0.4288420347351388,0.4095902726834625,0.38054628024841913,0.34448271208608783,0.30771782950434956,0.2709545203608654,0.21238329530787153,0.11397451098244579,0.011003635674127267,-0.06821864375633993,-0.14008546561579316,-0.21755539069541313,-0.28492135537102675,-0.33448328851269105,-0.3561581067956481,-0.35353225367179625,-0.33408802674127236,-0.3130434121462733,-0.2810223655655248,-0.21955821151195415,-0.12868766846639426,-0.041327756002249055,0.015766013191572385,0.05053271569139178,0.06888214498844915,0.07455575479354137,0.06771323424785854,0.033991478219239445,-0.018539266990464254,-0.06848454196454377,-0.11863892187863079
