-0.009161605909202147,-0.010634824768305918,-0.010982278688920674,-0.011037875089536365,-0.01155210963627699,-0.012754309977926225,-0.014234475171211501,-0.015325491287350558,-0.015527016447965784,-0.01515871066122469,-0.014658373070707685,-0.01433871306254017,-0.014227528837029995,-0.01409549274539348,-0.013518715463855654,-0.012399905435269358,-0.01112821173678081,-0.010023298664418132,-0.008960085036447527,-0.007605001024896045,-0.006020597940282099,-0.00443619485566815,-0.002928234463577449,-0.001552305446476596,-0.00037095272597170313,0.0006505700762066451,0.001574805137433771,0.002408701407486152,0.003061920095189042,0.0032425976775385325,0.002888191848523483,0.00210293921311438,0.0010814164538146378,-1.6546849790186814e-05,-0.0008782396092940328,-0.0013160348937998963,-0.0014619670840879113,-0.0015314582969969228,-0.0016634918159170752,-0.0020039994023503226,-0.002434845779958315,-0.0024070492947947104,-0.0014411195058221778,0.0004698924938571545,0.0029646319683303652,0.00566784422395849,0.008266823733690672,0.010539188325352623,0.012533592353239132,0.014104098481629457,0.014951894280621823,0.015097823040621353,0.014701723341433017,0.013860878164482766,0.012478000240484044,0.010379358321268864,0.007467673713271888,0.004229374615990739,0.001519212167106562,-0.00010688560237418665,-0.0006697655417809376,-0.0005168844445950516,0.00011548670772071085,0.0009076882071490786,0.0015470086522701664,0.001818024597008342,0.001421924040247885,0.0003726047100273262,-0.0008851885161919035,-0.0015801023604262614,-0.001239594773993014,5.98936516362895e-05,0.001845821510958007,0.003652596476880792,0.005202255455791446,0.006439200331930033,0.007405130978474686,0.00833631280266938,0.009295292827171921,0.010553089569436848,0.011908169293127725,0.012936642674469579,0.013145118457126917,0.012074949919253595,0.009601055879115816,0.005980557897944497,0.0016512456860267141,-0.0028934886427299123,-0.006937882808253171,-0.010336012338404138,-0.013101768186401585,-0.015165661283266803,-0.016374807959097543,-0.01675701070206226,-0.01645819827216048,-0.016069049195014257,-0.01623582553327952,-0.017076670710229773,-0.018341413786676204,-0.01945327319322039,-0.02025937383568129,-0.020794455960687644,-0.020961236586813516,-0.020217678679149823,-0.01836226136494194,-0.01568684645204954,-0.01299058396089141,-0.010850246885144762,-0.00969669232206911,-0.009307538957062282,-0.00920330535359422,-0.009126861374712792,-0.0088836410575661,-0.008445846201846298,-0.007945508611329293,-0.007570256490406691,-0.007570256490406691,-0.007841270720000624,-0.00840415104531483,-0.009092116840223437,-0.009390929270125218,-0.008070594080923697,-0.003393826233246917,0.005820727893860739,0.018544594061485294,0.03170626366055087,0.04190760716090648,0.046820650706692696,0.045965908573518816,0.04071930377548087,0.0334643979933328,0.026174751964555973,0.0197259511127294,0.0141944351288739,0.009469024075339906,0.0054385251508960245,0.0025685314115699086,0.0017207368989357256,0.003180055371527392,0.006244625793356921,0.009816482283815266,0.012846301739364532,0.015076975462355622,0.0168003652606482,0.01818324318464692,0.019218662900170283,0.019864933538547423,0.01969120229037944,0.018558495305569522,0.01683510979513755,0.014708673963475132,0.012241726257518858,0.009469024075339906,0.00601530243243385,0.001074467546916767,-0.006242970679163056,-0.0164720952283841,-0.02893189350059623,-0.04186423116301752,-0.05325385660949572,-0.06146077893052241,-0.06537315158313521,-0.0647477242351632,-0.0593551821014045,-0.04914690084258859,-0.034095099409850026,-0.015075320348161754,0.005035474829665576,0.022026113904699197,0.03249847163464875,0.03543100810877207,0.032074569447291965,0.025167126161479852,0.017467479189430465,0.010831054421072895,0.005542763042224693,0.0014497205254114898,-0.001732983028826087,-0.004137384140910613,-0.005735686754464545,-0.006249921301205169,-0.005332636433234095,-0.002865692157566308,0.0004768418295410859,0.0037707317532191414,0.006397505175398565,0.008100043107564802,0.008926991328291433,0.008961735862780788,0.008315465224403648,0.006981233078978504,0.004729711777721682,0.0018666686604376802,-0.0009616290647848466,-0.0031992508371016842,-0.004505688212507465,-0.0046794151728148424,-0.003616198543341814,-0.0013855265354949685,0.0016859910780881897,0.004806151468742504,0.0071827582395937286,0.008419703115732315,0.00855868554155034,0.008093096773383294,0.007412077312656194,0.006883945809691949,0.006744963383873925,0.00725919793061455,0.008628178898389653,0.010768511686275694,0.013749693938972591,0.017648156771779958,0.022060862727049154,0.025966276181898635,0.028294241462036886,0.028210846861113345,0.02574390344301768,0.021685606318265948,0.017050531911976398,0.012860202983448758,0.009677495570136637,0.007662248251844999,0.006744963383873925,0.006348859396824984,0.005890216962839447,0.004986829051091995,0.0035692070213899775,0.0017137879920378547,-0.0002528174067547472,-0.002066541708361463,-0.0035814531512803386,-0.0046516212603676015,-0.0054368700367021594,-0.006208226144673702,-0.007271444060504911,-0.008744658631748076,-0.010183128668501889,-0.011030924467494253,-0.011156009937088656,-0.010433299607690695,-0.008800255032363771,-0.006597379509680531,-0.004672468838633335,-0.003748232491048027,-0.0041582312903902865,-0.006055342474771452,-0.009140758330936413,-0.012823799046904933,-0.016479045850426213,-0.019529717172101817,-0.02168394691621148,-0.022698523341329713,-0.022267674819791416,-0.020787509626506138,-0.01918920958566857,-0.018021753778508693,-0.01712531648880335,-0.016048197328887917,-0.01463752549244195,-0.012976682716807181,-0.011301938697088187,-0.009821777791663515,-0.008612626827972166,-0.00779262922928765,-0.0072783946825470255,-0.006527886152841215,-0.004609926103836134,-0.0010311207064799188,0.0036734436263604646,0.007995805216236133,0.010247326517492954,0.00955241438840284,0.006098692745496785,0.0011300605172439762,-0.004262468324146834,-0.009654997165537643,-0.014936337922343734,-0.019585309284856904,-0.022830555145105624,-0.023970212751957654,-0.022906994836126446,-0.02034276414874422,-0.017396330718397288,-0.014790404874483595,-0.012698717865171138,-0.01082939930687903,-0.008661268318685142,-0.005325685811191983,-0.00014163129458590453,0.007002080657244238,0.01549392273980969,0.02423594004942455,0.0317271112388166,0.036438629623987584,0.03752964574012664,0.035222528038254125,0.030761184880132554,0.02555627952648668,0.020726626293763407,0.017001886133402814,0.014708673963475132,0.013527316912231026,0.012804610870693671,0.012262578123645198,0.01194291382761708,0.012262578123645198,0.013548164490496761,0.01572324610073276,0.018252732253625628,0.020170692302630713,0.020615437780392626,0.019385443526296155,0.017293752229123088,0.015632909453488317,0.015146468819194936,0.015598160631138358,0.016008161574410918,0.01569545218828552,0.014743418497964487,0.013534267534273139,0.012213932345071617,0.010789359264541429,0.009163261023396011,0.007009031279286352,0.00417378164566353,0.0009632811774762879,-0.0020526434657796608,-0.004644670638325488,-0.0067572095137642865,-0.008619573162153674,-0.010815502350655409,-0.013907864541001876,-0.01809124713534801,-0.022691572719287602,-0.02662478008658432,-0.029154266239477186,-0.030252228689797753,-0.030710871123783286,-0.031781039661656615,-0.03475526700445079,-0.03974474595339721,-0.044845404839993205,-0.047013518676744664,-0.043365235358847315,-0.03265662937309621,-0.016604131320020615,0.0003865029954877346,0.013381388152231496,0.019475780173540597,0.01878086804445048,0.013763590895196211,0.007634450051537151,0.0027631072365012018,-0.0009199343370394396,-0.005026873381290203,-0.01117685751535439,-0.019613107485164753,-0.028612233492428713,-0.035318147329764994,-0.03803525739918886,-0.03680526314509239,-0.03319866212014469,-0.0293488407780503,-0.026770713134444454,-0.02550597005799802,-0.024248177603593702,-0.020481746574562247,-0.011510414479745525,0.003367681860774753,0.021442386001119258,0.037752018479007596,0.047856083285797865,0.05008675700878896,0.04562540956280678,0.037661677543902546,0.02981610181185363,0.024611196458207762,0.022929506104307256,0.024347128562795334,0.027599325045086165,0.031435253718817543,0.035208631082030505,0.03859981427799996,0.04119879378773214,0.04267896326887803,0.04302640861377157,0.04244963990795496,0.04126133652252934,0.03945455641117383,0.0367582939200157,0.03274863828597695,0.02765491715784125,0.02219984515286718,0.016994939799221308,0.012255627501603087,0.007995805216236133,0.004069544611906982,0.00037955387419683344,-0.00311586095282481,-0.006242970679163056,-0.008647371362461522,-0.010120590221565294,-0.010912789619941965,-0.011385333298011727,-0.01177448237515795,-0.01225397238740922,-0.012934987560275715,-0.013636850311407944,-0.014422103375603108,-0.01544362613490285,-0.01680565648063584,-0.01842480409973914,-0.020141238988129,-0.021704794494477216,-0.023219704222251846,-0.02491529153237597,-0.02672901797791299,-0.028313421062526937,-0.02938358531253965,-0.02977273867754648,-0.02977968929958859,-0.029890873525098772,-0.030495449006944442,-0.031697649348593676,-0.032976289381263735,-0.03365035393208811,-0.03310137485085814,-0.030926293240622134,-0.026951390716793946,-0.021239201438449564,-0.014012102432330545,-0.005944158249261275,0.002547683833304175,0.010935292312401564,0.01839171467944365,0.02386068792850195,0.026647291354765127,0.026876610427827595,0.025243565852500673,0.02274882423409716,0.02009425261160989,0.017682905594129914,0.015834430326242935,0.014743418497964487,0.014097147859587347,0.013673249960091163,0.013492572377741673,0.013520370578049518,0.013555115112538874,0.012936642674469579,0.011519020215981503,0.009531566810137107,0.007495467625719129,0.005730386958755692,0.0041459851604999255,0.002770056572185133,0.0018597197535398092,0.0013732799768185469,0.0012412464578983947,0.0012759922787459305,0.0013176870064913377,0.0014288733759318167,0.00192226205955095,0.0031453099794659166,0.005091066942420663,0.007321740665411752,0.009420378296766323,0.011060373494135361,0.012158340232316529,0.01299223478722467,0.01370104816039901,0.013944268477545702,0.01347172479947594,0.012151389610274418,0.010073599557185578,0.007690046452152846,0.00493818756037902,0.0014705681036772235,-0.0026711163326350153,-0.006708563735190706,-0.0097522844348242,-0.011239395962290984,-0.011211602049843745,-0.010565331411466603,-0.01029431718187267,-0.010572282033508717,-0.011156009937088656,-0.011586854170766346,-0.01135753509770388,-0.010447196563914313,-0.008960085036447527,-0.007222798281931331,-0.0054577176149678925,-0.004102638320063077,-0.0035745042443824683,-0.003796876125691305,-0.00430416305189224,-0.004568230947304666,-0.004373652120870949,-0.00406789207042948,-0.0041582312903902865,-0.004957380024450888,-0.006833649204785108,-0.00976618139104782,-0.013407526950484873,-0.01729904344911073,-0.021197506281918094,-0.024804107306865792,-0.027743594403031226,-0.029508670782134056,-0.029988160794385328,-0.029244607174582236,-0.02690969556026248,-0.022302419354280772,-0.015311590043266335,-0.006312464036002371,0.003325987133029346,0.01188732171486199,0.01803035951474467,0.021164421149483213,0.02133120177560908,0.01930205321323322,0.016049856730942388,0.01258918446599422,0.009642751035647282,0.007620553095313532,0.006501743066727234,0.006286320949888388,0.006876995187649835,0.008002755838278247,0.009309194071256148,0.010379358321268864,0.01099088442515665,0.011046476537911739,0.01028207105198231,0.008697667967368362,0.00677970791836328,0.0052439506123229136,0.004417002391596282,0.004132086917918123,0.0041668327387656585,0.004458697548127749,0.004750559355987416,0.005063273029973422,0.005723440624574184,0.006967336122754885,0.008697667967368362,0.010671224416989138,0.012422408127728955,0.013464774177433825,0.013694097538356898,0.01317291236957416,0.012200035388847997,0.011352239589855633,0.011206306541995496,0.012012407184456394,0.013694097538356898,0.01588307610481652,0.01810679920576549,0.019670354712113706,0.02015679534640709,0.019434085017009127,0.01749527738973831,0.014305623642244684,0.01017783316065364,0.005494117263651113,0.0006992141396359834,-0.0038733166742842477,-0.008167881350210252,-0.012108039339549083,-0.015839725834091184,-0.019529717172101817,-0.023282246957049047,-0.02721545432434577,-0.031100024488790116,-0.03431747214873099,-0.03640915915804345,-0.03747238136173526,-0.037805938326126394,-0.03811864771225179,-0.038598137724503066,-0.03876491406276833,-0.0378684810609236,-0.03524865397292568,-0.03074561565827264,-0.024762412150334326,-0.018084296513305894,-0.011197705093620124,-0.004318060008115861,0.002095990306216509,0.007662248251844999,0.012116645075785063,0.015341043357768046,0.017592564659024867,0.0187947650006741,0.018836460157205567,0.017898323423108153,0.016452907052172835,0.015056127884089887,0.014159690594384548,0.01404850636887437,0.014514095137041414,0.01504918154990838,0.015104773662663466,0.014521045759083527,0.013395285108455118,0.01217223718854015,0.011352239589855633,0.01110901927270894,0.011157665051282522,0.010956135602806692,0.010323766208513777,0.009316144693298261,0.007877670368683844,0.006168181814475493,0.004688016621190214,0.004118189104122381,0.0043892041912884355,0.004715814821498062,0.004319715122309727,0.003006327124861833,0.001248195793582326,-5.8241667580666454e-05,4.3005569611227054e-06,0.0018249739326922734,0.0052439506123229136,0.009760885883199571,0.014805961232761686,0.01967730533415582,0.02357577245482379,0.026126106185982392,0.027376952306205203,0.027710509270596338,0.027356104727939475,0.02652220588517073,0.02522271827423494,0.023568821832781677,0.021887131478881175,0.020149849012225583,0.01749527738973831,0.01265172720079142,0.0044100517695541686,-0.007445171020812289,-0.021524116912127723,-0.03513051912537339,-0.0457279323098931,-0.051850139682952476,-0.05318435038907458,-0.05057844598446393,-0.0455889627476569,-0.039869831422991615,-0.034331373392815216,-0.029091723504679985,-0.024109195177775676,-0.01945327319322039,-0.015561760982455139,-0.01285159724721278,-0.011364485719745993,-0.010905838997899852,-0.011482620567298284,-0.01309481756435947,-0.015325491287350558,-0.017681246192075444,-0.01972429171067493,-0.020905644474058425,-0.019911919915066533,-0.014866848853365023,-0.00429026609566862,0.011373087168121368,0.029287961733168173,0.04536132022809133,0.056174189832334735,0.06010740148749206,0.05766130564766213,0.05094844547614434,0.04256082413346513,0.03441643168365383,0.02775915504916992,0.02286695908164945,0.019406291104561886,0.01695324464268984,0.01522985913225787,0.013742743316930477,0.01192901687139346,0.009330041649521883,0.005924965785189408,0.002144634369645847,-0.0013716282929131661,-0.004505688212507465,-0.007556359534183071,-0.010586178989732338,-0.013386683660079746,-0.015770236765112477,-0.017597855879012508,-0.01884175137719321,-0.01948802201557035,-0.01955751108454906,-0.019182258963626457,-0.01872361652964092,-0.0186471768386201,-0.018869549577501057,-0.018640226216577988,-0.017549214388299535,-0.015672945207965316,-0.013525661798037162,-0.011517365101787636,-0.0097522844348242,-0.00837635713286759,-0.0074521216428544024,-0.007000425543050373,-0.006965681008561018,-0.007174156791218357,-0.0073270361732599995,-0.0073270361732599995,-0.007083815856113308,-0.006687716156924972,-0.006020597940282099,-0.004964330646493002,-0.0034980632670034645,-0.0016426446664374022,0.0007826035951267973,0.004076493518804853,0.007954110059704665,0.011935967493435572,0.016334772204620547,0.02158831904897939,0.027210171680079335,0.032686095551179746,0.03735591877981926,0.040205064940879644,0.03999659344608291,0.03645948149011392,0.030281690580020677,0.022741873612055045,0.015222908510215757,0.008975637106865013,0.004722765443540175,0.002325311951995338,0.0010258234834874286,0.00010158846513890855,-0.0009407819153051735,-0.0023514563244675015,-0.0040470449209498065,-0.005763480666911786,-0.007188053747441976,-0.008466693780112031,-0.009807876547579288,-0.011288041740864566,-0.012858547869254893,-0.014401255797337373,-0.01588142099062265,-0.017215653136047795,-0.018369211986984053,-0.019355985923933835,-0.020189880478841973,-0.02043310508384927,-0.019925816871290154,-0.018897343489948298,-0.017799381039627735,-0.017139213445026974,-0.017090571954313998,-0.017563111344523156,-0.01843175043392065,-0.019731242332717044,-0.02114886479120512,-0.022246827241525685,-0.02270546967551122,-0.02222597966325995,-0.020954285964771405,-0.019251748032605164,-0.017389384384215778,-0.015311590043266335,-0.012712614821394757,-0.009550759274208974,-0.005971956449569123,-0.0014063736849746415,0.005285641480993775,0.014243080907447482,0.023839836062375608,0.03160898067912492,0.035702022338365995,0.03567422413805815,0.03224829640759934,0.02699474956324049,0.02155357022662943,0.017349344341878178,0.015188163975726404,0.015361890936033778,0.01779408981964009,0.02180374116581824,0.02602881891669584,0.029093387194595064,0.029892541502874452,0.028085761391518943,0.02381899277197048,0.01746053285524896,0.009663598613913015,0.001255144700480197,-0.006812801626519375,-0.013803630937533813,-0.01937683350219957,-0.023636651499705914,-0.026902744938220362,-0.029466975625602587,-0.03130849598358685,-0.032170188738802834,-0.03137798934042616,-0.028765112874470356,-0.024998686133299513,-0.02114886479120512,-0.01801480315646658,-0.015318540665308446,-0.012323465744248533,-0.008313814398070387,-0.002733658638646156,0.004368356613022701,0.012373762349155375,0.01962865955558224,0.023992724020138467,0.024249837005648173,0.02092120083233652,0.0162444312695155,0.013228504482329246,0.013944268477545702,0.01861408741832461,0.025410346478626545,0.03163677459157216,0.035194734125806884,0.03545880202121931,0.03273473704189272,0.027724410514680567,0.02115052419325959,0.013200710569882005,0.0037846299958009437,-0.006715514357232819,-0.017069724376048263,-0.025596310993103073,-0.03082205963715407,-0.031565617544817764,-0.02728494768118508,-0.019210057163934303,-0.010808551728613296,-0.006215176766715815,-0.007764831028979803,-0.01481820307479144,-0.024519196121048237,-0.03330290001147335,-0.03822288560358046,-0.038097800133986066,-0.033546120328620053,-0.025999357026472915,-0.017271245248802882,-0.008904488635831834,-0.001899762368593775,0.003416326352990152,0.007203605817859462,0.009885971352793975,0.011845626558330522,0.013555115112538874,0.015209011553992135,0.017057478246157904,0.018836460157205567,0.020073405033344156,0.020476455354574603,0.02009425261160989,0.019357645325988306,0.019100528052617995,0.02030967901630934,0.0236452615238025,0.028843220543266865,0.03479863442661855,0.04010083133741158,0.043172367388795346,0.043068129497466676,0.039739471884851996,0.03414541316619929,0.027543732932331078,0.020573746911721764,0.013159015413350537,0.004882595447623932,-0.004297212429850128,-0.014130237279882833,-0.024081401265328435,-0.03315001634157111,-0.039737795331355096,-0.04176694389373096,-0.03750712589622462,-0.026673425865157897,-0.011169906893312277,0.005299542725078001,0.01875306984414263,0.02695305440670902,0.029767456033280053,0.028495762334791504,0.02450695856687909,0.01909357743057588,0.013436980264986584,0.008239025533382826,0.0038124264809645484,0.0003934521167786358,-0.0023306087462017675,-0.004873993999248559,-0.007632799225203893,-0.010419402651467072,-0.012983633338849294,-0.015005831279183047,-0.016694467967265057,-0.018223278939123917,-0.0193976810804653,-0.02000920718435309,-0.020217678679149823,-0.020460898996296512,-0.02085699869548485,-0.021100219012631538,-0.020641576578646,-0.019244801698423658,-0.016798705858593724,-0.013622953355184323,-0.010370756872893492,-0.007549408912140958,-0.005555004884254448,-0.004498737590465352,-0.004088740077481274,-0.003921960737713586,-0.0037204360058844224,-0.003247894471744962,-0.0022750157758745586,-0.0006141725714537284,0.001818024597008342,0.004868694203539706,0.008405806159508694,0.011935967493435572,0.014653077562859438,0.015855282192369275,0.01524375608848149,0.013145118457126917,0.010372411987087358,0.007905468568991691,0.006286320949888388,0.005216152412015066,0.004215476373408936,0.0029646319683303652,0.0014775170105750942,-2.3495983944669785e-05,-0.0010658660985413944,-0.0016565429090192045,-0.0020248469806160565,-0.0023514563244675015,-0.002754505788125829,-0.0035050121739013352,-0.004797550020367131,-0.006722460691414327,-0.009008726527160503,-0.011211602049843745,-0.01277515755619196,-0.013275495146708961,-0.012768206934149843,-0.011635499949339927,-0.010273469603606937,-0.008758559875832303,-0.007174156791218357,-0.005443820658744272,-0.0037204360058844224,-0.002518235235449129,-0.001976202917186718,-0.001941457096339182,-0.00210823643610687,-0.002184676984699813,-0.002184676984699813,-0.002309761167936034,-0.0026085740266238743,-0.002858743250668437,-0.002782302702075494,-0.0024834898433876537,-0.0022750157758745586,-0.0024070492947947104,-0.002858743250668437,-0.003511961509585267,-0.0040053501932044,-0.004130434805226682,-0.003963655465458993,-0.0036300967859236163,-0.0032200979865813577,-0.0028170480941369694,-0.0023584052313653722,-0.0016912883010806797,-0.0009060360944576374,-0.00021112263613073425,0.0002336220269376668,0.0005254858929704244,0.0007548071099631928,0.0008520952368218694,0.001011925240905626,0.0013802293125024783,0.002304464373729604,0.0039583586712525634,0.006091742123454672,0.008106993729606916,0.00944817649707417,0.009809531661773153,0.009392584384319082,0.008926991328291433,0.00893393766247294,0.009392584384319082,0.010226478939227221,0.011359190211897746,0.012721220557630735,0.014055452703055879,0.015028333971642644,0.015459178205320336,0.015271554288789338,0.014437655446020593,0.01300613174344829,0.011143763807198295,0.00903817555380161,0.006842250653160482,0.005132762098952131,0.004257171529940404,0.004076493518804853,0.003979206249518297,0.0033537836181929508,0.0017554822909972012,-0.0005794267506061923,-0.002789251608973365,-0.003852469096018514,-0.002928234463577449,-6.519078887156762e-05,0.004069544611906982,0.008510044050837363,0.012415457505686843,0.014993585149292684,0.015570366718691116,0.01398596363407717,0.010761561064233581,0.006731062139789699,0.0027978530573487376,-0.00039180013272301274,-0.002858743250668437,-0.005089416116087404,-0.007778727985203423,-0.011204651427801632,-0.01492244096612011,-0.01861242801627014,-0.022017503880602612,-0.02474156457206859,-0.025964612491983556,-0.025346140053914265,-0.02317106273153887,-0.01999530594026886,-0.016374807959097543,-0.01240685605731147,-0.007966356189595028,-0.0037343342484662248,-0.0013855265354949685,-0.0024209475373765128,-0.006965681008561018,-0.013560410620387122,-0.019765986867206396,-0.023226654844293957,-0.022608182406224663,-0.018410902855654915,-0.012344313322514268,-0.006242970679163056,-0.0011562048897161396,0.0028673442702577493,0.0061542848582518735,0.008774107658389185,0.010740717773828451,0.012040205384764241,0.012630879622525688,0.012450202040176196,0.011498168349855164,0.009955460421772682,0.007703943408376467,0.004465643882309257,0.0001085375864298097,-0.005131111272618872,-0.010725165703410967,-0.015916165525112005,-0.019494968349751857,-0.019891068048940194,-0.015367182156021422,-0.0047419579076120435,0.011157665051282522,0.02846101780030215,0.042241164125297624,0.0491138843159234,0.048696932750608726,0.042963891606138005,0.035125245056828173,0.02787728989672221,0.022366621491132443,0.017960870445765963,0.013575962690804608,0.008746313745941944,0.0040417481267433775,0.0001780289279746394,-0.0027267093029622242,-0.004797550020367131,-0.006215176766715815,-0.007049071321623954,-0.007466018599078023,-0.0074938167993858695,-0.006882290695498084,-0.005568906128338674,-0.0036300967859236163,-0.0006489179635152039,0.004187679888245332,0.011317495055366278,0.020393069329372276,0.03014270815420265,0.03870405216932863,0.044332876861773715,0.04603541479393995,0.043624050625017556,0.037793713635539065,0.029920339703182298,0.021317300531524856,0.012755965092120089,0.004632424508435127,-0.002733658638646156,-0.009196354731552106,-0.014866848853365023,-0.019759036245164282,-0.02384512728236325,-0.026902744938220362,-0.028563587713855136,-0.028084097701603864,-0.024540043699313972,-0.017097518288495508,-0.006326360992225991,0.005514964841916846,0.014937993036537598,0.019024088361597174,0.016696127369319528,0.009239700714416833,-0.0007392567546899491,-0.010787704150347561,-0.019286496854955124,-0.025672746396263286,-0.03007155110744826,-0.03315001634157111,-0.03559611218140104,-0.03759746254346906,-0.03864678350307665,-0.037917122551636574,-0.03484560793955584,-0.0287929067869176,-0.019147514429137105,-0.006388903727023193,0.0073564851999011055,0.018940698048534235,0.025493732503828873,0.025577122816891805,0.019621713221400734,0.009920715887283328,-0.0006628162060970062,-0.009863468660334374,-0.016305318890118835,-0.019633950775569883,-0.020141238988129,-0.018299718630144738,-0.014839050653057176,-0.011030924467494253,-0.008251271663273187,-0.007424323442546555,-0.008237374707049565,-0.0097522844348242,-0.010968381732697052,-0.0113714320539275,-0.010926686576165584,-0.009599405052782554,-0.007681440715916868,-0.005999750362016364,-0.005311788854968362,-0.006117885209568654,-0.008362455888783362,-0.011281091118822454,-0.013699393046205145,-0.014769561584078467,-0.013942613363351838,-0.011030924467494253,-0.005909413714771922,0.0009841287557420216,0.008885296171759965,0.016974092220955576,0.02434017794075322,0.029677119386035608,0.031970331555963294,0.031268468804831064,0.02834288295274986,0.023964921531970013,0.01860019046210099,0.012533592353239132,0.006223778215091188,0.0003031133684824965,-0.004755854863835664,-0.008862793479300368,-0.012031599648528261,-0.01444295095386884,-0.016006506460217056,-0.01654158858522341,-0.016089892485419383,-0.015165661283266803,-0.014415152753560994,-0.014060748210904127,-0.013622953355184323,-0.01240685605731147,-0.009842621082068641,-0.005603650662828029,8.769017967850017e-05,0.006355810018867098,0.01204715171894575,0.016571041899725126,0.019871879872728933,0.022276284843888005,0.02394407395370428,0.02481966795300449,0.02481966795300449,0.024256787627690284,0.023624413945536764,0.02342289307278215,0.023867634262683457,0.02498644857913036,0.026668138933030862,0.028606950848162286,0.029892541502874452,0.028815422342959016,0.023881535506767686,0.014729521541740865,0.002714463601857924,-0.00958550380869833,-0.019244801698423658,-0.02441495822971957,-0.02452614245522975,-0.02005089805302395,-0.011635499949339927,-0.0007045113626284736,0.01028207105198231,0.018607141084143103,0.02191492967918902,0.019851036582323803,0.013874775120706388,0.0062168275930490745,-0.0012256965314112116,-0.007396529530099314,-0.011795329953423684,-0.014519390644889663,-0.016214977955013785,-0.01772988768278842,-0.019328192011486594,-0.020752765092016782,-0.021663099337945746,-0.02204530208091046,-0.02189241841100821,-0.0210098823653871,-0.019147514429137105,-0.016103793729503612,-0.011885666600668126,-0.006819747960700882,-0.00157315302474233,0.002846497120778076,0.005375982416098823,0.0055636106204904265,0.0038680198800778182,0.0016512456860267141,-0.0001138347236650878,-0.00068366378436274,0.00013633411447202038,0.0017832792049468664,0.003381580103356556,0.004291916922001879,0.0043892041912884355,0.003909714607823225,0.0032286990061706697,0.0025129384412426996,0.0016998897494560523,0.0004698924938571545,-0.0009963748856323827,-0.002115185343004741,-0.0026016251197260036,-0.0026433198474714106,-0.00246264226512192,-0.0026294216048896083,-0.003553656666116734,-0.005026873381290203,-0.006284665835694524,-0.006520935530799103,-0.005311788854968362,-0.002803149851555167,0.0005880277701955044,0.004528186617106458,0.009024278597577989,0.014430709111839085,0.020580693245903274,0.026807121358848888,0.03179660459565591,0.03431914441436727,0.03406202285313636,0.031483895209530516,0.02776610138335143,0.023728651836865434,0.019552219864561418,0.015160365775418556,0.010566986525660469,0.005820727893860739,0.0010466706329671017,-0.003372979083767244,-0.006917039517848044,-0.009404826226348839,-0.01069736750310312,-0.010857197507186875,-0.009863468660334374,-0.007903813454797825,-0.005346533389457717,-0.002691963482114688,-0.0005794267506061923,0.0006366718336248428,0.000615824255359109,-0.0005933249931879946,-0.0026711163326350153,-0.005207550963639693,-0.0075216107118331104,-0.009057372305734083,-0.009342283491551638,-0.008424998623580563,-0.006666868578659239,-0.0045890785255704005,-0.002789251608973365,-0.001552305446476596,-0.0008643413667122305,-0.000322308791178183,0.00033785906069421444,0.0007409088673813903,0.0004212486448208464,-0.0005933249931879946,-0.001997050495452452,-0.00335213150550151,-0.004811451264451358,-0.0067363619354985525,-0.009078219883999818,-0.010912789619941965,-0.011281091118822454,-0.0097522844348242,-0.006215176766715815,-0.0012326454383090825,0.004215476373408936,0.0089686864848229,0.012436305083952577,0.014618333028370083,0.01576494125726423,0.016161040956452564,0.015848331570327164,0.014799010610719573,0.012999185409266782,0.01033071683055589,0.006835300031118368,0.002839547356308084,-0.0013994247780767708,-0.0055202603497650935,-0.008953134414405414,-0.011406180876277462,-0.013268544524666848,-0.014943288544385844,-0.016388709203181768,-0.0177159907265648,-0.019091922316382015,-0.020829204783037604,-0.022788859988574155,-0.023935463929607693,-0.02246919998040664,-0.017187859223600555,-0.008605676205930054,0.0007478582030653218,0.007620553095313532,0.009753939549018065,0.007002080657244238,0.0011995517301529876,-0.005492466437317853,-0.011440925410766814,-0.015895317946846274,-0.018918191068214033,-0.020989034787121365,-0.022378863333162198,-0.023164112109496756,-0.023546314852461475,-0.02377563392552394,-0.0238103827478739,-0.023518516652153626,-0.022677675763063978,-0.021058523856100072,-0.018584634103822897,-0.015533962782147291,-0.012274819965674954,-0.00905042168369197,-0.005756534332730279,-0.0022333210481291516,0.0015331104096883643,0.005230049368238687,0.008530891629103098,0.011400881080568607,0.013784438473461945,0.015702398522467027,0.017279850985038862,0.01896849196098148,0.020782218406518498,0.022359675156950937,0.02371475488064181,0.0249516997567804,0.026035765250877346,0.02700864651946411,0.027780002627435654,0.027925931387435186,0.02691135925017756,0.02467373490514435,0.021699503274489572,0.018697477731387545,0.01621663306920765,0.014395960289489125,0.01299223478722467,0.011741388667001853,0.010483596212597533,0.009274445248906188,0.008086146151341182,0.006703268227342458,0.005118865142728511,0.003416326352990152,0.0018388721752740755,0.0008312476585561355,0.0006019260127773067,0.0011509076667236494,0.002582429654151711,0.004722765443540175,0.007071569726222947,0.009350889227787616,0.011386984124344987,0.013159015413350537,0.014937993036537598,0.017224258872283772,0.020122050811917737,0.023082381198488294,0.02538949890036081,0.02627898985588464,0.025194920073927096,0.022005270614294067,0.017120020980955105,0.011324441389547786,0.0052439506123229136,-0.0007740025755374852,-0.006500087952533369,-0.01165634752760566,-0.01595786068164347,-0.019091922316382015,-0.020961236586813516,-0.022086997237441924,-0.023073775462252314,-0.02414393971226503,-0.025269700362893444,-0.026520546483116254,-0.027833931050275665,-0.02870257013967316,-0.02850104926691854,-0.02697223829505968,-0.024150890334307146,-0.020113440787821152,-0.015388034022147761,-0.010586178989732338,-0.0061456834098765015,-0.002532133906816992,-0.00010688560237418665,0.001018874147803497,0.0006714176544723789,-0.0010241713707959874,-0.0034494196323601864,-0.0055411079280308275,-0.006354159192533838,-0.005548058550072941,-0.003553656666116734,-0.0014272212632403755,-0.0003431561550508864,-0.0011006119193889303,-0.0037412831553640955,-0.0073270361732599995,-0.01053058687697725,-0.012448546925982332,-0.01271956544343687,-0.011545163302095483,-0.009397879892167331,-0.007007376165092487,-0.0047836530641435105,-0.0022194228055473493,0.0022210749182387905,0.01033071683055589,0.022595940564194908,0.03653592118113474,0.04745997072302772,0.05071218435676097,0.04450657809491746,0.031303217627181024,0.01641121189564137,0.005327336637525242,0.0011926023944690562,0.004257171529940404,0.011762240533128195,0.020010862298546952,0.026126106185982392,0.02850966357887573,0.026584752907828538,0.02059459020212689,0.011776137489351817,0.001845821510958007,-0.007605001024896045,-0.015714640364496782,-0.022434455445917288,-0.028049353167114512,-0.032983240003305846,-0.03784068286061575,-0.04287882045171757,-0.04750692279666198,-0.050279624978840934,-0.049834888076800234,-0.0455959090818384,-0.03815339653460176,-0.028799861696820316,-0.01912666685087137,-0.010440250229732807,-0.0034077244758287193,0.001658194592924585,0.005007676629357728,0.007036825191733593,0.008266823733690672,0.009184108601661745,0.00969834314840237,0.009496817987787147,0.008197330376851357,0.006147338524070366,0.004069544611906982,0.0026380226244789202,0.002144634369645847,0.002373955586638616,0.0030758183377708444,0.00406259527622305,0.005355134837833089,0.007029878857552085,0.009017327975535876,0.010900543490051602,0.012033254762722129,0.01188732171486199,0.01044885167810818,0.008245976155424939,0.005938862741413028,0.003951409335568632,0.002304464373729604,0.0006992141396359834,-0.0009477308222030444,-0.0022472188619248935,-0.002594675784042072,-0.001865016547746239,-0.0006280708140355307,0.00037955387419683344,0.0006019260127773067,4.599536617588114e-05,-0.0007323078477920784,-0.0011770524679818731,-0.0007879008181192875,0.0005185365572864929,0.002297515038045673,0.004159883403081727,0.005772082115287159,0.00706462339204144,0.008218177955117091,0.009635804701465774,0.011783083823533321,0.015076975462355622,0.019941373229568245,0.026181702586598084,0.0328459255552635,0.03841913669565047,0.041546247708346896,0.04181031989161993,0.03972557492862837,0.036327445398477404,0.03256796070362746,0.029204575707965846,0.02645271681619202,0.023923226375438547,0.021074080214378167,0.017224258872283772,0.01205410234098786,0.0055844581987561604,-0.0016912883010806797,-0.008960085036447527,-0.01563820067347596,-0.0215102199559041,-0.026277326165969565,-0.029800536877854326,-0.03233001874288659,-0.03427577699219952,-0.03590187523334493,-0.03758356558724544,-0.03932779867594314,-0.04058558684248686,-0.04078016566892057,-0.03925830531910383,-0.0349498415430239,-0.026159187030556672,-0.01201075207026253,0.005813777271818626,0.02286695908164945,0.03415931012242291,0.036348292976743135,0.029482540559601894,0.016452907052172835,0.001595652715699505,-0.011274144784640946,-0.019974462649863734,-0.024088347599509945,-0.024644277302782035,-0.023164112109496756,-0.021093268390589424,-0.01903632591576632,-0.01662497889828635,-0.013053122407828004,-0.008265168619496806,-0.003101962710243008,0.0012342975510005237,0.004013951641579773,0.005382933038140936,0.005709539380489957,0.005744288202839918,0.005973607275902383,0.0064669985322378795,0.007029878857552085,0.007578857938782065,0.00796106068174678,0.007947163725523159,0.007412077312656194,0.006237675171314808,0.004611576930169393,0.002735310751337597,0.0008729423863015425,-0.0007879008181192875,-0.0020804399509432654,-0.0029977261052725208,-0.003484165024421662,-0.0034355213897783845,-0.0026850145752168176,-0.0011978996174615464,0.0006575194118905765,0.0024851419560790945,0.004326661456491234,0.006550384557440209,0.00926749891472468,0.012498847818749777,0.01620273611298403,0.020045611120896915,0.023408991828697923,0.025764751021283408,0.026883565337730314,0.026793224402625267,0.02563271492964689,0.023200520333901187,0.01927425501292537,0.014111044815810965,0.008523941007060984,0.003471918894531301,-0.0007323078477920784,-0.004262468324146834,-0.007584153446630312,-0.01112821173678081,-0.014964136122651578,-0.018730567151683034,-0.022052252702952573,-0.02465122792482415,-0.026416308591787587,-0.02756986315486324,-0.02853579380140789,-0.029404437178665994,-0.030043757195001016,-0.029925618059588124,-0.028591385914162985,-0.026173088274640894,-0.023164112109496756,-0.02038445930527569,-0.01842480409973914,-0.017347689227684312,-0.01683345039308308,-0.01643040007185263,-0.01593006248133563,-0.015179558239490423,-0.01415803548019068,-0.012754309977926225,-0.011079570246067835,-0.009418727470433064,-0.0075980546907145384,-0.005596700040785915,-0.0035328090878510004,-0.0016565429090192045,-0.0001485804158768057,0.0011300605172439762,0.0022905661311478018,0.0034371735024698257,0.004375307235064815,0.005104963898644284,0.005647000933553362,0.006112589701720406,0.00649479244468512,0.006744963383873925,0.00694648854448915,0.00719665519581735,0.0073564851999011055,0.007474620047453396,0.008051401616851828,0.009774787127283798,0.01299223478722467,0.01746053285524896,0.022783568768586514,0.028412376309589173,0.0335894834629272,0.037585237852881724,0.039572695546586725,0.03905151037780399,0.03636914055500887,0.03231778976443865,0.027689661692330607,0.022936452438488762,0.018440356170156626,0.01463223427245431,0.011783083823533321,0.010052751978919845,0.009413431962584817,0.009844276196262507,0.011032579581688119,0.012498847818749777,0.013694097538356898,0.014270874819894721,0.014215282707139634,0.013562065734580986,0.012491897196707664,0.011185458963729761,0.009892921974836088,0.008836650393186384,0.007801230677663022,0.006487841822643008,0.004625473886393013,0.0025615820758859774,0.0009771794200580902,0.00044904534437748136,0.0007409088673813903,0.0013802293125024783,0.0017137879920378547,0.0011231111815600445,-0.0007392567546899491,-0.003803825032589176,-0.0074938167993858695,-0.01117685751535439,-0.014456847910092462,-0.01720870680186629,-0.01941157803668892,-0.02130174417324676,-0.02288614725786071,-0.023859024238586872,-0.023685297278279494,-0.0220105532585605,-0.018876495911682563,-0.014554135179379016,-0.009425673804614572,-0.0037829778831095025,0.002047346242787171,0.008183433420627738,0.01476426607623022,0.021456282957342875,0.02775915504916992,0.03287372375557135,0.03536151475193275,0.03336016010200413,0.025736952820975562,0.012783759004567331,-0.0036092496364439437,-0.02039835626149931,-0.034838657317513726,-0.04597118264206404,-0.05436574174320354,-0.06144688626215939,-0.06821535998573529,-0.07453210759448294,-0.07895872336955757,-0.0794660201578379,-0.0742055012521339,-0.06239891995248043,-0.045269302739489384,-0.026360716479032497,-0.009926011395131577,0.0011370094241418469,0.006425303375706412,0.008058347951033334,0.00903817555380161,0.011532917172205124,0.015862228526550785,0.02062238840243474,0.02438187309728469,0.02670288346752022,0.027703562936414832,0.027974577166008766,0.028016272322540232,0.02811355959182679,0.028349833574791972,0.02846101780030215,0.02817610232662399,0.027321360193450116,0.025966276181898635,0.024222043093200932,0.022491706960726845,0.021275609662853995,0.0209073038761129,0.021616112961426636,0.023339502759719213,0.025549328904444567,0.02734220777171585,0.027988474122232387,0.027057292298037692,0.024736277639941556,0.021671705074181723,0.018440356170156626,0.015431384292873093,0.012700372979365002,0.009976312287899022,0.00676581096213966,0.002777005479083004,-0.001823321820000832,-0.0065904288876384165,-0.010732112037592475,-0.013372782415995517,-0.014185833680498527,-0.01372024062447088,-0.012782108178234072,-0.012045496604751883,-0.012073294805059729,-0.012893292403744247,-0.013810577271715321,-0.014102443367435593,-0.013365831793953406,-0.01171193964036075,-0.009849571704110755,-0.008515339558685612,-0.008153984393986631,-0.008640425028280014,-0.009759235056866312,-0.011503468145564017,-0.013935662741309723,-0.017139213445026974,-0.021093268390589424,-0.02529749856320129,-0.02930714562151883,-0.032851203911669326,-0.035908825855387044,-0.03882051046338403,-0.041794737806178206,-0.044574412049702306,-0.046110152204300245,-0.044289483712442325,-0.03698594072744188,-0.02422038369114646,-0.008716864719300835,0.005424628194672403,0.015063078506132,0.01903798531782079,0.018461208036282966,0.015584263674914738,0.012339013526805416,0.009802581039731039,0.00844055069399805,0.008183433420627738,0.008794955236654918,0.009955460421772682,0.011477325059450033,0.013874775120706388,0.017488326767696197,0.022067809061230664,0.027161525901505754,0.03249151672474603,0.03742540784879797,0.04120574440977426,0.0429569452719565,0.04247048319836008,0.040420491345579096,0.03819676395676951,0.03664710540664492,0.03583405414214191,0.035305922639177666,0.034465073174366805,0.0325957546160747,0.029086440860413555,0.023561875498600168,0.016508499164927925,0.008794955236654918,0.001442771618513619,-0.0046307736821018675,-0.00885584714511886,-0.011135162358822923,-0.011878720266486618,-0.011843971444136658,-0.011281091118822454,-0.009988554129928778,-0.007361780707749354,-0.0032339962291631596,0.002179379761707323,0.008315465224403648,0.014903248502048242,0.02133814810979059,0.026445766194149907,0.028210846861113345,0.02522271827423494,0.017571717080759136,0.0071897045737752355,-0.003324335020337905,-0.012003805736081022,-0.017966161665753603,-0.0212600490167153,-0.02253869333724596,-0.022323266932546507,-0.020766662048240406,-0.01855683590351505,-0.016763961324104373,-0.01586752403439903,-0.015818878255825453,-0.016048197328887917,-0.01602735403848279,-0.01565209762969958,-0.01517260761744831,-0.015144809417140463,-0.016048197328887917,-0.017660398613809712,-0.019342088967710214,-0.020599881422114535,-0.02098208416507925,-0.020314970236296984,-0.01900853200331908,-0.01758395892278889,-0.016082946151237877,-0.014408202131518881,-0.01247634512629018,-0.010391604451159227,-0.008494491980419879,-0.00719500436948409,-0.006604325843862037,-0.006673819200701352,-0.007153309212952623,-0.007299242260812759,-0.006333311614268105,-0.0038594184317024454,-0.00036400360468080207,0.0032078518566909966,0.005911064541105181,0.007009031279286352,0.006432249709887919,0.004458697548127749,0.0015887033800155734,-0.0017538306070918205,-0.005311788854968362,-0.009057372305734083,-0.013157360299156673,-0.01728514649288711,-0.02050259415282798,-0.021885472076826704,-0.0210098823653871,-0.018132942291879475,-0.01409549274539348,-0.00993296201717369,-0.006242970679163056,-0.003192301501417753,-0.0009268836727233711,0.00018497804926554054,-0.0002528174067547472,-0.0020526434657796608,-0.00430416305189224,-0.005700937932114584,-0.005061617915779557,-0.0020039994023503226,0.002992428882280031,0.0089686864848229,0.014743418497964487,0.019434085017009127,0.02249865758276896,0.023971872154012124,0.024249837005648173,0.02387458488472557,0.023082381198488294,0.021963571169901996,0.02067103418100832,0.018982393205065704,0.016932397064424107,0.014743418497964487,0.013082575722329716,0.012533592353239132,0.013020032987532517,0.014020708168566523,0.015028333971642644,0.016056803065123894,0.01774544404106651,0.020719675671721297,0.024903058266067424,0.029287961733168173,0.03230389280821503,0.03285982251148713,0.030365080893083613,0.025048987026066956,0.018051207093010405,0.010997835047198763,0.00507021936415493,0.0006992141396359834,-0.002205524562965547,-0.0039289096446114575,-0.004971281268535114,-0.006062293096813566,-0.0073061885949942664,-0.008508388936643498,-0.009390929270125218,-0.00964804654349553,-0.009008726527160503,-0.007535511955917337,-0.005124160650576758,-0.0016287459950695392,0.0031592077932616584,0.008732416789718322,0.0138817257427485,0.016994939799221308,0.01719646495983653,0.01476426607623022,0.010719865907702112,0.005904118206923674,0.0007131123822177858,-0.004867043377206446,-0.010954484776473431,-0.017486671653502334,-0.024213433069104343,-0.03069697416755967,-0.036680177675497985,-0.04200321358883554,-0.04626301443489947,-0.04913995450840709,-0.05034913119926207,-0.049640304962505905,-0.04671474054972773,-0.041787791471996696,-0.03511662216914977,-0.02715291587740917,-0.018668024416885833,-0.010454147185956428,-0.003227047322265289,0.0024434467995476275,0.006550384557440209,0.009281395870948301,0.010733767151786339,0.010844951377296515,0.009941563465549063,0.008697667967368362,0.007752584899089442,0.007495467625719129,0.007995805216236133,0.008822753436962765,0.009121565866864545,0.008218177955117091,0.006036150010699583,0.0026380226244789202,-0.0016843389653967483,-0.006201275522631588,-0.00996075592962093,-0.011969056913731062,-0.011288041740864566,-0.006979582252645244,0.0010605693043349645,0.011234104742303344,0.020865608719581433,0.028328985996526238,0.03436083957089874,0.040886084401606744,0.04882895597866342,0.05731386030276858,0.064103173028889,0.06704961932281776,0.06568063406718205,0.061344363515073067,0.055965714049677394,0.05055233291337419,0.04499303588065326,0.038453881230139826,0.029329661177560248,0.01716171613748657,0.0032078518566909966,-0.010085841399215333,-0.020064799297108176,-0.02484580246339726,-0.023963262129915543,-0.018952935602703384,-0.01240685605731147,-0.006541783109064836,-0.002733658638646156,-0.0015106107187311893,-0.003011624347854323,-0.006750258891722174,-0.012156685118122665,-0.01852904199106781,-0.024880546997886614,-0.03030087018051073,-0.034241032457710166,-0.036568989162127204,-0.03747238136173526,-0.03758356558724544,-0.03774339559132919,-0.038542545611747976,-0.04007135229574623,-0.041648804758318066,-0.0423506717973109,-0.04162796146791294,-0.03968915384064212,-0.03698594072744188,-0.033664250888311736,-0.029883927190917262,-0.026068850383312227,-0.022545639671427465,-0.01931429076740237,-0.016089892485419383,-0.012809902090681311,-0.009592454430740442,-0.006388903727023193,-0.0031367081023044832,4.3005569611227054e-06,0.002895141184207414,0.005355134837833089,0.007238350352348817,0.008628178898389653,0.009788684083507419,0.011025628959646006,0.012415457505686843,0.013853927542440653,0.015368841558075894,0.017015787377487043,0.018760020466184746,0.02067798051518983,0.02267933516511845,0.02438187309728469,0.025035090069843335,0.02431238402830598,0.022290181800111622,0.019447986261093352,0.016334772204620547,0.013381388152231496,0.01099088442515665,0.009441225875032058,0.008593430076039693,0.008197330376851357,0.008287671311956407,0.008864448593494232,0.009628854079423661,0.010302918630248042,0.01062952926045767,0.01028207105198231,0.009239700714416833,0.00773868794286582,0.005911064541105181,0.0039444604286707615,0.0019500585447145547,6.684277292719066e-05,-0.00133688247206563,-0.0017121358793464137,-0.0006628162060970062,0.001359382163022805,0.0034858171371131034,0.005209201789972953,0.00649479244468512,0.007175807617551616,0.007106318548572907,0.006564285801524436,0.005765131493245045,0.004826999047008238,0.0038124264809645484,0.0026519208670607226,0.001255144700480197,-0.0002180717574216354,-0.001448068841506109,-0.002261117533292756,-0.002823997429820901,-0.0036370461216075484,-0.004825348220674978,-0.006333311614268105,-0.007924661033063558,-0.009377032313901598,-0.010600080233816563,-0.011795329953423684,-0.01296973209476507,-0.013907864541001876,-0.014234475171211501,-0.0137341375806945,-0.012566681773534621,-0.011156009937088656,-0.00996075592962093,-0.009015677149202615,-0.008028898924392227,-0.00674330826968006,-0.00523534916394754,-0.003942807887193259,-0.0030463697399157985,-0.0025251845711330607,-0.0019484064320231134,-0.0007670532398535538,0.0012203993084187214,0.0039027652721392936,0.006710214561523965,0.009163261023396011,0.010907494112093716,0.011741388667001853,0.011671899598023148,0.010587834103926204,0.008384958581242961,0.00536903179405671,0.001943109209030623,-0.0014341705989243069,-0.004345858208423708,-0.006402800683246813,-0.007535511955917337,-0.007973306811637139,-0.00814008743776301,-0.008327711354294009,-0.00852228589286712,-0.008682115896950877,-0.008682115896950877,-0.008237374707049565,-0.0073270361732599995,-0.005930261293037656,-0.0041721295329720885,-0.002455693358224049,-0.001086713676807128,4.599536617588114e-05,0.0012620940361641284,0.002631073717581049,0.0039444604286707615,0.004910389360071173,0.005612252111203401,0.006119540323762519,0.006612927292237411,0.007029878857552085,0.007432924890921927,0.007988858882054625,0.008649026476655386,0.009420378296766323,0.010344613786779512,0.011310544433324165,0.012144438988232302,0.012755965092120089,0.013117320256819071,0.013277150260902827,0.013284100882944941,0.012846301739364532,0.011664948975981032,0.010115294713717046,0.0089061437500257,0.00845444765022167,0.008781058280431296,0.009802581039731039,0.011268849276792699,0.012610032044259954,0.01320766119192412,0.012762915714162203,0.011602406241183832,0.009885971352793975,0.007439875512964041,0.004264120436838275,0.0006992141396359834,-0.002747556881227958,-0.005422973080478538,-0.0067363619354985525,-0.006708563735190706,-0.005902463092729808,-0.004929586112003647,-0.004116536562644879,-0.003803825032589176,-0.004088740077481274,-0.004873993999248559,-0.005742633088646051,-0.006201275522631588,-0.00595110887130339,-0.005388228545989184,-0.005429923702520652,-0.0066182228000856574,-0.00870296347521661,-0.011003130555047012,-0.01290024302578636,-0.013761935781002347,-0.013358885459771899,-0.012087191761283351,-0.010683466259018892,-0.00963414958727191,-0.009418727470433064,-0.010023298664418132,-0.01117685751535439,-0.012594479973842469,-0.0137341375806945,-0.013921765785086103,-0.012830749668947046,-0.010857197507186875,-0.0088836410575661,-0.007549408912140958,-0.006625173422127772,-0.005200600341597581,-0.0028517939149845057,-0.00029451226313597235,0.000921586449730881,-0.0006628162060970062,-0.005492466437317853,-0.012580583017618847,-0.0202037817229262,-0.026562237351787116,-0.03029392384632922,-0.030175784710916323,-0.025179359427788397,-0.015207352151937666,-0.0019275588537573797,0.011435629902918567,0.021393740222545678,0.02598712376016437,0.02531305920933999,0.021247811462546146,0.016154094622271055,0.012123595697827175,0.010608681682191937,0.012498847818749777,0.017946969201681737,0.025771701643325526,0.033964735583849805,0.041025066827424767,0.046084039133210505,0.04839116541080423,0.04784913695161636,0.044701161209211776,0.03920438975984563,0.03165067154779578,0.02257509727378978,0.012554439931504865,0.002505989105558768,-0.0066321240441698836,-0.013761935781002347,-0.017799381039627735,-0.01843175043392065,-0.01643040007185263,-0.013164310921198786,-0.01009974264329956,-0.008181778306433872,-0.007292291638770645,-0.006722460691414327,-0.005985853405792744,-0.004776702442101398,-0.002956030948741053,-0.00022502087871253653,0.0034302245955719545,0.007537162782250596,0.011296647477100543,0.013777487851419832,0.014590539115922844,0.013596810269070342,0.010636479882499782,0.006043100632741697,0.00046294358695928364,-0.005374331589765564,-0.01101007688922852,-0.015992605216132827,-0.019613107485164753,-0.021593610268967035,-0.022441401780098794,-0.022844452101329245,-0.023226654844293957,-0.023699194234503118,-0.024081401265328435,-0.024227330025327967,-0.02374088939103458,-0.02239276028938582,-0.020189880478841973,-0.017549214388299535,-0.015283796130819092,-0.014067698832946238,-0.014026003676414772,-0.01487379518754653,-0.01623582553327952,-0.01749361798768384,-0.017938363465445757,-0.01704887679778253,-0.014943288544385844,-0.01214973449608055,-0.009328386535328016,-0.007292291638770645,-0.006875344361316577,-0.008160930728168137,-0.010780757816166053,-0.0137341375806945,-0.01566599887378381,-0.015777183099293983,-0.014074645167127746,-0.011100417824333568,-0.007340933129483621,-0.0031714543519380796,0.000942433599210554,0.00477140693425315,0.007940213103481045,0.0102125819830036,0.011456477481184302,0.012193084766805884,0.013165961747532045,0.01479205998867746,0.017099177690549975,0.0199135750292604,0.023019842751551695,0.026091357363632432,0.028558305069588705,0.029357459377868097,0.027780002627435654,0.023957975197788507,0.019163070787415193,0.014527996381125641,0.010879695911785869,0.00857258249777396,0.007446826135006155,0.0069951300352021255,0.006800555496629014,0.006738012761831813,0.006856147609384101,0.0071410630830622615,0.007578857938782065,0.008002755838278247,0.008329366468487873,0.00842665373777443,0.008113940063788423,0.007530216448069089,0.007029878857552085,0.006585133379790169,0.006029199388657471,0.005452422107119644,0.005153609677217864,0.005195304833749332,0.005556659998448313,0.006056997588965318,0.006744963383873925,0.007551059738474217,0.008419703115732315,0.00920495617992748,0.009740038304933838,0.009934617131367555,0.010115294713717046,0.010268174095758689,0.010247326517492954,0.009997159866164756,0.00951766556605288,0.009010381641354369,0.008642075854613275,0.008384958581242961,0.008016652794501866,0.0072313997303067035,0.006077845167231052,0.004889541781805439,0.004055646369325179,0.003687342297728328,0.003777681088903073,0.004048697033641248,0.004132086917918123,0.003874968786975689,0.0031939536141091943,0.0021654815191255207,0.001053619968651033,-0.00010688560237418665,-0.0013716282929131661,-0.0026016251197260036,-0.0036509443641893507,-0.004533486412815312,-0.005575856750380788,-0.006847546161008729,-0.008028898924392227,-0.00875160925379019,-0.008911439257873948,-0.008654321984503636,-0.008202625884699607,-0.007855171964084851,-0.0075980546907145384,-0.007313139217036378,-0.0067363619354985525,-0.0059163643368140345,-0.005471618859052119,-0.0058329740237511,-0.006930936474071665,-0.00827211924153892,-0.00928669137879655,-0.010009401708194511,-0.01060702656799807,-0.011003130555047012,-0.011336687519438145,-0.011802280575465797,-0.0124902420825138,-0.01325464756844323,-0.0137341375806945,-0.013789733981310193,-0.01343532515079272,-0.012837700290989159,-0.01213583753985693,-0.011566010880361218,-0.011288041740864566,-0.01117685751535439,-0.011017027511270634,-0.01064872172452954,-0.010488891720445781,-0.01071126445932674,-0.010947534154431319,-0.01071126445932674,-0.009953809595439423,-0.008765506210013811,-0.007486866177343757,-0.006347208570491725,-0.005249246120171161,-0.00412348589832881,-0.002990776340802529,-0.0018441693982665657,-0.0007462060903738806,0.00037955387419683344,0.001602601622597376,0.0027978530573487376,0.0038054775740666777,0.004688016621190214,0.0055844581987561604,0.0064669985322378795,0.0072939424651039045,0.008197330376851357,0.009469024075339906,0.011018678337603893,0.01244325570599469,0.01361070722529396,0.014354265132957659,0.01441680786775486,0.013423083308762965,0.011567661706694479,0.009691396814220862,0.008468348894305896,0.007898517946949579,0.007655297629802886,0.007203605817859462,0.006293267284069896,0.004965981472826261,0.003659545812564723,0.002950733725748563,0.0031592077932616584,0.004236323951674671,0.005869369384573714,0.007537162782250596,0.008683771011144741,0.009052076797885835,0.008767161324207677,0.008287671311956407,0.008051401616851828,0.008079195529299069,0.008218177955117091,0.00825987311164856,0.007731737320823708,0.006189029392741227,0.003409377017306221,-0.00033620707663859135,-0.004561280325262553,-0.008848896523076745,-0.013108714520583093,-0.01712531648880335,-0.020349714770786335,-0.022128692393973394,-0.022052252702952573,-0.020495643530785868,-0.017952260421669378,-0.014957185500609465,-0.011969056913731062,-0.00916855653124426,-0.006701613113148593,-0.004554333991081045,-0.0023028122610381633,0.0001641306853928371,0.0029785302109121676,0.006334962440601364,0.010379358321268864,0.014451552402244213,0.016911549486158372,0.015945618839613717,0.011157665051282522,0.0039027652721392936,-0.0034563685392580575,-0.008633474406237901,-0.010565331411466603,-0.00946736896114604,-0.006409751305288926,-0.002858743250668437,0.0002683676762707786,0.002547683833304175,0.004264120436838275,0.00601530243243385,0.008343263424711493,0.011102068650666827,0.01370104816039901,0.015403586092565247,0.01542443367083098,0.013339692995700028,0.009489871653605639,0.004854797247316085,0.0009702305131602194,-0.0010728154342253256,-0.00068366378436274,0.0019917532724599615,0.005924965785189408,0.009350889227787616,0.01061563230423405,0.009135462823088164,0.00522310303405718,-1.6546849790186814e-05,-0.005374331589765564,-0.009641100209314022,-0.01231651512220642,-0.01325464756844323,-0.012587529351800353,-0.010481945386264273,-0.0073895789080572006,-0.0037412831553640955,-0.00024586832834245213,0.002533786019508433,0.004396154813330548,0.005904118206923674,0.007585808560824177,0.010004106200346263,0.01306867447824549,0.01595951579583734,0.017474429811472576,0.016633584634522327,0.013388334486413004,0.008120890685830535,0.002144634369645847,-0.0026850145752168176,-0.0046307736821018675,-0.003442470296676255,-3.7394256541496334e-05,0.0044517469260856365,0.00903817555380161,0.013242405726413475,0.016960190976871348,0.01969120229037944,0.020420863241819517,0.018252732253625628,0.012804610870693671,0.004104290432754518,-0.007368731329791467,-0.021079371434365807,-0.03629102431049116,-0.051467919788545334,-0.06443501056117719,-0.07271838543680652,-0.07426111480419202,-0.06805550854234851,-0.05522743021055891,-0.03965440501829216,-0.026478847038724183,-0.019182258963626457,-0.017396330718397288,-0.01785497315238282,-0.01710446891053762,-0.013699393046205145,-0.008188728928475985,-0.002573828634562399,0.0014914156819429572,0.003603952842237514,0.0044308993478199025,0.005042425451707689,0.006189029392741227,0.0079749576379704,0.009830379240038887,0.01138003779016348,0.012318170236400286,0.012867149317630265,0.013492572377741673,0.014527996381125641,0.016195789778802525,0.018162395606381186,0.020031709876812687,0.021720350852755307,0.023582723076865902,0.025806446177814878,0.02814830412631614,0.029955084237671657,0.030983553331152904,0.031164230913502396,0.030483215740635897,0.02905864266010571,0.02719627043599511,0.025368651322095075,0.0238328897281941,0.022533402117258315,0.021129676614993858,0.01955917048660353,0.017919175289234493,0.01625138189155761,0.014562740915614996,0.012637830244567801,0.010573937147702583,0.008885296171759965,0.007835975212152377,0.0073286912874538646,0.007161910661327995,0.0071688569955095024,0.0073286912874538646,0.00785682279041811,0.008704618589410474,0.009899868309017594,0.011338342633632013,0.012936642674469579,0.014458503024286327,0.01559121429695685,0.015931721883390097,0.01522985913225787,0.01331189479539218,0.010247326517492954,0.006487841822643008,0.002714463601857924,-0.0005238337802789832,-0.0032756909569085666,-0.006090091297121413,-0.00934923411359375,-0.012802955756499807,-0.015839725834091184,-0.017924466509222137,-0.018779208642396007,-0.018626329260354364,-0.017910569552998516,-0.016937688284411747,-0.015798030677559718,-0.014588879713868371,-0.013560410620387122,-0.013282445768751077,-0.013907864541001876,-0.015200405817756158,-0.016722266167572903,-0.017903618930956405,-0.018251077139431762,-0.017660398613809712,-0.016395655537363277,-0.015054472769896021,-0.01438040821907164,-0.014505489400805437,-0.015123966126735337,-0.016006506460217056,-0.017069724376048263,-0.018070399557082274,-0.0188348050430117,-0.0193351383456681,-0.01972429171067493,-0.02008564687537391,-0.020134288366086883,-0.019717341088632816,-0.018577683481780783,-0.01620803162083228,-0.012399905435269358,-0.007632799225203893,-0.0028100991872390987,0.001248195793582326,0.004152934496183857,0.005633099689469135,0.005931912119370916,0.005494117263651113,0.004632424508435127,0.0036109017491353845,0.0026380226244789202,0.0019570074516124256,0.0016164998651791778,0.0017207368989357256,0.002214125582554859,0.0026797177810103877,0.0024434467995476275,0.0010049759052216949,-0.0011978996174615464,-0.002990776340802529,-0.0033660297480833123,-0.002094338193525068,0.0004073504022390441,0.0030410725169233085,0.004785303890476771,0.005410726950588177,0.005077169986197043,0.0041459851604999255,0.002909038998003156,0.001818024597008342,0.0011370094241418469,0.0009007388714651472,0.0009493829348944855,0.0011370094241418469,0.0011092129389782424,0.0009493829348944855,0.001074467546916767,0.002130736127064045,0.004437849969862016,0.00760665613908991,0.010768511686275694,0.013054777522021868,0.014145793638160925,0.013784438473461945,0.012012407184456394,0.009239700714416833,0.006411402131622186,0.00406259527622305,0.002346159101475011,0.0012273482153165923,0.0007131123822177858,0.0007548071099631928,0.0011231111815600445,0.001581754044331642,0.0019570074516124256,0.0021932780042891254,0.0024434467995476275,0.0027283618444397264,0.0031244624012001826,0.0038888670295574913,0.005118865142728511,0.006633774870503144,0.00830851889022214,0.010052751978919845,0.011664948975981032,0.012881050561714492,0.013645456047643922,0.014027658790608636,0.013999860590300789,0.013409182064678738,0.012102743831700836,0.009816482283815266,0.006536487601216588,0.0024503961352315587,-0.0019831518240845886,-0.006423648261512547,-0.01053058687697725,-0.014053797588862011,-0.017034975553698303,-0.019842426558227218,-0.02253869333724596,-0.024484451586558886,-0.024790210350642175,-0.02319885664398611,-0.020148189610171112,-0.0163470140466503,-0.012233124809143486,-0.007827373763777004,-0.00287959040014811,0.003006327124861833,0.010302918630248042,0.019170017121596702,0.02904474570388209,0.038259306691566713,0.044701161209211776,0.04641064547555952,0.04253998084306,0.033811856201808155,0.022352724534908826,0.011324441389547786,0.003360732953876883,-0.0007253585121081469,-0.0016912883010806797,-0.0010728154342253256,-0.00024586832834245213,-4.434338212025809e-05,-0.0010241713707959874,-0.003386877326349046,-0.006882290695498084,-0.010871094463410497,-0.014449897288050347,-0.016951585240635367,-0.018397005899431294,-0.019223954120157927,-0.019661748975877726,-0.019759036245164282,-0.019404631702507415,-0.018320566208410473,-0.016479045850426213,-0.014039900632638392,-0.011399230254235348,-0.008848896523076745,-0.006402800683246813,-0.003942807887193259,-0.0013438318077495617,0.001324636342175269,0.0038680198800778182,0.005973607275902383,0.007280045508880284,0.007690046452152846,0.007523265826026976,0.0072313997303067035,0.007036825191733593,0.007036825191733593,0.0071827582395937286,0.00739122973439046,0.007745638564907934,0.008218177955117091,0.008419703115732315,0.00832241584644576,0.008072249195117561,0.00784292583419449,0.007773432477355176,0.007794280055620909,0.00782902887797087,0.008044450994809714,0.00832241584644576,0.008093096773383294,0.006800555496629014,0.004139036253602054,0.00019192721343504776,-0.0045751772814861735,-0.00952991169594324,-0.014220578214987883,-0.018042601356774424,-0.019342088967710214,-0.015992605216132827,-0.007208901325707711,0.005521915463958959,0.01900324078333144,0.029524235716133357,0.03424965105752796,0.03251931492505388,0.02627203923384253,0.018822563200981947,0.012714269935588622,0.008857497971452119,0.006564285801524436,0.004500392704659217,0.0014844663462590258,-0.0029004379784138444,-0.008119239859497277,-0.013421428194569098,-0.018007856822285073,-0.021169712369470853,-0.022795806322755664,-0.023282246957049047,-0.022913945458168557,-0.022024454502644727,-0.020870899939569074,-0.019731242332717044,-0.018876495911682563,-0.018278871051879007,-0.01770904439238329,-0.016798705858593724,-0.015193455195714045,-0.012858547869254893,-0.010051096864725979,-0.006972631630603132,-0.0034911143601055934,0.0004073504022390441,0.0045142896608828375,0.008100043107564802,0.010476649878416027,0.011512069593939389,0.01147037443740792,0.010692071995254872,0.009628854079423661,0.008412756781550809,0.006953434878670657,0.005299542725078001,0.003541410536226373,0.001845821510958007,0.0005254858929704244,-0.00031535966988728185,-0.0009338325796212421,-0.0015036618118333186,-0.0017885764279393565,-0.0013785771998110368,-1.6546849790186814e-05,0.002255820310300266,0.00493818756037902,0.00739122973439046,0.008885296171759965,0.008829704059004878,0.007134112461020148,0.004125138011020251,0.0003170116539429049,-0.003484165024421662,-0.0064444958397782805,-0.008181778306433872,-0.008661268318685142,-0.008265168619496806,-0.007368731329791467,-0.006138737075694994,-0.004644670638325488,-0.002962980284424985,-0.001163154225400071,0.000615824255359109,0.0023392101945771404,0.0039583586712525634,0.005598355154979782,0.007349538865719599,0.009170211645438126,0.010712919573520606,0.011838680224149016,0.01235291477088964,0.011908169293127725,0.010594784725968314,0.008711569211452589,0.00664767611458737,0.004632424508435127,0.0025963278967335132
