-0.07623408661934676,0.015544035075465498,0.17832557346095704,0.3974491059877818,0.5832639976653635,0.6710167032831519,0.640710016531165,0.3719750248647182,-0.3125622428724028,-0.6928357197527734,-0.7022329134713751,-0.3126791217918684,0.5762616361364163,0.8706322152063376,0.9322752418749837,0.9421139381273408,0.9297069304799864,0.891621513305333,0.7951657050623411,0.5056392027081996,-0.20317024354081126,-0.7088203995543872,-0.8485482113520221,-0.8782317079638545,-0.8666306051812371,-0.801966405468949,-0.5664788420737333,0.12337157205385367,0.68737098030502,0.8434629370643473,0.8574023666919746,0.7545550234620967,0.39211954032505714,-0.054631515945012435,-0.04552608580356335,0.35387570367746474,0.6880593369672534,0.8299138835831102,0.8838791436447495,0.9023858153184363,0.8974440656675924,0.8562094094424842,0.7316183237085134,0.4184094366228831,-0.07748465463055879,-0.4815518808289699,-0.7040063855114268,-0.8157674515538531,-0.8704923705893468,-0.8980025989117918,-0.9114023775709725,-0.9190015609636453,-0.9238489440503093,-0.9286865056812463,-0.9342831624158906,-0.9280518798525498,-0.8733585531261838,-0.7507115495146777,-0.5919216064081307,-0.42602537727185386,-0.24844614788392408,-0.04632622537455821,0.20095480502387958,0.504024740019561,0.737073154952743,0.8237735994656711,0.8384025968992828,0.8361763048970167,0.8275417127578039,0.8056936022747635,0.7526639532399979,0.6677365675974404,0.6079828052776844,0.6515631630645088,0.7329058309852103,0.7934460761492934,0.8477507813260582,0.8945380268467661,0.9130808433883767,0.8933736312481567,0.8425824378441302,0.7516450291234625,0.5533255305126181,0.12513761539079482,-0.3406770465148911,-0.5593592112427528,-0.6265188893860217,-0.6223175118349338,-0.5734297715959721,-0.48509944093363916,-0.36437675882982984,-0.2403215442851335,-0.15426258411258778,-0.2160014533911572,-0.5567713782096808,-0.7714630128666193,-0.8340037747137254,-0.8599837710428463,-0.8741754291740242,-0.8850938503107351,-0.8916939674922671,-0.8832962712897747,-0.8443485418224497,-0.7571711349154632,-0.6137844832462284,-0.4279660296106696,-0.22546442084311755,-0.0392474291904374,0.11360531567236612,0.23331525494395175,0.32158844459455516,0.3894966202799608,0.4577013801625586,0.552401193467856,0.6969606460169868,0.8732179090027374,0.9856892420855723,0.968685999021215,0.866720906419761,0.7206726745728739,0.5267321684254429,0.26817792650464894,-0.03469131012533757,-0.2977301286381264,-0.4625047975646571,-0.541286742024501,-0.5633138336870561,-0.5373712061017143,-0.4499348515904951,-0.26155935443407136,0.02681859708755423,0.27905557360291583,0.394894252025456,0.3833316682062858,0.25100370513480996,0.0023668093227759853,-0.29092361771966185,-0.5291796172245308,-0.6937805581135188,-0.8097992258781024,-0.893895434679213,-0.9480419720443963,-0.9775490102159865,-0.9915742447128821,-0.9946535932144149,-0.9910868975080769,-0.9858514822743226,-0.9823750515576899,-0.9801937499560683,-0.9731131360926876,-0.9424522525349969,-0.7962132699847485,-0.045513181050817635,0.729659189214774,0.8952666989941783,0.9200833919285017,0.9056581005958545,0.8772908281567036,0.8422505095984607,0.7967791079674345,0.7289801164753322,0.6195983480185477,0.4497368297328691,0.22851303154882943,0.021170034632913965,-0.1119146066341385,-0.16800868642206038,-0.1725630776760702,-0.14912809358327653,-0.11865881473608234,-0.09569531499534216,-0.10663392239456806,-0.2194375303158387,-0.5527751099989081,-0.743702367812008,-0.6350752577603148,-0.47392715558443843,-0.24409908080289355,0.03558774932326765,0.26309257409457953,0.3464561451416545,0.2498947899365493,-0.005038466435864914,-0.29113774555917626,-0.45000618529756015,-0.4956438834172756,-0.4890333883911264,-0.47242165391508956,-0.4650475264917133,-0.4614174580673314,-0.45028785567874174,-0.43706546856069023,-0.43741614832855574,-0.44533048591422236,-0.43633736569763754,-0.38726854013647743,-0.305836282122525,-0.20817735808422624,-0.10562294783449556,-0.0038223429415838307,0.09679422837199643,0.19321327057884263,0.281113005484618,0.3629996889221379,0.4553886721909432,0.5785868982135483,0.739229570489644,0.8253842180212725,0.7146536951746011,0.560912335569261,0.4623089208017946,0.4126683024110183,0.3962133559222112,0.3973787381150284,0.40453710061901516,0.41765345737383747,0.43227620651147153,0.4378961395334427,0.42727624758994387,0.40910965403745186,0.389200047943555,0.37659490303828985,0.37725245610320696,0.39280483776592906,0.4246513588073612,0.47328441025741014,0.5401948114911173,0.6178827645458381,0.6911671265744647,0.7665431712988863,0.8394009038731498,0.8830868950898392,0.8629438455265757,0.7735842313116958,0.6282825309945326,0.4496086726239755,0.2915018031668695,0.19256715961535642,0.12065005437356173,0.045310771875150056,0.00622792661943599,-0.013401922015928899,-0.04663911513873382,-0.10651331874377082,-0.2136165125859857,-0.379551908662384,-0.5372049439751909,-0.5674848745448786,-0.5429025813827709,-0.4958051314180106,-0.4207255498412541,-0.32951310315886384,-0.25992730618895166,-0.2408715331351669,-0.28447974436180745,-0.3591251260766372,-0.4195369527746568,-0.44869990273651306,-0.4621011843659284,-0.49953195888329244,-0.5706277953089846,-0.6570482029337122,-0.7484729329240204,-0.8273035588408089,-0.8474188911617342,-0.8140543279715613,-0.7758265655758901,-0.7621903018683501,-0.777468207306545,-0.8220682656535894,-0.8763909016821007,-0.9122338937006036,-0.9191833908693386,-0.9061025050016552,-0.8713529979440889,-0.8021611778198273,-0.710497296912006,-0.6540241869172493,-0.665186167773763,-0.638523897373684,-0.3111195837384069,-0.07463114618053134,0.034089709135768115,0.08794951203489851,0.1267215542978699,0.1818319662826146,0.33749046280838685,0.4414587528088942,0.20212550857442518,0.12999227142308745,0.1069819389899462,0.11249632258008788,0.16313877667833152,0.3003316819899401,0.6101054072445881,0.9469599214240727,0.8985317987841493,0.8353922817181616,0.8465437917424001,0.8784890402627994,0.886989231830645,0.8631492686006322,0.8239635499844417,0.7718896370896806,0.672289088026111,0.4819143986571275,0.2258857083152464,-0.07845710676658463,-0.47822558205403176,-0.7427874453090129,-0.7831167256171185,-0.7571687037332036,-0.7352401405206381,-0.759132191492178,-0.8365505982881474,-0.9036497063925426,-0.8909761295106807,-0.8434405107964803,-0.7925580676437194,-0.7048770112897166,-0.4937394117926004,-0.06796805528020164,0.3765575110000625,0.6171474946197713,0.7089823352956115,0.7263964844954421,0.6987831795298276,0.6271068206612295,0.5260692002227789,0.4790919517009272,0.515379035241839,0.5700757091997379,0.5436286058846793,0.4301959927717951,0.32468900000235357,0.2774848463697166,0.2842968677152664,0.3228465858502189,0.38119571025494653,0.44884855046899885,0.5075042646414211,0.5352145082996282,0.5395035329305803,0.5252143085868827,0.48402412175166454,0.4285053575184391,0.3886474937117951,0.3829235748234177,0.41282215598279726,0.4474932512569322,0.4494775062270221,0.4042040996229662,0.29938558101759377,0.13848376081366273,-0.05308322290078864,-0.2337832240624174,-0.37834924778320256,-0.4902547471225453,-0.5814382523287093,-0.6583463332096838,-0.6761333108041423,-0.6019914685079785,-0.5141644451913029,-0.46517298497162174,-0.4394504743465428,-0.42111412269896237,-0.3971510861163961,-0.3645462069646489,-0.33870383696254813,-0.3377001733788487,-0.37081903813326506,-0.43045861757221815,-0.49434979584044825,-0.5409724097378039,-0.5576718190605843,-0.5356652177999792,-0.42645364810394876,-0.10861496391724676,0.3856150438142996,0.7107488416656218,0.842502667847773,0.892143657304899,0.9113753953030701,0.9177473294195776,0.913904694436315,0.8892220926872377,0.8111534454702108,0.6098022456915236,0.25156576855343865,-0.11196062093383137,-0.3678189661740503,-0.5292586718567215,-0.6207083229753915,-0.6698904551905935,-0.7067252341993955,-0.7513046069535646,-0.7927998887330584,-0.8219194536658475,-0.8408385773006585,-0.8540285554969002,-0.8680569797697276,-0.8816429752707653,-0.8924432738096864,-0.899957923968315,-0.9067933253304878,-0.9117363959495224,-0.9147573851020715,-0.9087863884799541,-0.8760857318890956,-0.7622573029799324,-0.44071288910157036,0.06696371894425862,0.39909905284447617,0.5462181530181056,0.6130004683359752,0.645554114856688,0.6550087464374899,0.6492378089157543,0.639385640649004,0.5940342142714228,0.44903510432301574,0.26645633834678456,0.10406682454208822,-0.053658484443817614,-0.2058098015730552,-0.3082065450979083,-0.34480982521475695,-0.34796538026507123,-0.35990109533306713,-0.41407334629743237,-0.5223531552848366,-0.6625873617472283,-0.7832889986862934,-0.8556484745760539,-0.886954478321798,-0.8870726967577345,-0.8600119496087318,-0.7941974304167709,-0.6640564148913928,-0.42669848811233263,-0.045562106632808234,0.41247054117642046,0.7123945752233641,0.7445333894629821,0.6683020336635501,0.6135996653625339,0.6080558932588798,0.6414664221819476,0.6973793392110622,0.7594190353696783,0.8141713476355064,0.8498449004175944,0.8606331008792795,0.8413926316832374,0.7760202069093166,0.6271866961851731,0.35645890938532077,0.03844976698287763,-0.1798813776753635,-0.28088139641027915,-0.30854703279341883,-0.29071335929663983,-0.24318117459541658,-0.16121033117019415,-0.024918619513005644,0.16946738518715343,0.38167769036258287,0.5276691350306315,0.5596964793741985,0.48105152156719116,0.36239278790593077,0.26113231922588426,0.17129808505017988,0.05946724868136901,-0.06223029381774861,-0.1649696205688084,-0.222387681579349,-0.24628107736859767,-0.24096557512596606,-0.20354606613254472,-0.11076011550895765,0.050377148365990804,0.2617666641422636,0.4625206536295525,0.6046919445457553,0.702800957557746,0.7812384900452035,0.8271877968960719,0.7599633314720993,0.593265589998155,0.4765540334412844,0.4861960673619493,0.5963197027879718,0.6960246560499233,0.6671226650845054,0.5501666817401559,0.4081975680962078,0.16998194164701824,-0.262278848210315,-0.6914956853807583,-0.8880055418415392,-0.9540980610219764,-0.9783409942786766,-0.9851478640562007,-0.9804084831013751,-0.9714014853855377,-0.9648541904139897,-0.9627028130931736,-0.9638133458437506,-0.9662663114127354,-0.9677658187586647,-0.9679907988157501,-0.9673304472217469,-0.9664506408865754,-0.9651650255503265,-0.9630925334432465,-0.9595459495727399,-0.9540845068885068,-0.9470000521680374,-0.9374918184294037,-0.9171011333495281,-0.8324401997720486,-0.312401206129062,0.5709850829958784,0.7936705168834473,0.8575654388621581,0.8880612916002257,0.90871026100939,0.9233609010802285,0.9297520705986597,0.9249909286224657,0.9146125658667994,0.9130283174047599,0.9275160610339439,0.9511036141357438,0.9687324393295771,0.9727250711640428,0.9665697634210015,0.9579244503499456,0.9516817130538695,0.9497307344144743,0.9533728234366002,0.9643488324173843,0.9810145083489453,0.9932864245955472,0.9848075373399409,0.947367635488203,0.8952993480109929,0.8588160954265098,0.8495648071126767,0.8578972175644008,0.8752584777617529,0.8974967043313541,0.9199836296010987,0.9393391515499772,0.9511726040286842,0.9549351639318157,0.9536940548851166,0.9493768419840977,0.9422408844628886,0.9326057508984698,0.9235177049578077,0.9175867498386682,0.9178370971037836,0.9242398766795087,0.9369202159403126,0.9461887209862933,0.8478867923692638,0.3892178550784392,-0.02077587672822589,-0.21727469985089987,-0.31976266405096715,-0.3876325369024882,-0.44955754758177624,-0.5107958121104071,-0.5645081988862551,-0.6027269037520043,-0.6325553647542539,-0.6729622321462528,-0.7347310378341295,-0.8062105270431419,-0.8687984810323477,-0.9127026885276192,-0.929729606479059,-0.8944400022430877,-0.7967294892533133,-0.676996085825833,-0.5721970320408907,-0.4932964839895525,-0.44063365873898264,-0.41010790958589505,-0.3938281118605797,-0.3804512027748148,-0.36077133852107884,-0.3377967004515148,-0.33870548821754004,-0.3876164791151164,-0.461189929100623,-0.5345538344707269,-0.6034788001103812,-0.6598099276649183,-0.6662838411814308,-0.554798170050051,-0.1543593099581781,0.58969852353309,0.9409391203365708,0.9855197001188378,0.9484997306567748,0.8731754030611776,0.7545367031634598,0.5756456124469745,0.3345708855517065,0.09766046492636368,-0.056317614727251095,-0.12404556380544188,-0.1309291230606058,-0.09877587253172794,-0.04645784031902988,0.020005201788403596,0.09112713080476635,0.14900554136199395,0.18552853473075348,0.20997413863988001,0.22314676257661878,0.2177508013385128,0.19906491674741525,0.1735054948215805,0.14424490319387986,0.11361315908653229,0.08705063474616466,0.07110476834633357,0.07163339654540402,0.08698229531142804,0.1063288409748802,0.12282545453955837,0.13479737306985926,0.13846544901128677,0.11898069455312739,0.05813739248110459,-0.011293067134085595,-0.061872522679977233,-0.09995818603572293,-0.1306070800184514,-0.15445192953174014,-0.17693460685188878,-0.21656777783297132,-0.3579808692588687,-0.5425811565104368,-0.09674191508271972,-0.00022600985393366084,0.042171815921960266,0.06660886970915487,0.08097437598446088,0.0876196678456243,0.08454251173752257,0.06942157295071247,0.04531697759537858,0.01880560184633448,-0.006467796961739524,-0.03027381212736608,-0.053260874147378616,-0.0742286880209878,-0.0896226815208065,-0.09611018631634717,-0.09710119477497714,-0.09554484540461812,-0.09681733832433663,-0.06236764215477746,-0.07074080051556242,-0.1456606707876696,-0.24186049486263755,-0.3411132067272673,-0.43603574911266413,-0.5192990761111395,-0.5881251234272366,-0.6393305411632002,-0.6702406614390235,-0.6830603899507942,-0.6828111021103664,-0.6799783081998756,-0.6820045067653591,-0.6978509691159106,-0.7303124956264126,-0.773068237635363,-0.8123708267210232,-0.8387390803875977,-0.8494131639729717,-0.8451977674306873,-0.8249135621782144,-0.7807557417797327,-0.698873119767104,-0.5538198616911394,-0.30323668582566715,0.08730978772448675,0.5299290007875648,0.8139402617732675,0.9282627966729808,0.9648222943200297,0.9739747358341362,0.9741586477429469,0.9727856048701853,0.9721379060007123,0.9729200836724641,0.9722382957936055,0.9623904515731796,0.9358265136835843,0.8896276452846221,0.8244045696706054,0.7256667265793761,0.548452873821224,0.2898991644716228,0.10156845363896568,0.018273609990230203,-0.027036659648323347,-0.0679388716496371,-0.08704504035785558,-0.054860339477650795,0.028876467613680325,0.179523559717411,0.43479149466240585,0.6974334304512807,0.7615713793969006,0.7372917276774048,0.7289002433467544,0.7460603168666711,0.7704002938994159,0.7787862519811888,0.7402537408732955,0.5535610854267027,0.06299595440419797,-0.30650925797955647,-0.31665454949658606,-0.16597141626373046,-0.005950202712837426,0.11935879774794364,0.23098424550127983,0.352750035897458,0.48979185512315254,0.6302336345575591,0.7499831587963163,0.8257936959445941,0.8531234635592206,0.8311739910665568,0.7335008040882647,0.5074077595377557,0.1707787923959178,-0.12627167824382182,-0.31462912853891134,-0.4291538988539235,-0.5123945370184718,-0.5960222409147179,-0.6994326554404995,-0.8145190884066564,-0.7622061184907393,-0.5171810709242199,-0.34259073812278484,-0.24546143481700017,-0.18639736817407238,-0.1467429637804962,-0.11864067738907716,-0.09973769317476847,-0.09017527375519215,-0.09086589692057473,-0.10046599959406109,-0.11555906714514419,-0.1319699284410741,-0.1442655894981473,-0.1431195224135235,-0.11594537462860258,-0.03802944131465079,0.14498493440185292,0.5494451419435558,0.8633638306016761,0.7640986659781108,0.6519303809691692,0.5767786053336974,0.5313901096477912,0.5064873485979727,0.49877341554134985,0.5041818447106277,0.5148962861812931,0.5175512101449368,0.48102808951240494,0.28819244491527074,-0.5039125465603054,-0.8637551581672825,-0.9057969405529935,-0.9201503470551663,-0.9032617022810253,-0.8571472445987222,-0.810896182885486,-0.7838748797130308,-0.7808390896297572,-0.7974973829671503,-0.8229262213351289,-0.8446686890990959,-0.8544997952275779,-0.8499227120455177,-0.8281677873345957,-0.7806386810840429,-0.6939488195531979,-0.5502616707349512,-0.3507214030313531,-0.14317919939715631,0.006126732241071412,0.07324690596959287,0.06978179022904984,0.015537687699283403,-0.06136859915995825,-0.1307111244291088,-0.15623403564990762,-0.11820904814120149,-0.01751549869685179,0.12232693159543165,0.2430829883985051,0.3180979208735997,0.3855938438997555,0.4586340178043803,0.5267761469488373,0.5857319228342533,0.638258715824704,0.6910087047745614,0.7339457475367228,0.7436631593159283,0.6918654661290208,0.5970145059597384,0.5060690746360674,0.4507217434011472,0.4218953264987624,0.4008903721667509,0.3561700369119416,0.26934664735247166,0.1629662122764055,0.10965395090448908,0.19806544297898818,0.4400827597489323,0.6913856112961336,0.8312561018095918,0.8908312476089613,0.915974431791086,0.9236240283741948,0.9217182086194536,0.9118525658655359,0.8872972736997913,0.8279228100213967,0.7128045498236396,0.5717071872897832,0.447695761593965,0.3374747301005473,0.2383835402636315,0.14030457150122858,0.04823835972827597,0.008354574188119942,0.04022583390836372,0.14695020659317898,0.2889597284397979,0.4125306310014534,0.4891488294865507,0.5202412427485489,0.5290466554384716,0.5283402848082214,0.5180590193132211,0.505914709409339,0.5059418418256542,0.5227396925237086,0.5762294870704054,0.6901333919422721,0.8027859600454177,0.8725414544600499,0.9074208452852731,0.9198078589417696,0.9163310026179156,0.9020744906382763,0.8859316873899197,0.8672158464953857,0.83552312698369,0.7794484969689609,0.6936516120819614,0.5722979081612057,0.4166416989568211,0.18890471736887188,-0.12106291380608206,-0.3773265273028566,-0.5198016378637815,-0.6021468509143847,-0.6745467073195093,-0.7453460807713544,-0.8096620693931305,-0.8651609557512326,-0.9115351586678067,-0.939517494386365,-0.9345513161055103,-0.8959438216909816,-0.8483573178393052,-0.8138265751899386,-0.7948239692440422,-0.788102661643883,-0.7926224804500386,-0.8126285804910149,-0.8455519208805414,-0.8745149724992894,-0.883735805079667,-0.8701957683610514,-0.8233398776606913,-0.6790186252199647,-0.35592158167924526,0.010958290895977302,0.2640563604095838,0.4176500791651552,0.5196111980455823,0.6054296361807899,0.6931006132815991,0.7827162905920119,0.8535173089738638,0.8996692046312159,0.9251938358080258,0.9394688805104394,0.9457304910402029,0.9450862041943476,0.9334781346414796,0.8882017922985359,0.7636691735197207,0.5094785345660023,0.1411327841392549,-0.22831867671996253,-0.5102411764252822,-0.6751757158406397,-0.7222709309510369,-0.7089407210637894,-0.7153304334340509,-0.765248377010561,-0.830613857911443,-0.8727991329545342,-0.8877525731412005,-0.8963468207822165,-0.9086291996914998,-0.9140291473244622,-0.8845380742662875,-0.7900288738091015,-0.6254608299999928,-0.37797941031941273,-0.0002653079049903523,0.3458835904319701,0.4167409168317116,0.35297388668597424,0.27968747328623184,0.24524644809576165,0.2588298433141511,0.3176423059766403,0.4175159019995281,0.5712086086507256,0.7781851420741819,0.9242387889850885,0.8800708451536902,0.7723423873695411,0.6865160199719371,0.6138818691893912,0.5301795382297434,0.4216198806966941,0.28311917213355814,0.11842109863045802,-0.04808584019607279,-0.19958303439695468,-0.3386456715899683,-0.4775699421288571,-0.6099604301364571,-0.7227943183482407,-0.7984491596507666,-0.8258229383441694,-0.7886258890615784,-0.5676682816932411,0.2104673159749381,0.7554677829844274,0.8805538326725374,0.9118181140845673,0.9143207047649036,0.90031278688746,0.864446517877167,0.7822941656644312,0.5711715756915118,0.061191375528006374,-0.4896446543500618,-0.7465176278568485,-0.8438850605862687,-0.8594657889066396,-0.8325259175425734,-0.7846117182508163,-0.7223642705849981,-0.6370840052114044,-0.5122234117109126,-0.345808174137898,-0.20106828282154882,-0.17256194049186152,-0.25645742265572863,-0.3312705143216683,-0.30380237080326133,-0.1831121774835929,0.0035858178207822094,0.178929797692268,0.3184230833578631,0.44669810006675476,0.5712290356354595,0.6781324856381717,0.7543526588297899,0.7984491797134622,0.8126690268503625,0.803793094560933,0.7836727489099571,0.7528563431140711,0.7106351224499183,0.6716807826591098,0.6569544980617507,0.676783822409247,0.7311632337398758,0.7940324327443986,0.8194039236524577,0.7368685956042497,0.6101667972171703,0.5267356903998326,0.4987945238790373,0.5245683945568115,0.6055117456356629,0.6966591141126013,0.6623322039456683,0.5094786678269368,0.37939036987767133,0.3088792330086091,0.29034172816962284,0.2987948800411483,0.3163286186239519,0.3422472904577295,0.3691425449081261,0.38292005906835413,0.37259626056949857,0.33741856045679947,0.28222243920745554,0.21240727111840035,0.14977171866330208,0.09913258009764365,0.06730759113575492,0.05259480444179572,0.04800147735721848,0.04448283762860223,0.0310888835714099,-0.005271216820352796,-0.0818138923514689,-0.2087538931528631,-0.37934385496374806,-0.5593400585837378,-0.6759255026046008,-0.6754874802860275,-0.5485070140727923,-0.357343789009889,-0.21241144959479907,-0.15136093098422496,-0.12644608677564087,-0.11086622823450432,-0.11203874377738579,-0.14225728550277927,-0.21054676840932826,-0.34177566882414495,-0.6385201415054201,-0.8892038972497985,-0.561509578003017,-0.42452705194633045,-0.40409671792656854,-0.4483498066666399,-0.5362808014286502,-0.6396177389922229,-0.7091043914165386,-0.7095936755495329,-0.6515225616958368,-0.5654076586366397,-0.47829823509371366,-0.4052504025797977,-0.35406587315013716,-0.3289542255067879,-0.3183907021351595,-0.3071902520188784,-0.27304237708724743,-0.20748445217641354,-0.12098101666284512,-0.029826369682615626,0.04960879330310671,0.125253465898206,0.1796436606852516,0.20436802026374923,0.21121469670260795,0.21154649500838957,0.2069368580150455,0.19632653123009453,0.19142887336360637,0.21967458734275436,0.30350873577112036,0.42798010767552985,0.5239246577157666,0.5433126283933126,0.5016790435723867,0.44017079067448633,0.3985061021009101,0.4010490815587676,0.4650849934980935,0.5988178374521297,0.7715279982132552,0.8060559089373381,0.6676108052738104,0.5539398268315281,0.5080372381502178,0.5135578327544367,0.5483739448047689,0.5972925816608057,0.657219928096367,0.7258305283049328,0.8009728326912998,0.8772413644237513,0.926852907394326,0.8984127323489323,0.8026762530304976,0.6993145437297861,0.6188680330973747,0.5770787194787635,0.5896183278401514,0.6867292842657352,0.8202790352861437,0.7041590128422255,0.5314196426499205,0.4463787528317324,0.3804353424014559,0.30105637145639463,0.19776829094632808,0.07769209465185577,-0.04662578743183892,-0.1800252485374337,-0.3113426526043201,-0.40572923530595045,-0.43390705525729206,-0.39353917697298546,-0.29690315277583457,-0.17841301601266638,-0.10805196628889235,-0.10701135957766857,-0.14312906753218405,-0.19418611407424735,-0.255156894620586,-0.31430378526454333,-0.35911535999333016,-0.39109166946520185,-0.40900341355901115,-0.4216932009019223,-0.4400196147195798,-0.4660916378862277,-0.49172869372554584,-0.5022270569758043,-0.48493592522554996,-0.44872153977063317,-0.4024437239311641,-0.36223963158059713,-0.3363316403033656,-0.32109086411484683,-0.3153292266687031,-0.32358229530455396,-0.34702861544010144,-0.37604458063439905,-0.35463030789559796,-0.21568172049739415,-0.07621105868758635,0.010919197081044335,0.06740957339873432,0.10831409187580394,0.13083791317597035,0.12450931087658657,0.09371209781404014,0.06326667620938696,0.0471234067507055,0.05178470607907198,0.08467954696262371,0.15317803413703676,0.2670526270062042,0.43323771786742515,0.6455032376916725,0.8330445450191059,0.9001582420196242,0.8706397366016881,0.7885385674246363,0.6607670898395925,0.5109857561129516,0.38583806070444454,0.3115728543206261,0.2799836867825569,0.26621176331088886,0.25174045917966115,0.22861190614179364,0.19455346315078018,0.14887549479185117,0.07638100972202919,-0.07479836822395533,-0.34953955681696375,-0.35183399247935043,-0.3094326995306592,-0.30328809189501466,-0.3239590913707247,-0.3647862569770483,-0.4236160465896797,-0.4996606382103976,-0.5989762538111381,-0.7195154488766238,-0.8266295889120775,-0.8883163284691571,-0.9074183514662598,-0.8945483455148346,-0.844060506124893,-0.7743086594162022,-0.7256416645023064,-0.7276918146112873,-0.7814509753041833,-0.8486620877763854,-0.8523439045726838,-0.7427674614927299,-0.5322675758834615,-0.2741321505969359,-0.040190603684154204,0.1428694492387947,0.2691637033722445,0.3420663781998046,0.34897335972188387,0.3008778134376997,0.2634063082856675,0.3028372423193713,0.43052660116584346,0.6066584441035973,0.7469940142302531,0.8104612623927513,0.8261509378908678,0.826841719717519,0.8340112467382547,0.8502880810315476,0.8630167535817506,0.8667789193253499,0.8573106340373117,0.8216951821832235,0.7381203234755003,0.5923795931838366,0.43457809831405725,0.3281860813357729,0.1451552796717807,-0.010872969909050048,-0.06181797952645033,-0.1252357296952962,-0.20087813539827729,-0.26907493952101347,-0.31466718174606395,-0.33116502209368287,-0.3248518627071448,-0.3025425995777065,-0.27100482695038125,-0.23098798574037155,-0.18345992201361427,-0.12682412518117117,-0.06550787966273316,-0.012298552600820481,0.015509137340730715,-0.013547219990194946,-0.1682724801662135,-0.5217902639412301,-0.8199567691797747,-0.8594551473475327,-0.7992668343428128,-0.6868567406527691,-0.537664831912118,-0.3896167421944217,-0.26522919350101837,-0.15394394107782022,-0.04680486214385728,0.04852054508970233,0.12075333419544468,0.16523852266955075,0.18505585026774543,0.19028758685332328,0.1996800484081186,0.23492411347351214,0.32215721920812207,0.48345410475358347,0.696356561078068,0.8654139428968685,0.9437139582520219,0.951625143335042,0.8721626708027143,0.5492276518114511,-0.04653020023090936,-0.4180350162972439,-0.5711436530229903,-0.6571129910800335,-0.7354310995684356,-0.7981027710331041,-0.8056024635950197,-0.7767039912621492,-0.7522731436489591,-0.7214489001953498,-0.6251943757758199,-0.38697609485605056,-0.06776922544891965,0.17618599143848787,0.3324289895321519,0.44130223151540865,0.5328835577061668,0.6331718454294347,0.7401806861819151,0.8275647435408034,0.8812323202801633,0.9089818097851778,0.9210476347158275,0.920010858505671,0.8980521849088713,0.8374389646854429,0.6926199748807542,0.3830411946632057,-0.026686441308086405,-0.29700537325937376,-0.40436071088577324,-0.406906914305671,-0.33729723051479116,-0.23365905040880255,-0.14002551712339065,-0.06890664134066403,-0.011798012292058993,0.04041124956892408,0.09202790732676805,0.1479798380925766,0.15736143912821077,0.10901341778386243,0.03235342920074489,-0.06565403665716833,-0.1735928814899572,-0.22081772170341357,-0.17138861909585323,-0.04295828916906142,0.13953185779916127,0.26984713027253704,0.30141645927137345,0.3068664095282421,0.3326998643912878,0.40721427977544356,0.5641237514209223,0.5584741330402125,0.20481389864911984,0.01987038280753849,-0.08290129057087804,-0.16490583746522508,-0.26248917813833345,-0.39503060247857436,-0.5411491219300729,-0.6268020260243707,-0.6397127414591325,-0.628911364887417,-0.5969923494949617,-0.5293720958009229,-0.4464508401820917,-0.37635305336942815,-0.33358800268211436,-0.3145630444306529,-0.31863778393398834,-0.33951820843775055,-0.3657853248222252,-0.3845043138268487,-0.3899276521417656,-0.40843874584789425,-0.4536073399041069,-0.49512894080209385,-0.5109446317249743,-0.48777146493932855,-0.42478538567389884,-0.3482492719953401,-0.2876617292099133,-0.2704564856680664,-0.29258417992972374,-0.3353215039424433,-0.3742874592640244,-0.40307481250838467,-0.43857974980920206,-0.5143180422531558,-0.645129008839913,-0.7939397389884044,-0.8752179911456308,-0.8660473398953293,-0.8141984324248254,-0.7712831558392231,-0.7512254911616669,-0.7390920453531835,-0.7109552996846479,-0.6619607794145468,-0.6196276545204297,-0.6160709525376604,-0.6560408896530778,-0.7128372763530334,-0.7391996384401597,-0.6957496470817619,-0.6247178347250374,-0.5713942508746426,-0.5527047097358572,-0.4827370938737376,-0.18892595406166424,-0.016705760947398524,0.04570932870250635,0.07209819574294733,0.08356536381584999,0.08617794554882623,0.08256943522185313,0.07483463595807849,0.05701918730799615,-0.012250236264796576,-0.025994224287685733,-0.016221888125168785,0.006265488067620819,0.0464441922039878,0.12246244616037306,0.26111862022628346,0.47726425316186566,0.6988417024876298,0.8111125851376725,0.8447792069781362,0.8508757621027572,0.8473773753410249,0.8408739758144271,0.8285222835288648,0.7882650057597452,0.6965980832107362,0.5595540435573211,0.41276168220334447,0.27141272568551833,0.15344042838657482,0.08917643351715648,0.06741646133566154,0.06534383015743041,0.0755511864433432,0.10371865092831006,0.1403923871981047,0.17125087041360842,0.18961513115653322,0.20537988679057864,0.2259390518904474,0.25691493048394415,0.29006582191187696,0.3123764370890337,0.3316714514732707,0.3610846275105885,0.4139178093630689,0.4934825698188403,0.598938337542049,0.7064671162142924,0.7755022516400376,0.7772347779115554,0.6790394710230625,0.48090876318514636,0.2893646558989531,0.18334065277747438,0.13878051396703378,0.12669419851230498,0.12723500971493146,0.12042564106538063,0.09240445180985139,0.03998420719951356,-0.026238661520031795,-0.09320564062657338,-0.16503369579699145,-0.26667580452893236,-0.43972137780828313,-0.684241894056677,-0.8535959487875724,-0.8589291175748782,-0.8043064428582504,-0.7553171022239287,-0.7250078795755932,-0.7084186252604419,-0.693688002163933,-0.6667860189378421,-0.6072438239784922,-0.5024088431884434,-0.36602490104830016,-0.22690385334581034,-0.10826068307475345,-0.019188974524573937,0.04836300021098553,0.08925737527749228,0.09672388107729808,0.06806775650808784,0.01705319115339087,-0.04451118687466692,-0.10677131775642143,-0.18066973741520836,-0.2682498835908945,-0.347916663564752,-0.39765979864785844,-0.41179039282814145,-0.3923808949315478,-0.3454693006313036,-0.262531118212597,-0.09234973114899737,0.1872364447415485,0.2897582324953959,0.22246580344986758,0.12264453548716386,0.0704406426133885,0.07220205549583221,0.09862570292147031,0.1304751564635837,0.16862982005141386,0.2105550786233633,0.24517930691025056,0.25184009975025695,0.21359814859702284,0.11526909115389908,-0.034015179386866864,-0.18802713192690496,-0.29111397117778237,-0.27765830668579283,-0.03469793164815211,0.4509367010182318,0.7555410873852701,0.8597251406072918,0.8961188352730189,0.9058238617451626,0.8960538362755052,0.8590600176903944,0.7724900370928496,0.6018415282535889,0.3478619403623491,0.0775743038588571,-0.15617629663315705,-0.31011712683650233,-0.28611162719428485,0.05807010461421825,0.5831817617917523,0.7981529939801293,0.848519340113937,0.8510816020706788,0.8296106820729423,0.7850191365092283,0.7034010926812277,0.5642768996413411,0.3614938361667567,0.11586856521967634,-0.1712172283809842,-0.5576059969726516,-0.8301128760951911,-0.7103097129099728,-0.594965562344269,-0.5413018919825735,-0.5230588326214036,-0.5267359473963834,-0.5575777267791815,-0.6195089707735434,-0.680163807069902,-0.7154312314428053,-0.7330066551470918,-0.745764598502651,-0.7581030997235066,-0.7657996018320926,-0.7640926126536809,-0.7551776746964022,-0.7447656717433723,-0.7418154414850334,-0.7475698137643875,-0.7602722913632809,-0.7759373791425136,-0.7911935866805822,-0.8069709678068405,-0.8202521446293535,-0.8172648263625151,-0.7723313805608861,-0.6629970087197986,-0.5077798955428334,-0.35198757945174763,-0.21624674255615728,-0.11190633566383609,-0.037779812350510304,0.02108887588855245,0.08073517831599027,0.15266680897713597,0.2417649308241884,0.34820551706801073,0.4701461550754754,0.5961259788918257,0.7219812918802742,0.847166398200412,0.9469376667938134,0.9825588337862171,0.9672431805808958,0.9443595781396217,0.9290458888856128,0.9209522690466434,0.916014243327447,0.9143103337114475,0.9136921751557789,0.9122570340061351,0.9119686399966094,0.9157591657540665,0.9212168323672004,0.9149782780809028,0.889628047323436,0.8647413416741547,0.8608901744839232,0.8705162148724034,0.8703438130193544,0.8484553066411064,0.8079951580299422,0.7464782686444317,0.653232183852276,0.49301298120905646,0.19881202647608184,-0.2330374932334821,-0.5854831600111842,-0.7691978411236629,-0.8584833654609705,-0.9009176971806141,-0.9197126967541172,-0.929826150646261,-0.9382059978026042,-0.9430731063437194,-0.9433248892278102,-0.9425339759620457,-0.9429904454188847,-0.9424197406995842,-0.9284390686563871,-0.8734619377790908,-0.7401590469268792,-0.5657490488078133,-0.43016714621003477,-0.3704651330642085,-0.39143354125685653,-0.48454018628632595,-0.5850244885106324,-0.651887988411825,-0.6865087525631989,-0.7064002158041778,-0.7238015414631109,-0.7484081271921522,-0.7862177654898392,-0.8196340570704902,-0.8189691710026279,-0.7266816569784169,-0.2961145041753161,0.5221954006041879,0.8361137075921105,0.9155401871937647,0.9396287564845918,0.9401737548077463,0.9153512598537588,0.8618294137054902,0.8059440128164223,0.7871810911134521,0.7872601493704684,0.7378586644978012,0.6250273901376219,0.4861806913475375,0.34943028462372755,0.24025225315079063,0.1704917549515905,0.1353320584264713,0.10820765845742826,0.04375985081322446,0.008059310863996205,0.004963902554943913,0.017232386670749555,0.037685556844568285,0.06900144702944881,0.11057293690983398,0.15803434620542928,0.20199100941276327,0.23252206610043488,0.24211886181517742,0.23730486673075463,0.23436504908742362,0.24038578217051906,0.2626285511542547,0.296697420721495,0.33666178327033325,0.3753317643500598,0.40530009674414585,0.42960147560018913,0.4500239107603907,0.45975349272297894,0.44677791748000534,0.4093693629501415,0.36245658707983336,0.34241677272387605,0.38483801407852103,0.5045417833209349,0.6816828429748709,0.8139208966074049,0.781628710204891,0.6146889868129487,0.3797694784831234,0.12224012589175753,-0.09446698313294946,-0.22788412487604193,-0.2724068331740826,-0.23162211593510618,-0.10994247512892738,0.06210878251421389,0.2131228223182279,0.28079988341132184,0.2372242184249905,0.07615248348207118,-0.17791021836108853,-0.4263398662044552,-0.5948216593669239,-0.69312852590904,-0.753237166685125,-0.7960417987576374,-0.8288490227730776,-0.8547326113161617,-0.8697198778350169,-0.8617435034711024,-0.8254078034998453,-0.7472778881301043,-0.5595975679160822,-0.09266376983546117,0.5423563473394275,0.8101088591631302,0.8358516038345072,0.7374431343949543,0.5306242291324581,0.286379951547065,0.07876694634404595,-0.10009004226498391,-0.2755403376390136,-0.4479630212629451,-0.5710183705846176,-0.6214678418827728,-0.6323973674135435,-0.6340850541356619,-0.6393443048697218,-0.649396024333926,-0.6645417200602368,-0.6913221180137358,-0.709060516441744,-0.2500190477813811,0.1111684275756438,0.21028371332634754,0.24754821425921839,0.27009810449401334,0.2946487031256112,0.32934990057820784,0.3785521125798996,0.4470385491150945,0.540938918352293,0.6514137450032764,0.7473394244453666,0.8081460245403209,0.8315568763957467,0.8160181120508212,0.7470465119124272,0.6022579163932271,0.4109694579027587,0.264977511748115,0.2111227194820648,0.23653094922481638,0.3083323197950355,0.4096905795473197,0.5292430031052338,0.6330504148676402,0.6302457554569225,0.5665842793796585,0.5227028699749418,0.48440965004172043,0.4153555046377132,0.28021114063057667,0.06807167733737335,-0.17515340363528256,-0.3761599740074464,-0.507651296207674,-0.5809794599937237,-0.6207560280784593,-0.6398949700149106,-0.6394383545078368,-0.6053138407743144,-0.5184578517611709,-0.349821937956877,-0.1236414794211288,0.008998748232392963,-0.04399822764569867,-0.26895034412236873,-0.543032493204277,-0.7179319941893705,-0.78450319851435,-0.792500316486651,-0.7717732574245924,-0.7355126965775101,-0.6990976676158687,-0.6741928082696022,-0.6674721443536743,-0.6740872468793578,-0.6800232651827645,-0.6762830981248791,-0.6556782659632561,-0.6196143544345925,-0.5747358917267609,-0.5264551029256835,-0.4800606971148566,-0.4379848492531366,-0.3982556089385514,-0.35718345404046004,-0.3162558626391584,-0.28067421989364355,-0.25748326672591537,-0.2638777727143697,-0.2833004380796773,-0.28615914536541726,-0.25733362835419427,-0.1961980382118295,-0.11015716135208899,-0.02093310366688848,0.05314370881865041,0.11280183847367888,0.16119768918562646,0.2010684759588136,0.24162217602194763,0.295824963386757,0.39640748911933993,0.5701899617885723,0.4972121329151952,0.32443367023169534,0.24855212160171639,0.2196495447919975,0.21627971578912472,0.2488249870973946,0.3569597968772775,0.5780660629099412,0.7836129146275772,0.7814965640202731,0.6738396964939753,0.5534943352449578,0.45907088401246693,0.39974831404064537,0.36329259215417703,0.3375847141723461,0.3144065344345319,0.2907477677900723,0.27450714632384376,0.27509124922707945,0.2974611490742923,0.3379156697239699,0.3916532970919662,0.4673591312809583,0.562540648146881,0.5990160898961872,0.516034457751111,0.3831624709076575,0.2664525611097665,0.18039518147591496,0.11820867610104567,0.05906982872230657,-0.007429741561053111,-0.07292410559022697,-0.10908753784756656,-0.07367684307950026,0.03110327146958675,0.1539315225576472,0.23949927859465955,0.27237347640451853,0.25903607503427595,0.20251271819237304,0.08736361108795121,-0.1425365799746748,-0.46793745391775365,-0.6687360972555237,-0.7291793828460703,-0.7392881303324157,-0.7354543336139435,-0.7266234039842543,-0.7157702295314209,-0.7067845613492015,-0.7031638172379757,-0.7167912040939436,-0.7402232708148594,-0.7494795111465943,-0.7324707856185128,-0.6942904527339624,-0.662257763242679,-0.6572488226767408,-0.6758948250819314,-0.7099902184841265,-0.7651859296069953,-0.823978497817279,-0.853776424981427,-0.8423235469033231,-0.7991195551747654,-0.7453649236147016,-0.7155185044130502,-0.7259718857522218,-0.76846382510174,-0.8153302124583516,-0.8369770081490542,-0.8157662948285468,-0.745224696363679,-0.6120775159654208,-0.36708989989306773,0.1184048371997393,0.6486509560725329,0.862655182929515,0.889180215244984,0.847712397695752,0.7940706310384131,0.7515858312951639,0.7224393885579647,0.7034947210128186,0.6993975815041896,0.7199655994838943,0.769672864413361,0.8411731700246582,0.9162773217748155,0.9613129137878793,0.9319641065447001,0.7609479162859554,0.4072200446557298,0.1118787359710175,-0.003777306681671031,-0.042429008785138604,-0.09895176132285213,-0.2766479155784404,-0.48451604888174726,-0.5075914807822826,-0.5248979503458058,-0.5705061002482986,-0.6396934953665542,-0.7231686417503733,-0.7980106987940888,-0.8305840449643775,-0.781380213707868,-0.4675880340632102,0.44044806421375743,0.833764568657876,0.9127623980372886,0.9297312027945971,0.9256273247354745,0.9050544486995515,0.864682805519513,0.7923138089613897,0.6716985345166837,0.5227460512419917,0.3508807764429251,0.09695008553594912,-0.26940062411001336,-0.6283146314083533,-0.7786617477688839,-0.7753882228500409,-0.7361827809317213,-0.7007691410112424,-0.6747287585359927,-0.6516452768585054,-0.6178173979359591,-0.5661855827019612,-0.4939284885314085,-0.4172827503061919,-0.3600867395068169,-0.33968280521361155,-0.3442248208947853,-0.3311850549911634,-0.252924574273658,-0.09654194128359425,0.17474060926917112,0.5579200300368565,0.8303120256851823,0.9261343942320354,0.9532468946884622,0.9575587269013017,0.9541188985540369,0.9473547840224628,0.9371411434662,0.9229777678479182,0.8995499774092882,0.8440377466517537,0.710851162207628,0.4453856645775177,-0.002193207976304229,-0.4693577089706099,-0.5832520801066868,-0.35912339503846546,-0.1580236546026749,-0.050213538064193354,0.00479213339879697,0.029826367597585213,0.057447322254314336,0.14051161246745078,0.29765885696764255,0.4361816091119869,0.5174414498130804,0.6264177904376829,0.773447062193528,0.8942599533430972,0.9484079495464688,0.9603399518441713,0.9556898932577669,0.9477678405206209,0.9413748841071006,0.9350090016886513,0.9183390024393161,0.8692154880264439,0.7745025214368728,0.6857940190116176,0.6501087710761623,0.6416640992357272,0.6230522474651868,0.5727665625213648,0.5010948183010522,0.4244358528545771,0.2639646145795739,-0.38227956348891284,-0.5440401254418187,-0.602099917133218,-0.6678774152201303,-0.7360739078450773,-0.8012009919659369,-0.8620148921879159,-0.9118353852138901,-0.9389421876393766,-0.9426831528430711,-0.9269668316158217,-0.8947265814045662,-0.8628868576797303,-0.8574170345179625,-0.8915497583672568,-0.9355705559620222,-0.9365485266738488,-0.907577388538955,-0.8915643660752209,-0.8971162712254956,-0.9149971959355697,-0.9357671340467243,-0.9514348137094355,-0.9595591638989508,-0.9613830210077122,-0.9583259149784251,-0.9535789408226348,-0.9498591060037328,-0.9449639371669715,-0.9278891521483864,-0.8871074192756201,-0.8091914642813031,-0.6732528384945784,-0.44987204271792225,-0.15719401107779915,0.11156778173527503,0.30018091111655126,0.41748171294035635,0.49261169785768294,0.5509927352367211,0.6126707986247387,0.6886759387051253,0.775724030068225,0.8612208169907408,0.9155044030298879,0.8728798816110139,0.7017939183006837,0.47099199668895975,0.2382784680281214,-0.005519910986802853,-0.26648176282838604,-0.4919744563153859,-0.6495540660316929,-0.7486831539024938,-0.8106688292438239,-0.8485826704741074,-0.8711515990364163,-0.8836182638719481,-0.8853582483425815,-0.8711009215150751,-0.8179308888233057,-0.6377844805084882,-0.08083927696185207,0.5936662740899377,0.8324151311610256,0.8907781782605658,0.900331951281027,0.89307637629436,0.8799565581636684,0.8648701830347348,0.8495140076722171,0.8353411560570279,0.8257178484479767,0.8214413721608643,0.8227415797501162,0.8302771340344006,0.8435037282525116,0.8602332467390192,0.8779955058659655,0.8953289801139421,0.9100194479035755,0.9192845516470789,0.9214615772784361,0.9171571406206062,0.904643546011329,0.8746705705935736,0.8181407098489221,0.7366589168852914,0.6587569342066957,0.6009183079194405,0.5425395243434809,0.4457516129582654,0.2562216186722599,-0.02660607711227423,-0.28955048950583195,-0.44501112021263245,-0.5117232089894004,-0.530315112345275,-0.5374050426113541,-0.5570060634671549,-0.5894695602199687,-0.6341547899050081,-0.6901766714135874,-0.7559961069485273,-0.7275003440981265,-0.24095494017632635,0.054905024956504594,0.13039151428570406,0.13503825157298252,0.1143674398070354,0.0871482264428467,0.06047154165708995,0.03145897485104942,-0.00924884737433215,-0.06393725568966291,-0.12560583857170443,-0.1906466939803253,-0.26531580360948886,-0.3637558296597165,-0.4805972123604495,-0.5665479879731707,-0.5624848407240969,-0.4601370427409031,-0.2535580337168956,0.024953169095182706,0.24058398842542816,0.30257858217222033,0.1837814739475696,-0.09269263037948337,-0.3804158596768534,-0.524619595348192,-0.5477646884945373,-0.5316948962481138,-0.5367348986168867,-0.5814923527504724,-0.6531121101076294,-0.7062622343617442,-0.7121718382311979,-0.6951366270848182,-0.6706146895194642,-0.6307042289934424,-0.5718295426000904,-0.5075814067541637,-0.46283167330488134,-0.44914919315260887,-0.43147184721308135,-0.3636740871784909,-0.20769246418693102,0.06376641911513736,0.4022706728647118,0.6621455490605437,0.8080425779226008,0.8800206517578215,0.9140037722294728,0.9299503187879554,0.9360511740229759,0.936197818689548,0.9314653872860075,0.9196582769374541,0.894260000168052,0.8402794489172503,0.7181892815364164,0.450874351387848,0.018582494012081667,-0.3573321934314624,-0.5610335780608938,-0.6589970049235667,-0.7114906700995379,-0.7494318162464823,-0.7874438370899393,-0.8207328606565889,-0.8388752549247158,-0.8449445036193182,-0.8491986540259715,-0.858870788320936,-0.8884187124434056,-0.9393179612378754,-0.9802027991198554,-0.9866296602110216,-0.9719299090341031,-0.9482571654910582,-0.9099690244651395,-0.8395378073729132,-0.7252833613568312,-0.5844564465782527,-0.4553609067008526,-0.37616867062889714,-0.3793962329014004,-0.48843914508175384,-0.676623924174071,-0.8367929244643837,-0.909720976805898,-0.9279001846521214,-0.9188809412786436,-0.8775731325123586,-0.7261278631656601,-0.05234697214159133,0.7811614434535165,0.948861740762307,0.9792786282274835,0.9833263354268069,0.9773397334773114,0.9566726749382357,0.9256874470591334,0.9102919410064874,0.926278691846651,0.9544921861377074,0.9764792856006517,0.9889472953417268,0.9935444364077826,0.9917724792507915,0.9858128109164888,0.9767119535046472,0.9644819636870967,0.9499381108326217,0.9382446598506894,0.9356406605475635,0.9421241462515683,0.9494265483038834,0.9459628571678982,0.9204446120945572,0.8660053738630245,0.7785174923723804,0.6443769331829334,0.4408586842743846,0.19704709818777488,0.00797255191714025,-0.07424728436824442,-0.05731319302199346,0.022590819830401777,0.1222115680704501,0.2213884127090074,0.23834310538854642,0.17478591207630184,0.09066323482386718,0.0025283671344956387,-0.10244569307061065,-0.2262687780440523,-0.3321135321533591,-0.42451821167235226,-0.5246605310901972,-0.5666686234575974,-0.5302871036333052,-0.4957221613403044,-0.497719760744192,-0.5442103188086819,-0.6419794327689134,-0.7899135406994628,-0.8992925808445258,-0.868120264386898,-0.7726594337309468,-0.6868721666846563,-0.6321800261884134,-0.624310574729178,-0.6705305907422533,-0.7569558086846746,-0.8309903862957645,-0.8258710493603694,-0.7552182770130219,-0.6760130703991857,-0.6055656463271988,-0.5427838296516094,-0.4953938159414427,-0.46629928729491127,-0.4478350893660458,-0.4266259278525442,-0.3946298392123535,-0.3509816285356812,-0.30012147966486913,-0.2586244299621027,-0.23617334727441675,-0.23520571825357633,-0.2533499633576259,-0.2818798188297928,-0.3169411495784824,-0.3622344372701209,-0.4341652199208141,-0.5499178379758973,-0.6217933035921118,-0.5494370313770263,-0.39283035410337513,-0.20539004303994213,-0.018157921852135158,0.13325576645102696,0.2162700802090311,0.24121038110590146,0.23605291770505538,0.22253803188355653,0.21728954694881616,0.22736422188979702,0.25205957227572245,0.28598069949962596,0.32228089132402715,0.34663689392156094,0.3510119175239669,0.3377331456213984,0.29939031612476885,0.24053836102327264,0.18148419513671257,0.14444137688338402,0.1310222145360127,0.14028292376340754,0.1544819041229485,0.16998425362552383,0.18679573526844273,0.20597068846492797,0.22828698605446582,0.25188041629771973,0.27739667512260074,0.2954178433818241,0.30378515995877564,0.3145971111836366,0.3342722591008858,0.3609370504454723,0.3752131521838748,0.3531571064820441,0.29843263042076335,0.23443702229144983,0.17252145374389966,0.10017764862763377,-0.0013402981092355806,-0.07943668998574088,-0.0991214308799874,-0.09715933481003058,-0.08916323367180834,-0.08000130745337185,-0.07420892379662163,-0.07519368342874029,-0.08130328275319967,-0.08888762130677368,-0.10527469219947014,-0.15238443170219293,-0.254073249443049,-0.4094227995328326,-0.5345763339226577,-0.5558014924699837,-0.5432298381587279,-0.5496544813443721,-0.5705283908620883,-0.5860427078486418,-0.5928435681332967,-0.5885757168953831,-0.5665055211598888,-0.49316656066293446,-0.35344530900048454,-0.17767678892961203,-0.016200459245430808,0.07121718645202046,0.08762068346542726,0.05795815753371657,0.013446520606824051,-0.023181414285704707,-0.06605943436973837,-0.13879059208963915,-0.2771583686849224,-0.4947826230220016,-0.7130389070971002,-0.8170842384075795,-0.8620176523290594,-0.8939817961586362,-0.9019062870530807,-0.8688518806695574,-0.7930609723164861,-0.666630748498118,-0.5167680068092595,-0.40448677997305293,-0.3457162455263094,-0.31634531427869655,-0.2932097735486835,-0.2418543345402703,-0.044092627225922144,0.35637688876686063,0.48938426647276,0.5715115792488059,0.6637090329208684,0.7621355076699966,0.8493461215566125,0.8717688733570421,0.7987544937799429,0.6911449500495942,0.6257689207242405,0.6348663010968618,0.7284484475488845,0.880700959106394,0.8400222670515721,0.5668423568595128,0.36511352058281,0.26247489706821653,0.2133211610180596,0.20462477796218073,0.2711235089784,0.4268744771048515,0.42460787623181817,0.39539672374139784,0.401030294999489,0.43247826425925534,0.5080823740495805,0.6572748106973123,0.8131708147301037,0.7286346593690335,0.5608350680302288,0.4934869861111711,0.5105868153269112,0.5870870321160419,0.7016335042963766,0.8140909310528519,0.8830943932059139,0.8914142389003138,0.8175444728388114,0.6017495940295294,0.25040272751169024,-0.046736589078397756,-0.20886782918155014,-0.2951529888606923,-0.36931057766274666,-0.4772801803034606,-0.6072006667733135,-0.7256520963921721,-0.8094030513674079,-0.8661372689202655,-0.8996958793592159,-0.9151982854433444,-0.9212252700479033,-0.9223164107701401,-0.9113966078564489,-0.8808256010526884,-0.8343453616685171,-0.782334770898041,-0.7309249972468355,-0.6650946058368001,-0.5619554233650801,-0.429311068203661,-0.33834034484034936,-0.3252474842079089,-0.37231286492437465,-0.41710998622580836,-0.39566079368116597,-0.24357355993562343,0.11781985038226482,0.5551714674459555,0.775575594301601,0.8378349096885995,0.8308382067136213,0.7855561721434053,0.7187704098747152,0.680795878410681,0.737063532437054,0.8739948146933112,0.9700591550406849,0.9910813026435467,0.97608639470435,0.9565838321858647,0.9437079708974968,0.9371562011221395,0.9352713147770927,0.9378618664847351,0.9431578874679462,0.9430929715285188,0.9254204066614579,0.8789882459899238,0.7856353877488698,0.6035399146875005,0.2706746739041733,-0.19596737212645818,-0.5999818912059632,-0.8282023163916326,-0.9280919005552981,-0.9676959707798558,-0.9844181892934708,-0.9919461421612411,-0.9913650527543574,-0.9774347552081636,-0.9419189481942822,-0.8817849127162092,-0.8064061315671179,-0.7318757481597274,-0.6734543741064006,-0.6484083754121354,-0.6739275639065996,-0.75296489465128,-0.8562650455704798,-0.9375777086206883,-0.9753909755195601,-0.9804331828032373,-0.968129168238377,-0.9498596366244847,-0.9348788619050231,-0.9283263316094352,-0.9155444595823856,-0.848615983906921,-0.663776405074084,-0.3795578537898566,-0.13286633745586438,0.03474946468679064,0.15523978150207013,0.2634241648583078,0.38001360219366803,0.5242462030546254,0.7008368750427033,0.8529988455764085,0.9327508447014305,0.9660157980776076,0.9800572382627245,0.9836827603463572,0.9756304960442432,0.9508120615323605,0.9123975431993435,0.8708410061187034,0.8289398969399069,0.7805129754966467,0.7126561492836594,0.6059509689312358,0.4596671255560731,0.30899438259541934,0.1752452111898516,0.06607206708427198,-0.016266582890050764,-0.10211775863020499,-0.2379111769796972,-0.3031606127657351,-0.2921824201517887,-0.29402427179696855,-0.3151319623385794,-0.35256956848950227,-0.4041584680177819,-0.4656030809198282,-0.5279853791304875,-0.5787851271970829,-0.6132863556215594,-0.6534715958144568,-0.7144471500037842,-0.7601888548082868,-0.7341907223991411,-0.5974844074915342,-0.2693109205348713,0.26422037904399354,0.6875278405649934,0.8794453205947715,0.9487992537704216,0.9691086347505276,0.9688174040480189,0.9383902536934119,0.8582195293410829,0.7714309073028185,0.741330257677873,0.7653423311866204,0.8017763212708251,0.8195038207686108,0.8211386953333443,0.8204711631640248,0.798655384805742,0.6770527325245453,0.4149669585848905,0.07113548345083989,-0.30599077967528776,-0.6142630966685512,-0.7493873525894338,-0.7408843221638886,-0.6814283610318745,-0.61360213693731,-0.552782095589162,-0.46747408492295434,-0.34205755733317467,-0.23582182772767377,-0.19177882946008196,-0.19931709789137114,-0.12128179317448001,0.27780842934935795,0.7486395357624968,0.9036875978298126,0.9268042777317328,0.9204025850958081,0.9050833955836594,0.8835091894299101,0.8488905679521147,0.7883966820526095,0.6408506473875765,-0.048712793628236155,-0.791387041752262,-0.8809821704394245,-0.9052168951758786,-0.9197980652432571,-0.9289376875511014,-0.933562246097799,-0.9336586359723945,-0.9288841674058911,-0.9150053666530426,-0.8829887780997006,-0.8104668017446308,-0.6599780273833241,-0.43349659774238836,-0.23510045877103164,-0.12710335199930936,-0.08437521419676053,-0.07313368070180913,-0.08320126491510023,-0.1106924483018885,-0.1643628883510964,-0.2690264534650979,-0.536688136809557,-0.4233611699333352,-0.17097629374651835,-0.09648278876922871,-0.07786934073144831,-0.07250132283800942,-0.06353002243785826,-0.04434605549576098,-0.01597199642750073,0.018236272615849206,0.052893270557252986,0.08312660925978944,0.1049027532806638,0.11914749538006647,0.12544007572114682,0.1260031440854909,0.12341232395832617,0.11728544497133145,0.1041674155654978,0.08409989706677985,0.06868255090195649,0.07103612834280339,0.10637465391774963,0.23117967071673895,0.5942721012032885,0.5317462883013235,0.39037243361444934,0.31811317457447486,0.26876986107327916,0.2291462715655497,0.1957447564893636,0.16499185422407298,0.13831540422700617,0.11935393688104041,0.11478152815717518,0.12452545300399359,0.14091005906418624,0.15128537823271593,0.1406418702113532,0.1069083137915564,0.05862787602492968,0.019451548940555674,0.011141624511501498,0.08738314755015666,0.2924785999771948,0.22009298419458667,0.16324875351788568,0.08992103886353854,-0.05777671350682642,-0.3549948096733648,-0.714686680114332,-0.8580624895315363,-0.8703530635602803,-0.8668143311558378,-0.849748695653592,-0.8016561061294201,-0.7411764019903871,-0.7101638135477575,-0.7545661930290368,-0.8419320341346571,-0.6218870307710763,-0.38589495368750204,-0.275747909425045,-0.2439356615434343,-0.2711764657536224,-0.3448242652459664,-0.43272097570055634,-0.5018090426415523,-0.5199476776975357,-0.45773538717435514,-0.30494960090957546,-0.06991756602965969,0.18901753645521366,0.3828719663393058,0.4679847649830776,0.4507723297198173,0.3548964460293388,0.21853529666419555,0.09598916870239926,0.024072264584668154,0.005691167048092003,0.026091423229383282,0.06498079966798793,0.10776637128885852,0.1474153507005448,0.18345925702424634,0.21676145946990677,0.24459106132726693,0.2674445488535231,0.29665970897085575,0.35746272140324253,0.5024323451323768,0.7822352048068636,0.7092192040481695,0.44308293402297566,0.3125081853021027,0.24899783171770548,0.20782952203651645,0.17004449735577645,0.1311173968059714,0.09460642864079243,0.06307870544732622,0.035573238602115205,0.008386781917667039,-0.015508331091926971,-0.03069030529653018,-0.038918824037408165,-0.044669534949125275,-0.053185270872932795,-0.06550772465077245,-0.08358841524466,-0.11008215139932336,-0.15847744266689925,-0.2744935085490189,-0.4929526743678559,-0.3636643389892206,-0.18196227643339682,-0.04813173827316723,0.0638745890595036,0.1549990823128863,0.21734917803706583,0.24303710585791902,0.2293281566803608,0.20064423039601723,0.18198777314722142,0.1946238205528768,0.23048556010711194,0.2786991493624024,0.31774451562784767,0.3408706733288619,0.35319538382540877,0.357062359006521,0.3475549160219397,0.31672660083104565,0.26002590042448404,0.18189277506877677,0.09060713756886232,-0.005156820349702532,-0.10290733594392906,-0.20369916305083097,-0.3035043882447578,-0.3922970675299738,-0.46357781942216114,-0.5191909306332343,-0.5692652747751552,-0.6234689103508047,-0.6826890756105385,-0.7382216601932052,-0.7797548840369417,-0.8056066133481783,-0.8162292416296774,-0.808038399294052,-0.7752424989560965,-0.7059301276174209,-0.5766934467316545,-0.37865209047174586,-0.1604869130546462,-0.00573982348056711,0.06062165076120684,0.08192758711284492,0.11413333975342166,0.16807170989480144,0.23548260222500952,0.27511395954585344,0.2724391302021963,0.22178499145536265,0.141733046585255,0.08773151855706125,0.09325477190830182,0.1751081052293534,0.32572014804017513,0.48483067528926466,0.5437118584039197,0.5299216753787832,0.5012799166567932,0.4720678176172775,0.44328892707309936,0.4120066197170699,0.3789459927934062,0.3498636307981961,0.3327803373621562,0.34106710372663007,0.39350941865952344,0.49690730098623637,0.6339518801921707,0.7626422004405047,0.8563549804761968,0.9129479823925791,0.9392503006893176,0.9419585627023589,0.9208988296930098,0.874294447183232,0.7955238193318024,0.6604624121513409,0.40969438441899686,-0.030539791935062278,-0.6270999173627801,-0.905443042413187,-0.8995393108466393,-0.8755090695798597,-0.8800444105951472,-0.9041928388537582,-0.9327577984322426,-0.9544849078524408,-0.9664600768747167,-0.9715088317055841,-0.9738149173864361,-0.9758739138558803,-0.977433552952357,-0.9786731379835485,-0.9806125185078166,-0.9800920734749136,-0.9706660568751122,-0.9421451131440308,-0.8685362590197157,-0.6576681112113913,-0.09095548313490466,0.5677324209059508,0.8415518513810865,0.9258835295508839,0.9505744768691303,0.9543699489498572,0.9493308922166882,0.9384812215864203,0.9164919430211667,0.8670796715087108,0.7570970507850339,0.5575585674937968,0.31957674904624084,0.13803765352663028,0.06276206126031533,0.12581162432023119,0.3740074748179878,0.7011264304016694,0.8773048718429669,0.9326495767340177,0.9392385301976209,0.9193379111594004,0.8849624259886563,0.8485039659876206,0.821199605495489,0.8013011629545335,0.7811201938180817,0.7440841714466498,0.6549709760364659,0.43944853059959943,0.09062797023366415,-0.23105546485037123,-0.45451563839563547,-0.607894026902127,-0.7035319588323588,-0.750295105625391,-0.7496065885186263,-0.730634082794742,-0.7225197987966041,-0.7422338322826085,-0.7991186963536474,-0.8753590805809905,-0.927785705120572,-0.941338185599208,-0.9378671934003658,-0.9348796326614667,-0.9330978980385912,-0.9256456510149003,-0.9035791772630037,-0.849358301345963,-0.6893304148362782,0.038463028960456856,0.844768785125181,0.954911763751155,0.9710620776530682,0.9713635225992997,0.9662395808457596,0.9596670073529067,0.9541614525722496,0.9520458171712438,0.954086552494509,0.959271662011569,0.9659965445384733,0.9719125399988942,0.973450311908675,0.9671087833756099,0.9485087276650891,0.907087415456149,0.8160391977211403,0.6093409248231209,0.1979079517557691,-0.269742698898547,-0.5638950885634815,-0.712371808826226,-0.7917075976026183,-0.8399935367872892,-0.8722412264756729,-0.8996396784294963,-0.9296451794808069,-0.9577755297713402,-0.9732259194019438,-0.9680999923109738,-0.932903912930926,-0.8601138078810913,-0.7572624819231015,-0.6443393388297818,-0.5362823149359806,-0.43244476805702625,-0.3303761789855843,-0.22992974102093885,-0.12901845485097083,-0.01745796901895518,0.1138000923563809,0.27769496295976254,0.5030227478754862,0.7143501180480203,0.563989987119211,0.3215728126723611,0.19061837427319858,0.1438477361108761,0.1464067357677106,0.17015593320503872,0.1987514671977084,0.22792055839101125,0.25489293124173285,0.288136872286975,0.3327792326642387,0.32580303170669456,0.06107820487377054,-0.18540331107729613,-0.37548877714208173,-0.5426416029057819,-0.6500428496700638,-0.6497890213929468,-0.5185408023787049,-0.2585480725401993,0.0734696459854135,0.3211573810696919,0.4306699185962247,0.4650412903460212,0.48554536998347103,0.5152916525175216,0.5089340431835742,0.42178294934846655,0.3190068655973613,0.257012122196625,0.24103229818910776,0.2737852374773458,0.3479421952289707,0.4556527133300135,0.5678100805135559,0.6522771928916249,0.6939990702368705,0.7047401060532975,0.7116241058719545,0.7366740930757885,0.7803568717188996,0.8136861816991648,0.8215838561811704,0.8103380168830228,0.7965938975075253,0.7930828890105172,0.802793123729569,0.8140248269841022,0.8173092024450088,0.8092626733854493,0.7886692688314881,0.7548109143489536,0.6926462379165212,0.5493671005938833,0.20314440516465235,-0.3590988072402198,-0.7619519698019824,-0.9202863111722138,-0.9660116289387529,-0.9497914906052993,-0.8931222942929434,-0.8515036434056615,-0.8550845514665223,-0.8691598589941537,-0.8665805488585764,-0.8790713841019676,-0.9302054514671353,-0.9825893872377943,-0.9542108521594135,-0.8365432896590393,-0.7085695809792637,-0.6198236026155811,-0.5780262855255519,-0.5704289143356881,-0.5798821950218317,-0.5776714258330864,-0.5148564173950976,-0.3042062947533826,0.0971911329969618,0.4502554159781695,0.613379105801912,0.6614620511820901,0.6505944068371864,0.6028104557642716,0.5324017701452346,0.4520725060148903,0.3711757040348964,0.2907732038868583,0.20756830814212315,0.05026471033404306,-0.11857052601788529,-0.2294088819019963,-0.33764109822999994,-0.4263712143346159,-0.4627144197593189,-0.4514865081206307,-0.41204197037962853,-0.3608996596890801,-0.29979379912540793,-0.22875108230830235,-0.14546082966952928,-0.0540874186131385,0.032775621643693284,0.1054095456529719,0.1598790077970177,0.18101546997404347,0.15982493571306938,0.0846707056998556,-0.15569616741092177,-0.3535892307253876,-0.2562015091053615,-0.20074545012816342,-0.1614199840773069,-0.1283902643866276,-0.09920910429090167,-0.07224665939660807,-0.04595455449898802,-0.01755672221797205,0.01524756008749539,0.050419937558426345,0.0811733890418075,0.1053653027744347,0.1285480504051754,0.16226596522415063,0.22589664198925927,0.34622743097119124,0.5269296147975795,0.44725171712589507,0.28033920174994276,0.19473554430452775,0.1498676466080838,0.11259720292905173,0.07144570547058564,0.027231546047463397,0.013572207271978269,0.0707745119806788,0.2010351050227534,0.3601850436193892,0.5028124312212595,0.6034080101100109,0.6556951011809633,0.6608215995501776,0.6263971051147478,0.5687369002990498,0.5133173576698579,0.4636590076266623,0.3915795446191417,0.26758370515579283,0.08830181564311887,-0.11791011258816433,-0.29960521269211376,-0.4305783722519025,-0.5151442765905446,-0.571440388898688,-0.6152881061863521,-0.6547809216907168,-0.6936270710504118,-0.7427924753008956,-0.8135125152879098,-0.892941748784421,-0.9352787323216998,-0.9167350941764822,-0.866246867130072,-0.8170129668112168,-0.7791663074910725,-0.7435979433206007,-0.6849461229576063,-0.5613153377201389,-0.32884066222042246,-0.026187390385926386,0.2266159599141841,0.3631384847258927,0.4146527797450996,0.41876114287467464,0.40700714500387924,0.4065925627941819,0.4316483451300833,0.4832103286916691,0.5545801139696811,0.629624042185599,0.687819678154573,0.7229828328055042,0.747281158438409,0.7799095545214441,0.8394444311647448,0.9113536281245979,0.9366371074519154,0.8859613631218854,0.8011163371297437,0.7298022033608031,0.6875620924162295,0.6703446845970261,0.6724671926828278,0.6894650454463174,0.7090915834335333,0.7245408805066491,0.741113688238005,0.7643467741997423,0.7880385560679851,0.8006084900822186,0.7962633070664662,0.7697521889443238,0.7205769750238015,0.6653084680619297,0.6272443445073578,0.6073501759301414,0.5982132016929537,0.5959970061268679,0.6028065546849497,0.6323997487820876,0.6824756308189279,0.6898745847448156,0.6193238130650937,0.5503568529200057,0.5333516434177122,0.5721427075613704,0.6566326767168066,0.7439770483858762,0.748361175505932,0.6730548890323521,0.5924732107281091,0.5265268573101796,0.45433254460243105,0.33135365927354204,0.06261262968698354,-0.5328014264358036,-0.9266365744060665,-0.9153564899221112,-0.8612361157940224,-0.8147389251174602,-0.7960303349541091,-0.8242675315654838,-0.7480495932362782,-0.5529719822707504,-0.49024190408914253,-0.5193859740006918,-0.6039189943013739,-0.7402238264270994,-0.899125645543739,-0.9615535076032645,-0.8777215339382565,-0.7414454938731041,-0.6059715550093898,-0.474814654810423,-0.34231093383397054,-0.22470760883527222,-0.1854515310250628,-0.3175162738526311,-0.5550390802248171,-0.6938308155504993,-0.7357821472122433,-0.7431048077163663,-0.7549796108689015,-0.801243741389497,-0.880475728415693,-0.9350743630344015,-0.909342469016567,-0.7777227956887008,-0.35107319021676986,0.5232171196167554,0.7478867027166278,0.7821835710125163,0.7812075482257393,0.7644262849874655,0.7379450980855143,0.7071424895743771,0.6519192862924144,0.5122578087724995,0.28387806688161266,0.16038304452448998,0.1634216291075038,0.22201785112415512,0.30047614701094305,0.3937223548911009,0.5080725704390495,0.6608126362402741,0.8246476115979863,0.9145258664445767,0.9198000160186883,0.8938673204813887,0.869322918963046,0.8565876862261502,0.8601367873048169,0.8805556905958839,0.90791234540075,0.8881627777283151,0.7539297571587451,0.5705594666377719,0.4166829878824337,0.3077208391072737,0.2496403074948293,0.24621875968115367,0.29842908032070997,0.30536975163147406,0.12026205450103389,-0.09741413830031218,-0.29208764051132874,-0.43483841541513535,-0.5085099363921389,-0.5248281656711605,-0.5228497669198505,-0.5329377242785938,-0.5616761189632811,-0.6010877935325072,-0.643877436118621,-0.6921361678611099,-0.7414234519883028,-0.7738604532605274,-0.7790350799149384,-0.7537704035643465,-0.7055594366636628,-0.6407448554548375,-0.5677093258979958,-0.4862982876106311,-0.3922931625999936,-0.2867295043677335,-0.18558225482875548,-0.11215518368429492,-0.08347492271077253,-0.0855181836824454,-0.0880568067909911,-0.05732856582130759,0.017487566087882583,0.12712556900724362,0.23584610412164847,0.3248780101893585,0.4005229547996551,0.4646793353320962,0.5284732979596997,0.5860115845633067,0.6229425719158938,0.6134385534804166,0.5356309190650573,0.4042207504063408,0.2930972617433262,0.28296371463666403,0.39389378992607715,0.5975471903820241,0.8110459442473453,0.8852096636636281,0.8196220424194359,0.7513901796710033,0.7179371658012849,0.7095695763296408,0.7146984735698602,0.7290444361821836,0.7553982194237806,0.769992398089887,0.6308398511636437,0.3062037349080837,0.09455081110038858,0.05882180487257495,0.14055527466961978,0.26362113307926605,0.32322769532646495,0.3127876746723051,0.27630104790348187,0.24263435254572663,0.20781836589515545,0.1700158847345244,0.14296129473401795,0.104089939747981,0.03554530410622671,-0.0801497765195301,-0.23989069186806547,-0.3974949136433136,-0.4356314503177021,-0.3698487155033636,-0.3137634906603792,-0.2748063263638076,-0.23041653741839652,-0.14378185343979025,0.03195581164109505,0.30065670057735094,0.5157881501272762,0.5613492492515184,0.46209175287725573,0.2522835187378625,0.02869347796328172,-0.10908845123784872,-0.1859703454248172,-0.26083021295250497,-0.3628487359737288,-0.4766285902620741,-0.5718996083075075,-0.6033319957269372,-0.49891635469605644,-0.24345869894935113,-0.011904919034957065,0.11004723177565189,0.14656631842661547,0.11128508905644151,0.005066495452452837,-0.13765541063538794,-0.27466425835116215,-0.38967159602601725,-0.4820543292861544,-0.5431913728968182,-0.552523369938474,-0.48091989765002735,-0.3243885004111176,-0.12373715664949422,0.07495931148847099,0.22737454943483307,0.3144997654995572,0.34817557688605305,0.35115363719924225,0.34477551768181214,0.3630897244188991,0.4612067536939792,0.6677070142296472,0.7535735417262694,0.5472111388325659,0.34008935272616936,0.2025433398430616,0.11735150746062395,0.06773540136243399,0.040619916743169004,0.027166078290354168,0.022033618485444256,0.019775287822280573,0.016339012223775106,0.0033206111378670314,-0.03264674847751797,-0.1118567844563803,-0.2723272691815739,-0.551258387642052,-0.7297172002721575,-0.7086850607050464,-0.6813241578771149,-0.6831824958901489,-0.6842306343515258,-0.6353253468351988,-0.47938606685078206,-0.19200602212165088,0.12507021630492193,0.34149000947718683,0.44405200445976195,0.4642910668120059,0.4121769715256228,0.29686079103491786,0.14786040778274392,0.01659183581875576,-0.06408426800309747,-0.10039783107795583,-0.1279014397082826,-0.17505501659006686,-0.24608800208287507,-0.3249275890519118,-0.3871246184025949,-0.4287205327528271,-0.4642833917470493,-0.5047927328866372,-0.5442790831924579,-0.5631775049750808,-0.5507656273130624,-0.5037035428574942,-0.41624435453734654,-0.28511024432485943,-0.11003541685178857,0.07497455506174469,0.21070518096235788,0.2834524292328449,0.32418264254613033,0.36638677293562955,0.45018635720179156,0.5783713826511083,0.6720769280704301,0.6997956547203841,0.688737064426295,0.6746358999225296,0.6697151464172675,0.6768963094394642,0.6835842724341168,0.6523260370410301,0.5375515630587503,0.3388812390000077,0.16274718794368473,0.1303118006420284,0.2726895195898363,0.4588780193317533,0.5844363106469588,0.6458041586105198,0.6671462381349961,0.6599765580016064,0.6188072781527297,0.5387236736939285,0.416026387984416,0.2553843515711961,0.0556520642984304,-0.15944372506764345,-0.3504946538978447,-0.4928089461088177,-0.5914008457196597,-0.6650387090036073,-0.7288532434461109,-0.785662648765883,-0.8013981747303117,-0.6332490461350715,-0.19666148787091461,0.15103713564722945,0.31545708285738533,0.37471424634770195,0.37919845768598515,0.3586885444023604,0.33303378214692514,0.3149942900917778,0.3091361462016593,0.3174026468962415,0.3396179712576319,0.37731608257808863,0.4352158789301567,0.5183449557739687,0.6382438415918025,0.7958022884009326,0.9305427094978133,0.9142542292741275,0.7228151539369778,0.47029519857819096,0.20676409687747355,-0.020247300703450617,-0.1474997440971532,-0.1616716049747324,-0.09643278023510031,0.005011369040499049,0.12754237267245397,0.28789870728934513,0.48228160526287456,0.6322058083248738,0.707919737827271,0.7239783700498306,0.6953808776739134,0.6151863837217283,0.4670203497805091,0.252692608566413,0.03515773555260739,-0.1488890300561112,-0.30877523216816744,-0.45435478564493503,-0.5644965299051378,-0.6356859233718839,-0.7030756147373243,-0.7845742797926627,-0.8670491949821029,-0.9357685925366604,-0.9730468413070188,-0.9720082520265518,-0.9490324400327165,-0.9250935250245022,-0.9106982762524893,-0.9067739087729685,-0.9110179230860586,-0.9194131343164987,-0.9262563416671349,-0.9269575597723313,-0.9149942756518326,-0.8819838062091381,-0.8168938829637538,-0.7031131097274839,-0.5417007981016627,-0.3812537400676809,-0.26493973980311025,-0.18463774676481845,-0.09227726620012165,0.05768081361150708,0.2999834350070389,0.549683197989777,0.6784130283855199,0.7108478037282383,0.693266961498186,0.6346500027207582,0.5493296268070924,0.5003042151220419,0.5197533199878679,0.6144342626423659,0.7286399554768014,0.8060321684883668,0.8434477440609419,0.859699405989066,0.851348964643524,0.8169666637147773,0.7668107072598925,0.7075864814886875,0.6362325116514311,0.5389588492002989,0.34960539810881675,-0.10907225958522743,-0.5234028276766401,-0.6093696662358072,-0.49939588141977476,-0.1351975649919133,0.313464809698692,0.5338213979347503,0.620790997989188,0.6571023094118162,0.6724687680689805,0.6822081759355212,0.6940544917501406,0.709781038724055,0.728285479567606,0.7483109949686985,0.772364257148487,0.7979623174172019,0.807545091341147,0.7478831408423677,0.4746102446282955,-0.12327680668902126,-0.5288340600282802,-0.6759871148117227,-0.7534769561531913,-0.8207401413298505,-0.8753570187268228,-0.9072078571805503,-0.9190147270501902,-0.919415896669204,-0.9149810225518712,-0.906402984361766,-0.8905759102970049,-0.8624389324657948,-0.8032695354347643,-0.662188175737695,-0.39259288545385135,-0.07069993095803156,0.15860819501657034,0.258413280029186,0.2605961629766619,0.21905386752698572,0.16865010133609,0.11590740059590708,0.05702138259607696,-0.002455583354723848,-0.04909609706109019,-0.07259993754883408,-0.06071112464539679,0.02051515962468517,0.20858536978321993,0.41574890188966496,0.5100488186679766,0.48661016929023826,0.38676526352851326,0.25463209412690924,0.1322113139132563,0.04082895482760274,-0.010912250442420966,-0.028509888330718058,-0.020586772761807676,0.004093284784819123,0.03771137796089221,0.0809164910446565,0.12587162987223077,0.1538047835247602,0.16251163118779116,0.1566931758352051,0.1443816518561087,0.13414109236606775,0.13456391475696727,0.15645348247534738,0.22042123664428978,0.3619718949212039,0.5713736149112137,0.655661662309183,0.5393517093706359,0.3192707024518319,0.05041432793023069,-0.17774399923852346,-0.3183450789513603,-0.38627614437752156,-0.40598151109167296,-0.4053231562356123,-0.4017191147859414,-0.3995756102931436,-0.39628851777041435,-0.3814845222600934,-0.35629024668759657,-0.3286983856251961,-0.307025577008445,-0.28453992240722104,-0.24871380947797012,-0.1852802811719074,-0.10164393155149765,-0.010725721214935919,0.06616456479016665,0.1098123412003662,0.11440680776174612,0.08490544382358838,0.026477481994928335,-0.05217443506299511,-0.15274214975236897,-0.25246521255681625,-0.3347351878011479,-0.39642559094138236,-0.44468097187957184,-0.4877033760023247,-0.5501043612790145,-0.6575497852488932,-0.7814138010636532,-0.8658341542416289,-0.9084067782406723,-0.9236516129744148,-0.916736856447912,-0.8874737027720303,-0.8501451864366315,-0.8093883363116731,-0.7144284771182596,-0.4320868380993299,0.0004666846811466415,0.2973978458351813,0.43577144350706637,0.49193763042448796,0.508146490407368,0.494506149877565,0.4449889642436709,0.35425482392680585,0.22321021177101907,0.05507515665810236,-0.1588419535784067,-0.4206144225679892,-0.6588914144590804,-0.7986291580076499,-0.8604234640913088,-0.8679927244109473,-0.8338607910375782,-0.7620817933925667,-0.5834180473117668,0.009940616152683834,0.7238661493954082,0.903341920613738,0.9440561710491796,0.9570187213326025,0.9590226675306213,0.9452801027727726,0.8874448443848533,0.7430696809633794,0.5586788281446108,0.4290736785984472,0.365325486874135,0.3450823462766425,0.3519035429969222,0.372484756235357,0.39777246542108813,0.4234365139424797,0.4377957384816118,0.4194096395423942,0.35924697510378295,0.27768466887698573,0.19643252802689373,0.11781453610861711,0.040397981326094456,-0.0321544365322472,-0.09359700157110416,-0.14486195477865363,-0.20262474385172613,-0.2928550216581271,-0.3874655892725449,-0.33198488401117604,-0.2960863821136099,-0.30507233008468143,-0.31592245699563376,-0.2846592934661958,-0.20099244803795768,-0.09742973310078647,-0.007966441958103006,0.05123175384319733,0.08245680805516735,0.10027052240338924,0.12199637158366976,0.15383723469819352,0.1831932812925756,0.1885973338558461,0.1604810058826261,0.10307490440721719,0.042890343007431816,0.005803310223550424,-0.009333300072320222,-0.020079041278182424,-0.05788389683629438,-0.15074723933380482,-0.30777423367447354,-0.4840817837213748,-0.5837451240312023,-0.6202940984591508,-0.6744341375571243,-0.7584594783465182,-0.7722551457527902,-0.6835903044555667,-0.5891202977504303,-0.5243110516708558,-0.4839027642023284,-0.4591271699429362,-0.4441569071305538,-0.43823583147041084,-0.46151332778031445,-0.5393176698717048,-0.6251717391862739,-0.6073330564516323,-0.5040080773768119,-0.3846158610560511,-0.28110321450434567,-0.20134866262973491,-0.14074998962727128,-0.0927413966902431,-0.053009536426123494,-0.031009737120288535,-0.03157724038139145,-0.05145491781174549,-0.08470714947432166,-0.13573241920061746,-0.2103497148480017,-0.3142873271057003,-0.42459217780007513,-0.5158824205281971,-0.5748218395860125,-0.5928749208905022,-0.5742311738689698,-0.5365740509341989,-0.48622107988338875,-0.40140428980223897,-0.2974395619221704,-0.2022645008950155,-0.1129062245519336,0.007565915982562989,0.1809177356294511,0.40449456210883045,0.6043810706158383,0.7139431055878575,0.7308595663970843,0.6748787622703722,0.573275163742178,0.4680022520780806,0.4020248465172164,0.4094891781613089,0.6021626992813901,0.38851278344642315,0.15240328077410273,0.08067455962450205,0.03786720918964715,-0.007840381412671403,-0.07547089851805042,-0.20034170849924302,-0.4357351430080666,-0.7125791695961586,-0.8498454162530473,-0.8990905556543407,-0.9206325675711469,-0.9277429928998255,-0.9276094044041028,-0.921410006907024,-0.9068217615210402,-0.8825346520982026,-0.8362698739457146,-0.7319454890176683,-0.4797116968355106,0.008114312247208884,0.4750684971423711,0.7056250679097559,0.801937419014862,0.8431006292348284,0.8545100923247575,0.8406594654035157,0.8031881906280702,0.7428611480946324,0.6556656661269756,0.527971337372651,0.33373786953730383,0.028002552711769945,-0.419027662004109,-0.7503825913467497,-0.720168596295428,-0.6110600012236675,-0.5087082814251833,-0.39957726140596783,-0.25356359757019276,-0.05190970910587622,0.18914584527118258,0.43437226453535716,0.6492921965264596,0.7974705143356708,0.872762701265281,0.8777187474308105,0.8057469676689163,0.6517948982073862,0.4699048865150514,0.32202934846117787,0.2402311845938452,0.21778146396603273,0.22415573314085646,0.23334142057462276,0.23730584620216724,0.23828809609235407,0.24874484400735794,0.293651158126265,0.3963523145979511,0.56741193988671,0.7069632526514067,0.7182281294457807,0.6994089957514904,0.6942511745356348,0.6982627407244398,0.6822079369278862,0.6022680503310364,0.4011760837006611,0.06843759240971117,-0.30940027608975723,-0.5909489426948227,-0.7518421137511441,-0.8391047468862829,-0.8711914043117303,-0.8721433471685511,-0.8671242205747894,-0.8662179963338476,-0.8682494313531797,-0.8702645174801606,-0.8725413589571261,-0.8749756194335724,-0.8826450392285803,-0.8965655697359453,-0.9076757037389128,-0.9101969752345188,-0.903933468058993,-0.8872254936526618,-0.8490419768406327,-0.7534705998210989,-0.5012988573726828,0.022935913043900618,0.48516948479556726,0.673994576834522,0.7466852806947546,0.7790767544938687,0.789874514241058,0.7783370060552232,0.7597486864839108,0.7548022252037386,0.7737333127260335,0.7999502172076378,0.819341076549998,0.820651315210803,0.7822219279726997,0.6436781551328256,0.34273219734083343,-0.038519569868604324,-0.28211635016701514,-0.28268535419503615,-0.12438887912008946,0.12963944384392784,0.38899870844292916,0.5294624212194922,0.5225801076276242,0.3488760037175344,0.056652782302123984,-0.20286711655082695,-0.361708782840094,-0.4364066194061202,-0.44024909149394714,-0.371134626648191,-0.24534699033168086,-0.11027105746610961,-0.022336708600324794,-0.007627528710197431,-0.054973446392149385,-0.11993294203169554,-0.15866997117861292,-0.1591190597506146,-0.12450384218436338,-0.07215843272279315,-0.025406180617972104,-0.0031756708952378502,-0.012136540670827114,-0.045688210275591036,-0.07922902461114491,-0.06957412127896868,0.030827669587684407,0.2786997856895799,0.3775908075000276,0.1757052229608816,-0.0008512065154620796,-0.1363401874001555,-0.23643020335875292,-0.2994753825313622,-0.32088544335151464,-0.2958348232282697,-0.22433494299235598,-0.11102833673752249,0.02477466579361148,0.1530033167634941,0.24839003194627404,0.3022998378180698,0.3194428948714549,0.31011025600908854,0.2888969649246972,0.27896714473429274,0.3208843543356904,0.4714760867800526,0.6850619328862386,0.8270025024482477,0.8868290682381742,0.9088913483124998,0.919558187867092,0.9181046066122902,0.8983029761520113,0.8769020859530953,0.8684094764556908,0.867280427212295,0.8556202740014149,0.8080277591744516,0.7057960389534816,0.5886877538526568,0.4894301364663021,0.4073327213349182,0.3345266092594792,0.2728994293286702,0.21985477560613406,0.18220569791542887,0.16699286179469414,0.17444216102105,0.1922660750565559,0.206333348716072,0.20573272756185748,0.19068134334083423,0.16933454440494974,0.15064697700663296,0.1307973382932965,0.10390078104525424,0.06477242931621538,0.01077719608194256,-0.06374931169208858,-0.14409368520829385,-0.22102765821514542,-0.2912539494689068,-0.343284052604072,-0.37416311683347064,-0.39348764943231995,-0.40906742540305124,-0.42179885121071575,-0.43284888240936364,-0.4440040762252532,-0.46485561278567106,-0.4978732644219846,-0.53848009403015,-0.5778381923825174,-0.6064961257456265,-0.6223276001474187,-0.6190001557542709,-0.593580802813301,-0.5453373537963013,-0.4761528592314801,-0.3898654469058466,-0.3233309695127509,-0.32153268559613,-0.3886915189994992,-0.47115230755368975,-0.5346109227181502,-0.5825699684505654,-0.6572989218623219,-0.7229394639316116,-0.7501685164429683,-0.7519797778355716,-0.7326344795917324,-0.6951671692264488,-0.6192034100647591,-0.46849349189607054,-0.28891548011137286,-0.15450924672745464,-0.07614499591567112,-0.03715168685497972,-0.03518310451862619,-0.0821177131485479,-0.16812868091318145,-0.25998490964147936,-0.29862915326099265,-0.22315241541576344,-0.05319518874860135,0.1520398414367452,0.3364604776634192,0.47281725650861656,0.5607808032628387,0.6037621505241892,0.6143515601305702,0.6104432635896533,0.6081730462753103,0.6274718643910567,0.6776099912176048,0.7384987014501233
