0.03254077832962107,0.016132011425310167,0.006998762219050839,0.008705759060950754,0.020111070149837172,0.03334970725557049,0.009648155308954293,-0.041069259427672276,-0.10151695172608363,-0.1792199888755483,-0.2798886759243286,-0.392336685849686,-0.49797974760241603,-0.5812368171669688,-0.6363615455498418,-0.6549836277174633,-0.6411027125595746,-0.601884119942739,-0.5479408059134143,-0.48936999498166533,-0.43013539092137193,-0.3709587591297638,-0.3131818553041347,-0.26229057689629137,-0.22624267272786144,-0.21186896010177253,-0.22316975383441637,-0.25343562720425594,-0.2884379774069426,-0.3184520009836017,-0.3372153137519578,-0.33619567461175787,-0.31188014792115365,-0.2670360218449859,-0.21318412616914892,-0.1548320863811841,-0.09164112777652027,-0.02369912189004427,0.04148472395987755,0.092609156697121,0.12848490666511536,0.15858977871116325,0.18916881275151953,0.20958349990371478,0.20627006356369024,0.20041161439028074,0.21267115616506194,0.2404507629762981,0.2939400971882486,0.3957195805718051,0.5163958896080437,0.5905129186708625,0.623178168828027,0.6400799530488938,0.6526513980587545,0.6613387026575107,0.6672356483939369,0.6692717149093369,0.6727382317602447,0.6877296318670145,0.719227718450235,0.7629860113666431,0.811292142942262,0.8535171064337356,0.8779805807375104,0.8560292153794258,0.7568812101219013,0.599517607836047,0.44308749700828004,0.3173617065198929,0.22906660805089843,0.1782529792416676,0.16125092845134906,0.16973728403000934,0.19619606800286485,0.2326990928214575,0.276159435042144,0.3247274267254849,0.3580235970113836,0.2953925772319761,0.02298210452874201,-0.21204848288292963,-0.2535076468828253,-0.2082798320775198,-0.16634583982489956,-0.19989278975484617,-0.34663441483635693,-0.5702239843092415,-0.7132147012875687,-0.7261517995301789,-0.6932709607280853,-0.6519669084305793,-0.6116832009570835,-0.5799058320114995,-0.5620478821123436,-0.5685623099268169,-0.6224952347525321,-0.7231965157485042,-0.7965934988600999,-0.8017056427817577,-0.7819754426770684,-0.7691991904982527,-0.7661135557958786,-0.768852095948513,-0.7749016425745634,-0.7819942346379535,-0.7871205562948355,-0.790509600965927,-0.7949972315934076,-0.8002328871555561,-0.8044302780204851,-0.8020014906561077,-0.7983311488364433,-0.797649015767339,-0.7930226687377733,-0.7453575025258375,-0.6198467168826373,-0.47105782503375543,-0.34822106495827665,-0.22458073379018453,-0.048105531829168574,0.14592872197367002,0.25911353192575654,0.31792534218403096,0.37200466014327627,0.43667773010767286,0.5162281578230028,0.5817294102564252,0.5831287299822009,0.5188630953710639,0.4410948282476777,0.37711501365046585,0.33020207274122126,0.2961757250890535,0.27911002370168647,0.28517088815056074,0.3118544557543797,0.3515982040481524,0.39928798552038386,0.45369077911013717,0.5128362491668857,0.5778952374255435,0.6418904293296164,0.7015468852520012,0.7494156080031702,0.7596725873771296,0.7149480494053259,0.6371322475260417,0.5844268524322433,0.5836173738978443,0.5841240738195643,0.5142457823217994,0.43153177658482483,0.38911142997233544,0.3747740707352846,0.37322062371031395,0.36516884531377797,0.3149236019796659,0.229011239911933,0.164784887814728,0.13331050040664227,0.1198053147645514,0.11567022465900065,0.1070267993551947,0.08769151739562281,0.05751402076624179,0.018826804758686463,-0.02508535944599531,-0.07436928258259827,-0.12987552231742855,-0.18884277515529924,-0.24235559456050115,-0.2972954080278323,-0.354337439720553,-0.4091368397783005,-0.46518208575076325,-0.5282698935901552,-0.5957303473079584,-0.649071342126263,-0.6803859946498483,-0.6850187201181336,-0.6505882052835766,-0.5729954532844,-0.48337219991753416,-0.42704066292479514,-0.41869833791899963,-0.44103920110101075,-0.47357337236658403,-0.49857850315573704,-0.5089731884445508,-0.49947685981640116,-0.46567614284592773,-0.4155813426246216,-0.36406592741051025,-0.3215577981860245,-0.2869634459202475,-0.25586281517351567,-0.22029572587362362,-0.17672131310270348,-0.13173418297051892,-0.09085247448535283,-0.04706525215967379,0.013914502815018208,0.13240473993437557,0.35171463476688514,0.3132651625979982,0.26121600411361984,0.2895207626058648,0.4093231875559109,0.6200485202345846,0.7881411768127615,0.8335024462757668,0.8307207261525872,0.8233139790134788,0.8209096676635318,0.8119436610656764,0.7764588748598615,0.7211133822688012,0.6704534440633138,0.5952641748714924,0.43320992241751566,0.272661714192529,0.1801673430910878,0.1357874317810098,0.11360528075495643,0.10120036462909301,0.0956666800159908,0.09770249380611219,0.11313731017091179,0.15288044934990805,0.23558377787398183,0.38006905280907566,0.5819226074664264,0.7131500362169284,0.6380937094031434,0.4921983635805608,0.3643250464162992,0.2545915545285639,0.15553651820301873,0.06083428613235006,-0.025442167310101044,-0.09340223618338153,-0.1271932353400537,-0.12415981954743951,-0.09868637183123447,-0.06968302570680526,-0.051177085592564155,-0.04994000976359603,-0.06169829283190919,-0.07489833932089957,-0.08743256273257613,-0.10454022053386966,-0.12793924475416546,-0.15875889635286095,-0.1931709240413045,-0.2329899301601768,-0.2827329913172318,-0.3341697151937365,-0.3736386195079519,-0.39877558868442725,-0.4239553809716777,-0.4586279630292188,-0.5034388136012058,-0.5585662130354961,-0.6194537849973675,-0.6725118277009219,-0.7089275521646566,-0.725149357087826,-0.7217087713454065,-0.7017228053198613,-0.6781660985626798,-0.6653901518386065,-0.6667986013663564,-0.6760989927353839,-0.6814455905119403,-0.6847747571212498,-0.6798006130475338,-0.6643528545913708,-0.6278460083821727,-0.5677016839181191,-0.48064316945468,-0.374915113855177,-0.27974345134934775,-0.2259805784047441,-0.18779569840353016,-0.14444481538077905,-0.08871996750670359,-0.028143141578302444,0.03262054072432185,0.09110528990742041,0.15105303146188126,0.21907243491554634,0.305571326105093,0.42184590485815116,0.5770329953135662,0.7214515191002103,0.7159839111090672,0.5672916963745056,0.40129529308685635,0.2876636673327277,0.22405719895001447,0.1895972271318009,0.17084373938036565,0.16056039175818393,0.15896467165281591,0.16797509194067672,0.19097808002176014,0.22793621996108768,0.2705548709978912,0.3075159597654121,0.3374317132169383,0.35954629450146053,0.3679174804977558,0.36146765606655457,0.3386089305358138,0.3022050313656316,0.2540059418747438,0.1989041415891423,0.14812864154611327,0.10552731378938598,0.06762682745170186,0.02603006057244203,-0.028562884195402684,-0.11223000619633226,-0.24852345173539578,-0.314651132899352,-0.2481730150002104,-0.19857546492456774,-0.17616250929975627,-0.16066602927464432,-0.14192914532272022,-0.1196406727368851,-0.10632453976916441,-0.10829879378702786,-0.1217700955563705,-0.1394957788517125,-0.1586246485612726,-0.18367444794669976,-0.21728695976503554,-0.25302461083753414,-0.2804318556843608,-0.2999597916857634,-0.31521175876392254,-0.336110135179711,-0.380313676994369,-0.4741400158073061,-0.6242698762565997,-0.7661378769922427,-0.7486025706732989,-0.6332123971486946,-0.5438711201936675,-0.5034764414726466,-0.5017261033443293,-0.5315988923180087,-0.5427220532049545,-0.40650944633203856,-0.17112953620877985,0.015224813305647534,0.1476893581130197,0.23788156685092954,0.2895695144992134,0.2988484234978441,0.26853270153450204,0.22003315050523536,0.19304316642960903,0.22387733594103923,0.294798578892074,0.36467689802958225,0.43142412424815385,0.5309241867007122,0.6401297672907278,0.6630990895236719,0.6070496768909157,0.5420970078211852,0.47552523087138154,0.40086098290514693,0.3121025887891636,0.22056856243327877,0.14404311346976306,0.10481813333928862,0.1089313283130011,0.1468907815817172,0.20041724669762648,0.26421103071932645,0.3374782513554122,0.42999940713660756,0.5672212937169658,0.7870070684650381,0.9480337657668106,0.6322356325142172,0.3618618738648837,0.22829655399839058,0.1548039820167083,0.10978220517811718,0.07932762083948786,0.058063888507238745,0.041660868609135586,0.02737690444331911,0.012036825523455702,-0.013099785965386862,-0.06738737380918727,-0.12948757825498453,-0.16207892411188982,-0.183137727877225,-0.19874004809273152,-0.20066563939104548,-0.21731116018028798,-0.27341725856902865,-0.3593812475109166,-0.48645223890692973,-0.6275347177841946,-0.6055469282400773,-0.47856954863074175,-0.39193081013579095,-0.34505172578222204,-0.33295828371312425,-0.35383630669379723,-0.3837419426667466,-0.3968345500803783,-0.39244009595032897,-0.38020248914760607,-0.36182151722466005,-0.3359754907350541,-0.31138993303441703,-0.2953277102174129,-0.2986373936566001,-0.33047019477335615,-0.3996828491843966,-0.5044383529538217,-0.6224257417797462,-0.6986973681572672,-0.7255958684460173,-0.7236805757275386,-0.7070070631195967,-0.6673094798425682,-0.5940172108294637,-0.4902928981260494,-0.36554395561704656,-0.2536685631951344,-0.17415984151489308,-0.1264813820203349,-0.10239607250997564,-0.09570868464704227,-0.10108284215619893,-0.11853087673779034,-0.1462089047824192,-0.17414778129494843,-0.17604401753618906,-0.11183949805734814,0.03220311284200327,0.2013112595523356,0.3405364683170082,0.422109257557055,0.4435397819806846,0.42437202586484746,0.3963716917392353,0.36642457059789574,0.3240949871056254,0.27060403923438126,0.2198459502201853,0.1758379200946931,0.14058561400692912,0.13047783483364858,0.15321619810222678,0.2111163917352591,0.3140109732672541,0.4770896445554752,0.6777245886744271,0.6958158622693551,0.5111718151517272,0.35910907608425585,0.27197065451816893,0.22643892473501698,0.20592696901774335,0.205067149924792,0.23358711628030634,0.31104142458066936,0.34021345930525976,0.24344447868311483,0.181729181872475,0.1597277461054714,0.16099761181241504,0.17801691352087606,0.17122799489912485,0.10336534371106179,-0.009521047766876019,-0.11598433162097069,-0.20238623888025933,-0.27552540557031996,-0.32101380008450137,-0.3187863921540297,-0.2797856670315124,-0.23735029675603522,-0.20473901242122258,-0.18056182658147757,-0.17148781940442953,-0.18845904963494398,-0.22631632540066846,-0.2741116706406732,-0.32782356487396824,-0.39035535095088253,-0.46277943181227604,-0.5359739474995859,-0.5860006326730094,-0.593685890347454,-0.5739112491656371,-0.5544830227700497,-0.5532269822619177,-0.5716804741575552,-0.5956401284257247,-0.6083734702551569,-0.5981738493526553,-0.5672149103337661,-0.5225271476574521,-0.46397133754721825,-0.40295659487927915,-0.3548904189476014,-0.33500563765360913,-0.3251250156702982,-0.30749761173923224,-0.27070349564179225,-0.19757197727357587,-0.03445557474921086,0.22934809310996715,0.4831785717572472,0.5994208261217735,0.6075302268842797,0.5958905194910569,0.5855948835597043,0.5786206049683191,0.5682494370259503,0.5458599777586259,0.5008609595715953,0.43440860362800704,0.3614272367306696,0.2992996220046827,0.2545866043987021,0.2268022595746686,0.21380423800982767,0.21873308914477696,0.2546368506262845,0.36998506215016524,0.5844940407124402,0.3334385887278578,0.1874066474905312,0.1292163454795205,0.09971880843585143,0.08341807848845874,0.07611587084107793,0.07559296333906936,0.08068775090552785,0.09124205316727113,0.10417773365238886,0.11695504820195964,0.12506248079934543,0.12399339840521213,0.10539176484342316,0.07110857626004459,0.02644578589316501,-0.02292230209038234,-0.0788054554109402,-0.16768296822511214,-0.2951995296462967,-0.17113979913520394,-0.0966991661755818,-0.08207477469883313,-0.11353574063619312,-0.18295604657920037,-0.2822117777981831,-0.4080553537029744,-0.564312073418231,-0.6806201861553627,-0.5649564462475007,-0.38566375893365856,-0.2987295170621358,-0.29089850688544205,-0.3702983402685071,-0.5699002448080509,-0.6977816233048391,-0.5938288441588748,-0.4954008423489597,-0.43540152897932904,-0.40015108801273347,-0.3792859455327814,-0.362525376941014,-0.33785015360231346,-0.30110821839663093,-0.2604454719328594,-0.23050133393571404,-0.2233179568560622,-0.24076299022987904,-0.2673779339748883,-0.28385105827167034,-0.2890913245568497,-0.2826580128185064,-0.2664936728953754,-0.23884347853834656,-0.1891749637851407,-0.11645813573340769,-0.026910960215318823,0.06425509079205723,0.1393536900734511,0.18961492139239375,0.22038591918063868,0.24414570458084384,0.2687819904630992,0.28580137164789315,0.29336044540232953,0.29803765621656353,0.306601517576948,0.32013232802997593,0.3389325780697529,0.37276766636710185,0.4403162021858807,0.40256500153613034,0.19664241277683325,0.09661773502021437,0.05353858791319628,0.03470067717961172,0.03282370881575769,0.050070067418866916,0.09132188634348178,0.16602487263289084,0.27627330591270627,0.42246762904805235,0.5919335895594031,0.7323904147201435,0.7934342577146921,0.7948612324390145,0.7691906535421964,0.7306863028058492,0.6804216632489896,0.6317979259811903,0.5930702085447576,0.5555844890529645,0.49058861887030375,0.3904811298265182,0.27021612344407886,0.16234948714392328,0.056187305251506614,-0.04284771644197987,-0.10876419000861891,-0.12064578201909142,-0.09404522993337464,-0.08150045279592166,-0.12618377303450545,-0.24181968570549572,-0.3913998833513186,-0.4875414156197638,-0.4940254130792685,-0.4288798513897055,-0.34674596001791325,-0.27777017458148273,-0.23298575998780666,-0.22098677860828145,-0.2508685402217163,-0.33416760365293147,-0.47430725978859695,-0.6342689649142027,-0.7737447642244432,-0.8750996531432105,-0.9234940943694848,-0.9185423160161204,-0.8841654282279828,-0.8402399603645926,-0.7792460624885095,-0.6917800661152763,-0.5806419459284915,-0.4648319406395874,-0.3644348303944017,-0.28678454272341153,-0.23010305012298882,-0.18641515672813957,-0.15230539964782389,-0.13347558439384619,-0.12743357372279823,-0.1291782788233844,-0.1309958236568792,-0.12116081212760839,-0.06658469474999153,0.05922037818625832,0.18387871869800548,0.23129511190182953,0.24557282915100465,0.2657084587556393,0.2956879007278963,0.34220828295542105,0.41480968061446083,0.4781059702686727,0.5043706556023543,0.5228272428076709,0.5560886290217253,0.6067328578259422,0.6487547601617759,0.6407575422067581,0.579899573106813,0.49736498951628483,0.4043833065496457,0.3045322751151766,0.22621718466416738,0.194547707336727,0.20435092012476938,0.23923993266427704,0.2917023066991982,0.3625396267226193,0.4658752260053102,0.6178852334903842,0.5958764886206691,0.32540085555977455,0.18541269802170796,0.12678482247729117,0.10200583854739995,0.09051063260468226,0.08381012050436987,0.07661420408655402,0.06187991480212563,-0.015399871666079597,-0.07366415935753566,-0.059776215534654356,-0.0427491497500849,-0.02253293832047873,0.0012829890856974066,0.029761826754564638,0.060756492193556375,0.09354769559067609,0.12679689641333453,0.15747666444292702,0.1866178858260881,0.23787085453942663,0.170603933586352,-0.020151016934247434,-0.0535420193706944,-0.06661240867638635,-0.0757804514133231,-0.0855212443428689,-0.10000988257624235,-0.12629018914765874,-0.17447914304690232,-0.25614908202749215,-0.38983651992558105,-0.584371211770073,-0.734494825806462,-0.6849937125117974,-0.5616926963558789,-0.4641251584236544,-0.40099805429095287,-0.3658748722235574,-0.35861973266551983,-0.3773620704952982,-0.4146010389465148,-0.45422108315707943,-0.4829995264295552,-0.4925010470706875,-0.47252781898881296,-0.4151406301941418,-0.3258445656698646,-0.2249558084905996,-0.13346893012583666,-0.05813468413057387,0.002340504229923365,0.05435302250085892,0.10182464073112896,0.143154421131292,0.17850662260555394,0.2111446678336513,0.23926281581593303,0.2698373240680428,0.31191455724990236,0.372458849437201,0.4524490148706525,0.5391336706659804,0.6229918510859223,0.6966236020635915,0.7553759485790363,0.8023787533823122,0.8394318963453781,0.8546033385328742,0.8187421905225081,0.7086658547242045,0.5707084389782107,0.46951575947899643,0.4190274678662294,0.4048354166533457,0.4136831065914837,0.43739948990445754,0.4777781378801946,0.5381175536376271,0.6307825036364747,0.6717641615956299,0.4903981003381747,0.3356598215046652,0.2651024422357755,0.22978055613016177,0.20288823239761214,0.1712455565199886,0.13445384687159515,0.09743578188064712,0.06114568135306876,0.0252838887771359,-0.01952733502394623,-0.07772400533583956,-0.12969973810769606,-0.14517595199283162,-0.17511782684307528,-0.29810684109873564,-0.5191368573220768,-0.6266718562606447,-0.6298200021323688,-0.6191999653215806,-0.5786140953206157,-0.503188830761701,-0.4370032018643213,-0.42311512559460035,-0.45937133488873966,-0.5286185643551846,-0.6280760966369646,-0.6626069710218863,-0.533487878435879,-0.412605327369268,-0.33936101152686843,-0.3012498146978006,-0.29606004179363876,-0.3259879875848184,-0.4025989669418151,-0.5421699361067548,-0.7119861881526891,-0.7442315152951995,-0.6682321224287067,-0.615429310816169,-0.6080438249574597,-0.6180027660567871,-0.611746867378715,-0.583962860483554,-0.5587600227822305,-0.5730262349435378,-0.5841795651550841,-0.5316477086002452,-0.43312545503486266,-0.33692654149550655,-0.25676641046832893,-0.201126887534742,-0.16827080992453497,-0.1563760377847127,-0.15121672141841824,-0.14829201322715813,-0.13755388822616416,-0.10769293637113057,-0.041323246442807944,0.10332121196810629,0.33697120465838337,0.5254427936084494,0.5907486454232584,0.6073594934876162,0.620189259593662,0.6443473990190535,0.6868105687058561,0.7574333038986177,0.8577425961078994,0.9600020332447509,0.9563721132569976,0.8209155968539104,0.6974674743080965,0.646417392371046,0.658900926671014,0.6943718363111432,0.7209259959218688,0.7405810501878906,0.7460222115331218,0.7173118058374183,0.6306239958826928,0.48040116511933667,0.31080016376993747,0.1845336800145339,0.11176944818038555,0.0759544211858323,0.05678226854055987,0.04608271741082835,0.03808954698739539,0.036260494658814424,0.05081883842003397,0.08495604542911979,0.12912041895395962,0.17242347905228805,0.19386223590193735,0.17356093041959786,0.09975841037092185,-0.01136286960357185,-0.10993996088001658,-0.1448913198041584,-0.1218640168041426,-0.09440028646658402,-0.09536915741452405,-0.12893315213337098,-0.18335853336254196,-0.25290060770418865,-0.3517329449672099,-0.5107690207097755,-0.7324220015964663,-0.7722506402910873,-0.5010943174487517,-0.2955547087214112,-0.19104325727568527,-0.14300354102037793,-0.12310662207472974,-0.11989868149628903,-0.12956301292444913,-0.15337345864864424,-0.19789945749708543,-0.2745519890622393,-0.364275611212128,-0.35849290985034005,-0.2975950002603163,-0.24551653465565523,-0.19942291510103027,-0.15006147450895513,-0.09323739789369477,-0.0378460061159642,0.0039510842725347965,0.028845662446573186,0.04075845835991494,0.05191443524593425,0.06757415415471874,0.08424084069888313,0.0991107111977526,0.11232351508545607,0.13122876661985822,0.1732255252811501,0.2955063417128907,0.6476221286862271,0.4172439922783729,0.2544196264094131,0.1998283967775635,0.18334535314846703,0.1899817174310194,0.22117736981731892,0.2875353812693485,0.4103022741348156,0.606389914875019,0.7921923163849396,0.6812643029099609,0.3392700987278907,0.10885487873697493,0.03508928747339779,0.05456127972462364,0.12554366678883916,0.2276835023348095,0.3519820399749916,0.4902803209899105,0.6027323923934471,0.6027975109971236,0.49040291585671814,0.35875118257495703,0.2472939591687828,0.15380718987948078,0.07930202181368945,0.021784902026754926,-0.021659486482828234,-0.055501443984401086,-0.08434363400586835,-0.10322804984652396,-0.10259261582814119,-0.07791529706252859,-0.04888476926120542,-0.02813431826760535,-0.005683578191721097,0.018968281473021605,0.030003161906088663,0.02020488578274054,-0.013347649757265065,-0.06124540132542166,-0.11102511814509285,-0.17823106366591338,-0.30128219207627754,-0.4710491377017645,-0.5754023305738241,-0.5646917874049794,-0.5147442837266921,-0.46524550341657667,-0.421344122704893,-0.3848864044431128,-0.35696261315109645,-0.3395159659732384,-0.3368143604054957,-0.35189280990088206,-0.3894463874548386,-0.4516456350142692,-0.5334221685249194,-0.6172097544571581,-0.6779977870046768,-0.6995524393570293,-0.6811533170818667,-0.645813866452024,-0.6173718713710402,-0.596198113282753,-0.5753644728700795,-0.5347319267266272,-0.4569838319398469,-0.33507974500058385,-0.17810695468833943,-0.041826189750668735,0.04007505147048121,0.08255576666720425,0.10513996781141718,0.12252720245327592,0.13922248310271151,0.15220957512659247,0.16170443834999296,0.17138252596313225,0.18517671655243043,0.20615456316550632,0.23118582315844544,0.26176945447656386,0.30419413810633306,0.36438807965953246,0.44008943155862146,0.5192319521180598,0.5757887670060456,0.5872004421384708,0.5483929589368527,0.48349300767722764,0.43156538884282264,0.40938456774283605,0.4129116450003329,0.42187432645262485,0.4314077405453138,0.4545285373634653,0.5014349403247994,0.5720746249459389,0.6481048337949757,0.6926197623380883,0.6630219097548405,0.5485623967942368,0.39971586417649674,0.28497701199943204,0.21426933474087972,0.17243336694846315,0.14357085587860857,0.11784716225041607,0.09293108520561578,0.06797288041989191,0.04402634401007354,0.01963307110303023,-0.006195616113769981,-0.029351017601865467,-0.06120195161301931,-0.10196602937733448,-0.09608859010117361,-0.07506628804374012,-0.06282489859927233,-0.05493949975247467,-0.051645243163796,-0.06182859706496846,-0.11473203820330581,-0.21320843920940857,-0.2658963593118628,-0.31987330749045423,-0.39445447897385627,-0.4604274759594409,-0.5007954187003152,-0.5250018005985532,-0.5499308806512112,-0.5800141854953105,-0.5722626276963648,-0.47551399259915045,-0.35780444113530846,-0.2804788119284712,-0.24559170232178426,-0.24531540960501477,-0.28386378985764055,-0.3763963809371936,-0.5197213771757797,-0.6019435032323301,-0.5585861521159512,-0.499916628693763,-0.4726246259730555,-0.45904031913566146,-0.4337545633919035,-0.3861840624134877,-0.3126575708558028,-0.2066311684390236,-0.08482032945295065,0.011981046290473812,0.07527649782393887,0.11212015270576303,0.13115494896317828,0.15591447457283353,0.1982757103105205,0.2527610187927191,0.3100842091007782,0.35122179832716793,0.38438270242379774,0.4224988853228885,0.45700964922922943,0.4786706209609768,0.4784189475025115,0.4578389549527563,0.42562715550991964,0.38843576001735713,0.3531408349090859,0.32398336598171296,0.3045905831562769,0.2982387965061678,0.31812384159649376,0.4101639955406752,0.6011121219438006,0.2865863056554064,0.1495629213078125,0.11053500710406935,0.10273186887168184,0.11108828897461694,0.13372749991649252,0.17321116793473504,0.21990296332593168,0.23941728383148891,0.2098019927719791,0.16451446389440336,0.1288607667884339,0.10319929134106692,0.08361542939595165,0.06558639576873267,0.04757078586058758,0.03184183675223068,0.021972787762892895,0.01758743491002307,0.013052515497474836,0.007181736719176358,-0.005506627880923938,-0.02517008090596074,-0.05559357941208395,-0.0952282261975378,-0.1478191548783826,-0.2285317301444635,-0.3361818651432345,-0.39383927752515535,-0.3855467722228894,-0.3578191955013732,-0.3339282536897609,-0.3186008722889524,-0.30841625660161476,-0.29764539056377787,-0.28258925383267863,-0.2624031374555404,-0.24247313102517995,-0.22715804273878926,-0.21495099993281003,-0.20203424240737716,-0.187902737244366,-0.17043547132424192,-0.15088123765280387,-0.13315271647765473,-0.11864478553969213,-0.10685388538589076,-0.09936903178374873,-0.09874464773857716,-0.10661050661412938,-0.1250140352258311,-0.1681411913360748,-0.40763294120532056,-0.10772471849483908,-0.020412625863392805,0.0012134917627596817,0.009334164247799651,0.011565437416534617,0.011072525714709843,0.01179009799369832,0.019097189532518235,0.05120234334588086,0.17973066916766797,0.512641871825093,0.6930680587873005,0.6924077965007304,0.6817373451035541,0.7116021853361675,0.7905623291253889,0.8800556344595072,0.8880958609217293,0.7437996697633183,0.5299444213108444,0.3587771518133583,0.2683703720473138,0.2527987558004988,0.28531435341646166,0.3345636771905354,0.3883707103216425,0.45449807316884727,0.5510177441985072,0.6766219242494657,0.771612099246856,0.7801186472688514,0.76182328914457,0.7971072288409455,0.9098788248558903,0.9417770679869283,0.7100152472433557,0.482361827991729,0.3577496933314734,0.29817800050792675,0.26353638919673994,0.22334919175904908,0.17473639114529854,0.13191746211036834,0.10257599273570056,0.07838175082711542,0.05197098563857843,0.008831960084587004,-0.07350811782161885,-0.23045603550901353,-0.44400266519825365,-0.5877538961247559,-0.6553346987764216,-0.675841555399945,-0.6612047422991545,-0.6315039835137474,-0.6043891843730627,-0.5893637617672884,-0.5902208009025487,-0.6137760792975105,-0.6582642907275655,-0.717323364611635,-0.7862025626754956,-0.8452193388805052,-0.8391368332883163,-0.7395566490672587,-0.6147129261052147,-0.5252026860356058,-0.47888443739568193,-0.4697508130959681,-0.4902531060970337,-0.5330952618436477,-0.598075422669971,-0.676990163302465,-0.7497216016130017,-0.7777308772664372,-0.7181495884274526,-0.5625191405790563,-0.34484962682988546,-0.15087055268809568,-0.04012498188082441,-0.004670201164288608,-0.0022068289863344834,0.0026171533392836924,0.019484020310398725,0.0523071449565276,0.09533250688321575,0.14425908218926609,0.19702339816612185,0.2486588372226714,0.2949135464039462,0.3547786028171385,0.4341075626974859,0.5179177495682337,0.5906657516553944,0.6557668392537205,0.7044292417784526,0.707071586808065,0.657364583693715,0.5733367589739733,0.48258113059287167,0.4126435239945141,0.37723999626366905,0.36294236252030193,0.34800293267944776,0.33015950253627857,0.31761569596499206,0.32069108856122513,0.3497490498975655,0.41299759608622016,0.532832771970443,0.693323018848712,0.7483929854795861,0.5374883558922259,0.3414299511907005,0.23825859018259987,0.19059936506887845,0.1778996852269267,0.19527747379206228,0.24614475815073653,0.3380266439823985,0.4599707396869594,0.5578655501833113,0.5778791513776368,0.5423039427616744,0.5017853546688926,0.47173461709645204,0.44919836576012695,0.4153032557780259,0.349977002895461,0.21631547008048482,0.0025666469319770746,-0.13518160494557463,-0.1740995021602603,-0.18304934801850248,-0.1856335070215001,-0.19876512306594848,-0.23573463806905212,-0.3106972253385764,-0.4228278354136685,-0.5453581109297636,-0.6405185385826707,-0.7120994658499323,-0.7887833638575742,-0.8650251328884507,-0.8518825477438926,-0.6913507690725202,-0.5131869457262659,-0.3825838052087937,-0.2980656563628694,-0.2516100369094469,-0.2399043526577134,-0.2664356128306347,-0.3610679276746966,-0.6391076758866823,-0.9264462137071325,-0.5848463201032871,-0.4454365894366783,-0.437754543547622,-0.5615780607359794,-0.8845062213009497,-0.41599528984867695,-0.15677887908189425,-0.06744866073107701,-0.03178633140753116,-0.018218151167778023,-0.012259441934780154,-0.0030815737744730935,0.033034879902021315,0.13312470936036613,0.19272889685705413,0.23181829464677978,0.28890979129367883,0.37905495730732297,0.49890499301920677,0.6096134232194667,0.6554908170341758,0.6151189615401079,0.5177066551082364,0.4205439084961866,0.3558291382656571,0.32603391187254194,0.307314675284456,0.2727791025950761,0.22214512165652212,0.17170739407156577,0.13611185376344354,0.11575441878007205,0.10735846745225992,0.11234689754755767,0.13311097838615615,0.17716300404966256,0.25516431846471266,0.4055149569791302,0.6756236499763257,0.39279622223823524,0.19313064647274603,0.12117031041868054,0.0893881796618702,0.07491812373537071,0.07057940779497457,0.07163589791264786,0.06376873595616755,-0.04757910086656467,-0.14715124900150633,-0.201731865494,-0.25791015100030934,-0.3126117769573984,-0.34987752970975516,-0.3559313634200535,-0.3304235359613902,-0.2808517112531574,-0.22553698115029236,-0.18196173653042835,-0.15596505081421227,-0.14395661249979408,-0.13881598621950147,-0.13130971272129188,-0.12148132974243855,-0.12083150082970182,-0.14002642120624129,-0.17600010181147893,-0.2105624872631155,-0.23276440824742453,-0.24211916077540213,-0.23652835902234756,-0.21941976164930702,-0.1996440028078538,-0.18050576236270582,-0.16022668287748304,-0.14042162750131143,-0.1301633867980558,-0.13349668005270007,-0.14457421009538793,-0.15735938530550928,-0.167236074374881,-0.17278930827243813,-0.17760223641198616,-0.18640218156599567,-0.2009499529824121,-0.23039653780358077,-0.3894066981539055,-0.1573673540602061,-0.012082217346485308,0.009987498341622065,0.0141404277006424,0.01450942705802676,0.015147894904925217,0.018747006491403515,0.02734459175974342,0.04385266276510352,0.07141551221560923,0.10823040444738846,0.13050521637868406,0.13685465628352428,0.15699878318037633,0.20890216401638256,0.29561364497312337,0.40808721495170913,0.5398528998086471,0.657833900665654,0.7067865654618533,0.699432123823136,0.7071505281786173,0.7409938488027993,0.7350423114321954,0.6768398274828527,0.5909384499827851,0.5046390014090624,0.4337895948728398,0.3857483151380004,0.3638378652116284,0.36942849275624523,0.398714396153844,0.44017880479916943,0.45259791412628664,0.41010788062098197,0.35360386063343485,0.3065521923382965,0.2644372951840712,0.21981446831943052,0.17374380873874942,0.12521967273331122,0.0804923118066328,0.04905660774474888,0.039198912625178765,0.0347718824290558,0.009729730781562841,-0.025634343898976626,-0.05624331929536598,-0.07569358930689221,-0.07905768051211923,-0.07378376098633468,-0.07686605875083753,-0.10856447789191769,-0.18229473042886307,-0.27683557038889317,-0.3597537440410644,-0.4177392561169382,-0.4650431089501733,-0.5120080877560241,-0.5518932278341102,-0.5843467070001417,-0.6179140097670835,-0.6487401152029171,-0.670408178527882,-0.6865169691185755,-0.6996978397041542,-0.7132184617962337,-0.7255764314843005,-0.7287556099640479,-0.7059201844068729,-0.6489657229948587,-0.5803820232390988,-0.5333028121398444,-0.5061919869894163,-0.44413097596724577,-0.3146623464279304,-0.23653480571219368,-0.2528223512146167,-0.2936625649946941,-0.3086162323145006,-0.28307433621065425,-0.22573978068000303,-0.14772614562973574,-0.06114616578150284,0.02316874537475469,0.0907828481798398,0.13765277860406575,0.1774988542372803,0.23490405797723446,0.32763653902101425,0.44039504194660906,0.5433688077817492,0.640168903665138,0.730327917950951,0.6800820351845492,0.44978493169288664,0.2838990528644149,0.1932420988146009,0.1421021844614233,0.11290870324340632,0.10279937462844123,0.11753599740183117,0.18928563283830424,0.41493499282191193,0.6363410170846471,0.6256737473731592,0.6381636031581072,0.6616466428939529,0.67299717950814,0.6734688178985077,0.6649616665641032,0.6475484502279918,0.614220469956921,0.557392008428569,0.48288701113418925,0.4026698466511097,0.3262267606734162,0.2597584789352476,0.20818831944399555,0.16760664571675346,0.13416983455972953,0.10275476974878898,0.06014177502897862,-0.007897781597815786,-0.11787921376691578,-0.2809096710271371,-0.4733654274634336,-0.6318096736072529,-0.6770592716748797,-0.5740778647757184,-0.4266558918868607,-0.3198697058589162,-0.2723200427689591,-0.28486970920634075,-0.3644959558686287,-0.5208746232269026,-0.6638388497910819,-0.5649520346759433,-0.43291199735195357,-0.3634945297149475,-0.3299342583770199,-0.3156100839675079,-0.3095465197481999,-0.3092818319099903,-0.31251108814119394,-0.32124985304090986,-0.339643251178675,-0.37527425208096205,-0.43575687678554464,-0.5346490045725747,-0.6684512426419068,-0.7414834256608697,-0.64235904550546,-0.46570792884426165,-0.30061252034536495,-0.18216410105423683,-0.11682450243087815,-0.08394403721435231,-0.06329103232706618,-0.04547796021110995,-0.028272080043196483,-0.012082088340884513,5.5069647747692924e-05,0.006052737343244634,0.009613720439447691,0.017240769555502647,0.03777618764592141,0.081511598343811,0.1569405964120688,0.26326845564095425,0.38042772590023993,0.48163710936253334,0.5612076100111122,0.639657509582196,0.7478305684334718,0.8621542217715153,0.7859231410459221,0.5183264546622415,0.303920415535109,0.1800930514182982,0.12295215913323426,0.10837544113659825,0.11559855098406752,0.12635069297933302,0.13326714247549146,0.1360795850817801,0.13523798560286607,0.13033491859653593,0.12234322471247389,0.11491883459788665,0.1100709585069894,0.10769788525575691,0.10625060300298787,0.10183321056822142,0.09335713350920041,0.08222997612183953,0.07197111507873559,0.06620519440892389,0.06408008482136886,0.06439616124032006,0.06769893578493157,0.045082494534336416,-0.016992152699463844,-0.04021702382362598,-0.05285813752663232,-0.06484781450778462,-0.08121788150584386,-0.10402770966890179,-0.12687819691909039,-0.13806287620422805,-0.13513395580220336,-0.12716365998398588,-0.12715009646887562,-0.14846762327094334,-0.20961662904424663,-0.3478542436759556,-0.6247073202363251,-0.8023597885587112,-0.6568049595013795,-0.5694891952709036,-0.5489979146972984,-0.5607970653109471,-0.5833884108096131,-0.602722017259181,-0.6109303619682471,-0.6063278383527108,-0.5991873892139638,-0.6004382249111275,-0.6143549113068644,-0.6370722314512934,-0.6606439947446476,-0.6787467742371072,-0.6916686939486272,-0.6992352827732962,-0.7037945137427187,-0.6971551422183757,-0.6363699088776039,-0.4971419113057831,-0.35057159848324543,-0.23598814855878777,-0.1473862922221568,-0.0789421295972242,-0.028647468410928974,0.010250315999421956,0.041184119131630344,0.06053326782872075,0.07404845900123377,0.0939583097719106,0.14277874289903558,0.2650202069185959,0.5678523566233983,0.7445421918272069,0.5693426815372267,0.49717995815688865,0.4844714895823494,0.4972192278695211,0.5233030667928776,0.5677629428879524,0.6391347992495697,0.6580925159312928,0.4607477686926656,0.2717242183860724,0.1776921954576819,0.14017497620894814,0.1378330543131759,0.16503201102676066,0.22158924935563837,0.31660959005066514,0.4426535941903418,0.5307621026796784,0.5328652106059674,0.5089483483348993,0.5037336000794158,0.5200826626529699,0.5511474706791396,0.5937897237913319,0.6352670387712073,0.6478898167497251,0.6106982638103591,0.5089999703176685,0.3418360648515829,0.13787606805784855,-0.007298381888094111,-0.04439128414865556,-0.014634635184524118,0.01522620456791662,0.012415965583009501,-0.027678911903294738,-0.08231977947897422,-0.11205094144748186,-0.10915862831769355,-0.07644648239513469,-0.0469474713211373,-0.06496846064666675,-0.17688138644992812,-0.3606352700714776,-0.5159076616112256,-0.6389280014272457,-0.7349964323256619,-0.799546135554448,-0.8400201072108162,-0.869891522205787,-0.8929156879494151,-0.9079881652699165,-0.9119966388273145,-0.8980149158388904,-0.8545852594000874,-0.7695730488352124,-0.6598140266940569,-0.5700399220029897,-0.527813559405477,-0.5358200148576104,-0.5800772392114028,-0.6261685069595012,-0.586749978619126,-0.3661452184414653,-0.09101845707171949,0.07568607718181174,0.14483238721128203,0.15546509481980747,0.1144040288245544,0.026425781142289585,-0.044301829778304096,-0.08350420781324511,-0.11162141171198052,-0.12252567081098414,-0.06769423312442856,0.15745333552489363,0.5077458446946428,0.6917095832078658,0.6853988659134375,0.6264784926589708,0.569654007905083,0.5247075715140289,0.5001254873516829,0.5146266348887133,0.5638075347485723,0.5490702414778752,0.4048818891176046,0.309266705149902,0.299161046572336,0.34710015150246676,0.43391578360109073,0.5237412026697138,0.5996018298665976,0.6526643033453605,0.6846986990795687,0.6928660829258884,0.6871800502923553,0.6656299699818045,0.6276979920719893,0.5832458561877916,0.5574065252199463,0.5583360957322243,0.5736184800580233,0.5958189283886229,0.6196943562035929,0.633987659254365,0.5887648101457139,0.34839009567728546,0.018918692781413136,-0.16113530572899287,-0.2357659519779034,-0.2544648870133985,-0.2419924482013001,-0.2326647541041709,-0.2679300845940585,-0.3850564569864201,-0.5502754591286511,-0.691523127294229,-0.7848487311432023,-0.842333681014356,-0.8707113689991252,-0.8773880529337111,-0.8699716499975136,-0.8514058517706325,-0.8313147592545438,-0.8242355605965,-0.8287235867156266,-0.833321685451347,-0.8314853948504807,-0.8259744397123115,-0.8172186135615156,-0.803487341591102,-0.7828691078144433,-0.760409275337784,-0.7376544375753529,-0.7216988516442537,-0.7143556118280766,-0.7086027554141842,-0.6904056882232886,-0.6519944977858325,-0.6065590589205472,-0.5673521917580696,-0.5412521883479092,-0.5144406391841491,-0.4590061110807317,-0.35534150395517666,-0.20625556425303432,-0.03404148244438779,0.10582240839651053,0.18216504759179128,0.20256261978154452,0.20028490755802253,0.20523085983582612,0.24563900715833517,0.34495477052498474,0.49477659803010354,0.6386397155894681,0.7044975850438315,0.6868964923502413,0.6335535596844889,0.574270922574835,0.5265963081629125,0.5093747681569019,0.5375117115913053,0.6222694738551489,0.7495664435271494,0.7975438333646016,0.6492434780192861,0.4760389293810701,0.37470117310761447,0.3273797133746067,0.31312565485586563,0.31650419310164407,0.3270420118665435,0.3527470745248962,0.41298093655638995,0.5207667925953553,0.7152013323718366,0.8526259516357849,0.6072367865432914,0.4025214618584106,0.29489060819022006,0.2333046090450064,0.19573625742759318,0.17062999113441107,0.14123187019169683,0.0951257429949091,0.008263550623355119,-0.11280918716579588,-0.1938917566721436,-0.20431813212880823,-0.17826272648428987,-0.15151379568610768,-0.13475931760493445,-0.1407013907575695,-0.1670039488471924,-0.15090323536372122,-0.08064706051975273,-0.035787009266437464,-0.017165117771506307,-0.014811532667669264,-0.0250486947107883,-0.047013397926765,-0.08628030239955063,-0.1586433350963843,-0.2908416578508793,-0.4138653528148736,-0.462992893264768,-0.5021409178236811,-0.5504043847219879,-0.5969526916313588,-0.6188235914394647,-0.602779163086155,-0.5692785281806085,-0.5450235034570718,-0.5362230973374297,-0.5250643655559895,-0.4960890831350273,-0.46271817477746413,-0.4374712508216324,-0.41274939097138635,-0.37350109479595306,-0.319445812972866,-0.26362859224694046,-0.22748603608885642,-0.22142976184262023,-0.2429551535726534,-0.26893654627459695,-0.23959418940375576,-0.08456005676636727,0.06726909335221637,0.14595372134664766,0.18970885595081077,0.2251991914196392,0.26763412243039425,0.3358567202628505,0.4659630696632328,0.6471125697777558,0.6707524055433413,0.6022503787066129,0.5719759151876994,0.5783017456898027,0.6074652874913533,0.6459285883442776,0.6812070577743942,0.7040584182622359,0.7117232324888755,0.7035342814515781,0.6741608747690366,0.616115386258935,0.5459137849985879,0.49157428718098106,0.46492655382398584,0.4557902817811828,0.4429828566655199,0.41755061446430575,0.3754413235311947,0.3205601152447158,0.2601782920538156,0.1996458962277163,0.14120639530833204,0.1008552465626241,0.0869027555657207,0.09774393510317494,0.12213572724049392,0.1444842365668961,0.14806145081393235,0.12131497870535551,0.04852516634701715,-0.09539905006646016,-0.24619292254671474,-0.2919957002095618,-0.2861329815178759,-0.2762477177004662,-0.27552241883731177,-0.29007167753773505,-0.3295044962210218,-0.420260347518281,-0.6177089438770675,-0.607510193661351,-0.32602614533374114,-0.20614482745919513,-0.16083451764499138,-0.14815376826600013,-0.15184652918134564,-0.1609088596445631,-0.1677806898532845,-0.1713641272112447,-0.17554956191390525,-0.18524613412491175,-0.20700522975036825,-0.25065611091029827,-0.3417748364527623,-0.5819631343956342,-0.5826863982259117,-0.23001465677156002,-0.1149387305539779,-0.06710168691853621,-0.04999825613707937,-0.044827365391199345,-0.043564535656395155,-0.04380135871232338,-0.051708697654954464,-0.0717615504854076,-0.1169840989356955,-0.26299935038036165,-0.37631873341443045,-0.23299646749146294,-0.1910357668945179,-0.16612727194992538,-0.1125793540542698,-0.009092776823038315,0.11946413180904648,0.23223197522300965,0.3006589745172536,0.33388027983155055,0.3464032485498319,0.3512291173650142,0.3523574912862595,0.34666114364689093,0.33697899549037447,0.32887909295357365,0.3262343811518955,0.3253279858866717,0.32184812506470817,0.3159828318183653,0.31011351789309927,0.3057330678109225,0.30496679937653,0.3065173257615932,0.2958721381699976,0.2639684055046648,0.22481484318208697,0.20427762265543112,0.21122831226446373,0.24545992433368974,0.3059906924704589,0.38982388077830354,0.4760305088529828,0.5242148782924889,0.5260797102017429,0.5073428082369699,0.4810858269610147,0.4207163743581563,0.3135584175547841,0.2129337326348579,0.14983830956660238,0.1118140665852498,0.08213580503090319,0.04314972071214354,-0.0001888695375641452,-0.017881653626169062,-0.0065603326648122065,0.020593314666889174,0.053001350247028456,0.08327243129171973,0.10252220176954954,0.10165244815140902,0.07881558382767802,0.03812883544615317,-0.021950038939026074,-0.10909456911877298,-0.22611630635269964,-0.3706910227561361,-0.5198418384555137,-0.6290326651815564,-0.6776409014407259,-0.6728357600725658,-0.6342110155952433,-0.5859225794011624,-0.5378794568366613,-0.4971232509086742,-0.47087041909832017,-0.4582877114445476,-0.45309371380193914,-0.44961388186986745,-0.4439931317724727,-0.43511456098933937,-0.4256965759675988,-0.42020225316529786,-0.42330022340756873,-0.4330747083596165,-0.4379188219844433,-0.42095274219209117,-0.3734657413432682,-0.2984054883593689,-0.2099207614395388,-0.12119269669261987,-0.05113402803653555,-0.004879359500904419,0.023034008016920172,0.03242041748958791,0.027331895107175715,0.02288861438026899,0.03689669294137427,0.05337705189767739,0.07014647025788041,0.09441987603480402,0.14013819904473726,0.225051808081758,0.343988290031021,0.46820984324671966,0.5594719946054453,0.6174486385541806,0.6544910921241044,0.6774861335153379,0.6861212663326154,0.6786069035079354,0.6575153640143585,0.6325235686264886,0.6179822261962875,0.621341448026658,0.6368198667381549,0.6351561175548871,0.5872922996067608,0.4758976092873195,0.35678856191209557,0.2722576572448358,0.2290257062498184,0.22107542392204127,0.26125297050347995,0.37214583112386684,0.5334222863035493,0.6107019848236912,0.5679489160034156,0.4632815812084476,0.3356427186504603,0.19467452454212172,0.06687750017985834,-0.02920469546889393,-0.09508504901355598,-0.1396564674272419,-0.17220977421774755,-0.20059397341873697,-0.22512284886240685,-0.24634180141701978,-0.2615869780488863,-0.2646778638584186,-0.253109892022274,-0.2341698366386641,-0.21740861381865703,-0.21521987026300202,-0.23333850610120907,-0.2680273494182418,-0.3114664790672273,-0.33660727611605534,-0.3204952251258126,-0.2827273728568076,-0.25116029509191035,-0.23392416500697835,-0.2346759869926749,-0.2580353241522757,-0.31062267677695854,-0.3977586434639121,-0.49502540870584444,-0.5171633703116962,-0.5001280044140851,-0.5006547538161694,-0.5025066226692007,-0.47254656943926676,-0.39458940471559,-0.2815282284481602,-0.1656113322796504,-0.06809405150949153,0.002099817829010837,0.043829433424225954,0.062085316729691246,0.07003472186079755,0.08190104219994332,0.10721709374062788,0.15307593897050134,0.23575130786145118,0.3851222745899583,0.47331291702118944,0.3262178732051469,0.22639160080856383,0.18333115066227892,0.1653865740486146,0.16081050992360985,0.16094174248230014,0.1610716826786655,0.16322175812165798,0.17079121396479857,0.19151917126067922,0.24111218081363697,0.34070598384035156,0.3923809685708063,0.29500217983131444,0.23636097278367896,0.22219467491069558,0.22973981654086176,0.2551176488194999,0.3260942196269961,0.23215917925164653,0.16393306592790247,0.18610093814575,0.24612520067008806,0.31249029519697263,0.3465439829981481,0.3319178383511596,0.2881602054145366,0.23004712692900386,0.15629854704456814,0.06654635505671735,-0.010406093927786662,-0.047529524623488695,-0.056012602625059374,-0.054474243749434687,-0.05478581117114607,-0.06311487369239378,-0.08063525740079336,-0.09920456241117469,-0.11186199893641274,-0.11814047116157632,-0.13015432700591237,-0.1568425728002168,-0.19508675435429962,-0.22530756541227073,-0.23377973182531187,-0.22087777852203064,-0.20221355332534774,-0.18989355241855624,-0.18355038146686029,-0.18587047296225456,-0.1999168165402136,-0.2285034279956842,-0.2747132319811477,-0.3294539334281312,-0.38540755397625925,-0.43858403155315573,-0.4919645786587178,-0.5498423052558948,-0.6055437654102213,-0.6286165312642062,-0.6021655553062244,-0.5567828462366283,-0.5346502575699144,-0.5521474849458343,-0.5927977221902394,-0.6127405447729369,-0.5684558629663843,-0.46832610618382314,-0.35179968169170445,-0.24111933304973854,-0.15147797036330612,-0.06437858418233523,0.02867633128453808,0.14167207582271846,0.2802124453193538,0.3952689688533327,0.4057396328279889,0.32534902355415846,0.2389474262230264,0.1816834207397617,0.14795156576272467,0.13972853089774306,0.17124454887681276,0.24599365216614275,0.3309229244460461,0.38319036112676175,0.40148457230710544,0.4130250581658355,0.43857822636694493,0.4878002200226793,0.5437527021364734,0.5484538557628936,0.47485936391792927,0.3920291411968058,0.3534565586093263,0.3840453310632093,0.5242984594764437,0.7136011656284569,0.5659679613751545,0.4018270953629404,0.32283722078866445,0.2853094967642587,0.2621209633674207,0.24541414309686194,0.23833950538403406,0.24270552491298733,0.25450434002295325,0.26465481247086214,0.262411214054166,0.24052345546514736,0.1950601254535354,0.12681377141944183,0.04163725666090768,-0.060010382986743986,-0.1698033073482928,-0.2514744531193903,-0.23468764323525837,-0.15167874484329272,-0.07221268605190348,-0.026182209163613853,-0.03295400399811739,-0.09223912035391822,-0.19541905004919047,-0.3583260976826001,-0.4788851415859696,-0.3307652761275606,-0.2179693939638128,-0.1793802995897956,-0.17739271122425537,-0.19123744245755894,-0.215133226641768,-0.2527496233498937,-0.3087507140810916,-0.38166691961580673,-0.4550176353709381,-0.5140075840304753,-0.5600851978531439,-0.6002882454511207,-0.6333193000283428,-0.6502819950322117,-0.650633613169562,-0.6386099274697288,-0.6149414148080689,-0.5834185039597121,-0.558115984452232,-0.5373320989053405,-0.49552351767492564,-0.41191459788065143,-0.304549254546049,-0.2182222036838325,-0.18078107662625037,-0.1864729797064601,-0.20803700352171206,-0.21594744276833058,-0.1814053980466214,-0.09771107098044438,-0.0034564244294003634,0.0771381315607716,0.1529899776960212,0.2508885350373291,0.3712657160479797,0.5057358510795674,0.6139021941744759,0.6657590799167757,0.6692063414838731,0.6385634364963186,0.594507480164429,0.5605815053668868,0.5509248213941345,0.563039551048694,0.5864262643127719,0.6107147836160527,0.6108193056939379,0.5605073196036244,0.4902631948363328,0.4621738218033095,0.4854438662757502,0.5479270239371873,0.6404422078010896,0.7378567960333209,0.7957342745708997,0.782132260510432,0.739364087600335,0.6997448673501242,0.6566557983074691,0.6038068640062052,0.5382590146790385,0.4395985606547637,0.26733846314821763,0.00968935519314458,-0.24871039919475246,-0.42056853962923213,-0.49554487320670126,-0.5001684805589018,-0.43060578866252147,-0.2870763763535762,-0.12956251808091487,-0.00809868740600559,0.06890730177925805,0.12105101499812582,0.16044781131696714,0.18345339666817836,0.1891649157720482,0.18320212448785392,0.16893347006328607,0.14236673507585892,0.09444395468295716,0.01703077798994364,-0.08436883553413484,-0.194901250691882,-0.3122093487333187,-0.4294569021799908,-0.5249104341790974,-0.5933016216040318,-0.658385150039125,-0.7311091452649797,-0.7255936957023716,-0.5523693465537263,-0.3812267267840325,-0.2755039048409591,-0.21510429326017214,-0.18280306503208266,-0.17184870228412408,-0.17840824038541817,-0.20173494350037405,-0.24792971583503293,-0.3401869427249546,-0.5670579431564498,-0.8630951125853324,-0.41287456125386546,-0.20665373080091132,-0.11373109459613703,-0.06255300377960393,-0.030574908941954897,-0.011456250605601513,-0.0076250573465545,-0.017679175820080103,-0.03277386254239395,-0.044055910536724543,-0.04852900440098675,-0.04608772015582593,-0.0384350983547804,-0.023303536894170217,0.012963010670541173,0.0850102246861695,0.12042948677576779,0.12569186660948745,0.13027035828751246,0.14149916125839265,0.16188580222279988,0.19371726095850086,0.22993355553860337,0.24762823084414629,0.22065121997638637,0.1727210365881239,0.14447249782830143,0.13377220308370133,0.12391983857951512,0.11052843721878358,0.0961215197936299,0.08323263474196392,0.07313078949742836,0.066399565907055,0.0643074658806126,0.0688784122658192,0.08366521431421824,0.11603174508270007,0.18639121654005078,0.3517101266677391,0.7095047044427882,0.6484534747926931,0.39723721283832364,0.2615875593105529,0.1837728140884304,0.14851939919578486,0.1441741703990046,0.15896602178656946,0.17713542363841,0.17891227459340364,0.14031904708641313,0.05219545417270386,-0.042187254915912124,-0.10708198760212524,-0.1449355768406513,-0.16347536144245814,-0.16288141308994578,-0.14573391022577592,-0.1237887025745957,-0.11370853004344039,-0.11927435511827876,-0.13695803738569756,-0.16019886200008537,-0.1806483209700874,-0.19335519690182643,-0.1977931015881272,-0.19712611523877374,-0.19422921634778328,-0.19521915852360128,-0.20333434341915904,-0.21714683908041685,-0.2321729562562314,-0.24192864834932487,-0.2408362499533391,-0.22759920159509872,-0.20717732020052665,-0.1843451760646798,-0.16129801904465274,-0.14627521140810795,-0.14902705468284072,-0.17436517114056957,-0.2196182017146131,-0.27271845216631474,-0.21915383845365802,-0.08548341883991448,0.007989874340893321,0.06279569176770491,0.08337767076421118,0.06563992101070229,0.016716789058629812,-0.011908249449925669,0.02894093794595147,0.14967274354688295,0.23131822713306682,0.2620668514701479,0.29516477316876527,0.3427845274024541,0.39273742737732864,0.4115778522686295,0.3913235635611265,0.35507009821751323,0.32079651905804923,0.29214022667101236,0.2756215028325717,0.28200774579645327,0.3259125360755658,0.4252309148701289,0.5232820307453938,0.4871699397812183,0.4016702470025137,0.33026348114804804,0.277837269413847,0.24069430890887317,0.2179109168686564,0.20756683132598636,0.2062385000054803,0.20871636901538843,0.21188908048233487,0.2162979608222349,0.22379499069325867,0.2330605001977064,0.23448178922927082,0.1890876148242418,0.04854567885541861,-0.13710294986488097,-0.3105679913347326,-0.42788714072569284,-0.3732481075912615,-0.26404543245804785,-0.20900397937084297,-0.2278799588847054,-0.3183195038162749,-0.3970097025513075,-0.412702169980867,-0.39688266251431753,-0.3656316399347227,-0.31803771215627463,-0.2652756346191446,-0.22449484663957264,-0.21132403634699082,-0.2287136902371487,-0.2735398935135814,-0.3463245094842255,-0.4520286877454118,-0.5971496313089278,-0.7511652297326352,-0.8177904621867934,-0.7677243537772115,-0.6760135415842571,-0.5841500965026777,-0.5041299400502578,-0.43404182183525863,-0.37313588327115854,-0.32770087764191597,-0.29797783069067163,-0.28077931190809874,-0.266205287353623,-0.24765058161200632,-0.22705420957358136,-0.21202124134834877,-0.2038246921051207,-0.20199809288506665,-0.20361652109135245,-0.19909678905970915,-0.1662743826235243,-0.08265101856590992,0.05439017026742621,0.1177372857260398,0.10550214140898864,0.08996518908952733,0.0940999443739942,0.12603993539504496,0.1878527313118827,0.28611903205250355,0.41244601591146307,0.5192887437234038,0.5621095634204082,0.550842248601619,0.5168642388134456,0.48301014597106734,0.46144966725631387,0.46047035558405813,0.4851183014847503,0.5396879255573943,0.6082676471490314,0.6395025985489731,0.613899728340674,0.5739651251920378,0.5459868775146047,0.530989518253874,0.5233933330087663,0.5188772401354265,0.5350955118545883,0.5913689914909707,0.7134488928232227,0.8505468572024883,0.8372474380252085,0.700643897285692,0.5774279633731226,0.4907659968592445,0.43796094139535746,0.4106091119584681,0.3816587236058653,0.2948115043544832,0.008864466145587283,-0.22557699878553186,-0.302346202424969,-0.32327099737292686,-0.3133658732108807,-0.2898715681985451,-0.2617525423960208,-0.23139120362085228,-0.20865832214988808,-0.1886175855259531,-0.16687837606717035,-0.14268200373774828,-0.12200057955320338,-0.1268856692112514,-0.19094017739253347,-0.32027827397046643,-0.4652080645933713,-0.5604677669283088,-0.5998287846263023,-0.6052258345002471,-0.5964447821833034,-0.5809572102055014,-0.5649523657361555,-0.5595369562730941,-0.5774200113644262,-0.6296597855310705,-0.7153263411280094,-0.7825240329518699,-0.7094943919989277,-0.5444199448606095,-0.4269854946031391,-0.3775961295466908,-0.3825986421353987,-0.4432226401950953,-0.5481763051448331,-0.606294849479448,-0.5516661831163466,-0.4649847121362312,-0.3879171298949942,-0.328141685786466,-0.27596782991245095,-0.23006708804073273,-0.21043924800682945,-0.21958235808495516,-0.24692788619832146,-0.2676019276152934,-0.270673268250188,-0.2673173458609591,-0.26965681082836607,-0.2478326659041633,-0.09737357896238548,0.12760970599436544,0.29838683277817313,0.42935392549491314,0.5425274215310213,0.6420475269278691,0.7313867134014591,0.8214262418728879,0.8826621152464059,0.8436093586370281,0.7390384338632897,0.671684229784517,0.6652121311225576,0.7006056035480656,0.7513515650062244,0.7973125748456946,0.8263932187447023,0.8143924022029373,0.7388358897182795,0.6255045995595329,0.5402617161522065,0.5085451608786751,0.5212719223632745,0.5652602681781951,0.6223440998787213,0.668824698458079,0.6786605072923007,0.6396796079662239,0.5592777662458267,0.46589350130518625,0.37104136031697593,0.2624523973827977,0.14121966034676806,0.04422576050142656,0.011787847294628954,0.02014604361104811,0.01340445524678632,-0.028377834288688078,-0.1306060170519759,-0.3211078880793102,-0.5096751461647664,-0.5038244156054028,-0.44482752622104493,-0.4111400637725792,-0.4070555790381954,-0.43666991934289084,-0.5139735225596198,-0.6522829019308134,-0.7745790702167654,-0.6772846837592883,-0.5173132619821149,-0.4222799494181364,-0.38013593458671263,-0.3850015504217944,-0.46202493945847234,-0.676270678834505,-0.7479769761983149,-0.4938382513915048,-0.3624554205692788,-0.3048737761927038,-0.27478640948071376,-0.25824536894666034,-0.2578654942903897,-0.28004620577689554,-0.340179438690325,-0.46356076050337075,-0.6380001248031159,-0.6868278673613223,-0.5744687584134676,-0.4346625862068908,-0.2567261760424062,-0.03945763317770991,0.12297179154634695,0.1865006087730769,0.19086518009668943,0.1730291323170852,0.1618213191495881,0.1718048729187551,0.2239741684845872,0.33148139749013217,0.45143851283427305,0.5189687164420913,0.5415539979685483,0.5535010777157066,0.5815250258412527,0.6393909800295821,0.7094848018715761,0.6667937707938729,0.47024634287218636,0.29624039417566655,0.2028283314744679,0.1768059186463358,0.2082647784309864,0.294592460605578,0.42171640496335233,0.5382166628442698,0.6215446448311669,0.6919450977571968,0.7715876190959966,0.8574716969658304,0.9115345617854022,0.9064966824799462,0.8560479930170963,0.770799353083246,0.6610650106432115,0.5503932430447833,0.44712853093329286,0.3448545365627453,0.24556712585200624,0.1580154812871458,0.09346749944059718,0.06411934462296334,0.072286361624845,0.11323869397604464,0.17406869019859603,0.2369213241954698,0.28503816813365024,0.2971970243840199,0.24779872596753255,0.1263945860209689,0.027215940692410942,-0.028874559182430582,-0.0671285910232334,-0.10724804262555612,-0.161708576308134,-0.2573920810309362,-0.47122700736787143,-0.8487651113322092,-0.6412123941365964,-0.4547921749662573,-0.379297080570034,-0.3479088741085129,-0.33390595950252333,-0.3226253077538408,-0.30591990502420635,-0.28457757026873304,-0.26293707610388717,-0.25001493189989066,-0.25386252900352196,-0.2822127059979003,-0.3285600703282819,-0.33575878083541294,-0.28372944094810576,-0.22430813703431957,-0.1697801218860353,-0.12333774295583136,-0.0880687452312729,-0.06315444982648602,-0.04707770778892121,-0.03551839743352725,-0.022919148299627736,-0.007535169761217199,0.010171680534393253,0.021117478609145635,0.015534979369597074,0.011450188100035591,0.011865889563155487,0.01830912765594207,0.03158150189283065,0.06823931280866899,0.14768420859951872,0.2630376529119753,0.3589977103626994,0.4077423585175928,0.4279408079132235,0.42953988996649184,0.4107403834111328,0.37035225272970196,0.3115771120284294,0.2457600070846421,0.1898510012833698,0.15166209322496432,0.13089532349043134,0.124880559521735,0.13382474759382137,0.15512842602172897,0.18648627974229012,0.22580800897747266,0.2753259734645413,0.3361267718948782,0.4059074341947451,0.42448911427131786,0.3206063157048365,0.19635481618947287,0.12064156705834748,0.08313981465728897,0.06533272184184544,0.05589704951816816,0.04951613101791747,0.04095865453102364,0.028875243834301983,0.011103995113575222,-0.012782343453475776,-0.04350380301114687,-0.0845375710958416,-0.14243689456844638,-0.22701655611472735,-0.2923822580825626,-0.30480236847537767,-0.31790640086508487,-0.34372179598731556,-0.37655748142119905,-0.4037211944951893,-0.41839799159833135,-0.4201016245843584,-0.4122554579763515,-0.3912709349745649,-0.36311732630322874,-0.3316301931281794,-0.2939041114348406,-0.24701662005621514,-0.1939265808750221,-0.1445967444614433,-0.1209902152977471,-0.14491412526319775,-0.21628216277585866,-0.29605216458217243,-0.3547039715377953,-0.39417386325641174,-0.4213638902781726,-0.43898436695158666,-0.44880682641567493,-0.4564814708588437,-0.4675261819026682,-0.4832544603537737,-0.48949956007920536,-0.48069835867829597,-0.46368208608256917,-0.441060255703267,-0.41035339661297654,-0.36134545757946035,-0.2890128096858514,-0.20161136352341416,-0.11965290618176334,-0.05224110140287288,0.0013492322368206145,0.03958427975742064,0.0671086936367015,0.10272165658010897,0.17146663424139613,0.30773058395928055,0.5019989714341143,0.6758070279995799,0.7760093000456728,0.8257746067544611,0.8488917791844458,0.8143070466518002,0.6924892539797655,0.5390804534446044,0.415881194064004,0.33569584801286423,0.2896465267640128,0.2695611851860289,0.2744466351314108,0.30807716360513526,0.39820593763037637,0.610123025571065,0.8412046218471189,0.7169340511502759,0.5421042422386901,0.4151492995132723,0.31507110634698554,0.23248840835969048,0.16987739431301263,0.12535102978777496,0.09463601078230872,0.07465281310558394,0.060949597215237176,0.04977945529105099,0.03443262527762234,0.006030598221403268,-0.047598342640707794,-0.1326340883811517,-0.23802808057692373,-0.3358678755658511,-0.41436233360570524,-0.47921801915682055,-0.5093896525705885,-0.4749367759121938,-0.4058573525896874,-0.33548235626133377,-0.2723893889462353,-0.23573326397188626,-0.2479078239182327,-0.31191906391559354,-0.41755353780132654,-0.529173026803517,-0.6157826654270836,-0.655948656744027,-0.6609473448525913,-0.648505219036197,-0.6156031963059848,-0.5229777487640089,-0.38177785609657144,-0.30680291681771127,-0.3345092527163636,-0.4343548921651352,-0.5590215874678712,-0.6494986527229223,-0.6791085533759522,-0.6705222337102842,-0.660679500174058,-0.6679935367680786,-0.6994277016944406,-0.7571311352977239,-0.7977275234244037,-0.6593082549919618,-0.3718542873633068,-0.17195391086604847,-0.05912889965554397,0.010033621759798467,0.06003770866820702,0.1063394783064296,0.1541563473001521,0.20186200767603027,0.25029019444745776,0.31137761945731424,0.3883552448975634,0.47248232200033374,0.55411606285487,0.6023167803283,0.5968836106626271,0.57842840971671,0.58127864427863,0.5788447559387072,0.5282457538519061,0.45555627672851057,0.41170949870886747,0.4283487435576443,0.49842838946427864,0.4694016770272127,0.38544508904220387,0.3502061783277965,0.36274062641338467,0.3018044006239485,0.12982380167489044,0.05927614966470591,0.048729198939176106,0.07023486334953302,0.11456708426537211,0.17160952641780805,0.23183802067680398,0.27638768394787144,0.29415287841173565,0.2734413911385405,0.2069150253897131,0.11583375182392913,0.03391850126513768,-0.02901445147872403,-0.08835964299957193,-0.22456349179586949,-0.31274088037268716,-0.17342475057444315,-0.11483371112198304,-0.08401205414243712,-0.06535466453672745,-0.054911021805449434,-0.05649713346098564,-0.07184179887764842,-0.10304926651726361,-0.15531297136394753,-0.2454642214905258,-0.39523547114025476,-0.5089602533268262,-0.4563510687711861,-0.3803320219389253,-0.3423684657928194,-0.3587221438876272,-0.4527217154976876,-0.5866979543358958,-0.5432974806085952,-0.4362522785834312,-0.3874675192004371,-0.39193284324606414,-0.44846461025505796,-0.5755338769806475,-0.7255749975876447,-0.6634726426119257,-0.5327949527744655,-0.46806638129508865,-0.4330041548923913,-0.3899187475365075,-0.330634266889141,-0.2782493720678167,-0.24577237653121953,-0.23705742513632802,-0.2608495831834702,-0.34941755841719224,-0.5820265391555227,-0.49314856192709894,-0.3087798016132745,-0.24611476174300043,-0.2298151929412896,-0.22879056062760403,-0.22314096755026544,-0.18271235066356473,-0.06350041647272012,0.07342812098945406,0.16674689422741024,0.22489457261455714,0.2744578661670853,0.342579550512779,0.46855870097424634,0.5038549592055948,0.31747196039135234,0.2346651270091816,0.2226694763648114,0.2515167312800333,0.3220283767046604,0.44135490858976045,0.5723445335219011,0.6468683551402103,0.6701686516830128,0.6676948203344346,0.6510467857733627,0.6203713176046193,0.5737730547057412,0.5169808055505645,0.46041171623078075,0.4115677481997316,0.37055025748195247,0.3368992367329398,0.31196526228542626,0.29101137242232245,0.2714892793966653,0.25258295602128733,0.23504949774684894,0.21680471037353935,0.18742657885080238,0.12772912098423356,0.03959705505413538,-0.024049000313243658,-0.04290813254132972,-0.04228443876855877,-0.037721595374763654,-0.035939536185444355,-0.03865259842345301,-0.04620859470074712,-0.05775415604018231,-0.0724498990150787,-0.08498797708133443,-0.0930337358049634,-0.10794950675730144,-0.1478202875319733,-0.22296827504077682,-0.33920920010705535,-0.48557885121884253,-0.6036791997265122,-0.6169515456891912,-0.579335920786574,-0.5473054555988714,-0.5237492219588886,-0.5065076388130035,-0.4957965619332152,-0.49371426413684955,-0.4951758915477926,-0.48168068715128337,-0.4340217689185247,-0.36747163092871,-0.31142121860204114,-0.2719771782197521,-0.2404880662392563,-0.20870853332316144,-0.17711427971389054,-0.14945015894265953,-0.12518135284102389,-0.10228225493981549,-0.08124252463483984,-0.06360307723458343,-0.049724777064759265,-0.04111736735477145,-0.037115658196032804,-0.03516268808688722,-0.0362721740165581,-0.04549791961224943,-0.09287945044095999,-0.1255423110892321,-0.0336178112971028,-0.010458922167250499,0.0036499726800587663,0.015921134715332363,0.03174910844311394,0.049811134068811075,0.0666587846608581,0.07820693817130497,0.082309245530251,0.09197751926730803,0.10934817451422753,0.13130376612536426,0.16784041456977214,0.24489521838089537,0.39616818201570214,0.623690788214624,0.7120517590747546,0.5696613620048241,0.43849570322926434,0.3571302453533392,0.3022246312939777,0.26352097634574667,0.23660079675203738,0.2175791687182243,0.20337345418318814,0.19370219855954707,0.18498239851833814,0.1769151515063908,0.16940827649221513,0.16182687104776877,0.15022182954926597,0.12794627575009215,0.09018275488659078,0.03966048582736314,-0.014381567620393639,-0.062026288472223017,-0.09675553114783811,-0.11891644026137269,-0.13045098005959685,-0.13970681152006809,-0.1541497803099827,-0.17720114050125457,-0.20356015502770067,-0.22539048218536822,-0.23948092687195047,-0.24712503801256883,-0.24696241575613523,-0.24101769473340817,-0.23669923003156568,-0.24341505892290857,-0.26218565228799773,-0.2844992010644604,-0.29864648487549517,-0.2905102031411169,-0.2541086539168371,-0.19897356838926789,-0.1537143538568272,-0.14638347086416217,-0.19087741557552473,-0.27985988595824857,-0.38054205426135224,-0.4654486284483937,-0.527676612852647,-0.5737998136076516,-0.6154863584136304,-0.6551388060879385,-0.6785711044892422,-0.6706057226159273,-0.6376807171150928,-0.6021683568366656,-0.5683857392373917,-0.5166137334165817,-0.41044254449252765,-0.2253214967185828,0.014970041500635047,0.24208191347717525,0.3864555395106942,0.43377432145097444,0.407875369783162,0.35217016705238385,0.3188056014887507,0.34312012827369576,0.4478224998643232,0.6221222653657086,0.7349936671714016,0.7310052054564176,0.7098945827167182,0.7141506765518341,0.737442945217814,0.7354212828807383,0.6239316544303309,0.43513746486464105,0.2885240846896612,0.2085198361024898,0.18002428037896331,0.19172029429452447,0.2382292653161687,0.32776074370936975,0.4630716740601442,0.6185542960322618,0.7209139370040186,0.7752823528586293,0.7989841364388444,0.7762643138266505,0.7188525337721685,0.6525302966739511,0.5946136002223091,0.5430028296985385,0.48835047921455604,0.4158015174583883,0.32307557518601027,0.22708896297625292,0.14703624732017934,0.0793860592621611,0.020989834975092863,-0.0197239136608297,-0.038229249604842364,-0.04564534031358855,-0.05188612390626177,-0.05730153916217564,-0.05608829799683021,-0.04972386146943033,-0.04534764993537425,-0.04647835455975865,-0.06102408522513641,-0.09364448356149814,-0.14012324257679357,-0.1893136848207765,-0.23502224826375373,-0.3029691708441071,-0.4346673373599883,-0.6575752931794121,-0.8693424299826065,-0.9373589384821971,-0.8964565554020915,-0.8251698300592574,-0.7638555693309386,-0.7227550380856287,-0.6954447121097789,-0.6788922321654839,-0.6712520537124078,-0.6596612850050816,-0.651262713963028,-0.6517029960146252,-0.6562447211126773,-0.6553806573174482,-0.6449273226732404,-0.626280533412319,-0.5917320133197892,-0.5265917666476285,-0.43058079191068444,-0.30104176389855836,-0.14320032128209187,0.015247014497021039,0.1111986964842044,0.14471574262770415,0.14896068661635897,0.1509024181099335,0.15181459103765077,0.1395198223598287,0.07315339554419215,-0.04974702674127495,-0.08334288058358368,-0.05547923689076256,0.0068699567482397765,0.09954475420253588,0.2256346932487174,0.37453995883690006,0.5127305890293498,0.6217115219405741,0.7089064328001529,0.7794297827869919,0.8194135768520607,0.8082720458237254,0.7148969347305157,0.5594755327577429,0.44517045661619464,0.408621275789054,0.44640617025767326,0.5749990763099116,0.6459582591434169,0.3865847653275232,0.23225956339062068,0.16772562054591866,0.14681861063179227,0.15482569070439803,0.19051601628266066,0.2575426283729059,0.34895549613603644,0.42484522655765455,0.45060158445634035,0.4400805113956972,0.41451793625735367,0.370793168519992,0.26750180836957904,0.10911459563709987,-0.010563128623214233,-0.08794565125852993,-0.1553177796192199,-0.221909756052905,-0.2787553264052782,-0.31975704179807074,-0.3379846268492801,-0.34503105700793824,-0.34056658591847,-0.3202983028520038,-0.28966992230555433,-0.26871225831573703,-0.27352536719282494,-0.3076443611354908,-0.34712693121559157,-0.37098797916170384,-0.37368485295578585,-0.363010533788681,-0.3550174630412269,-0.36611381581801306,-0.41445365890677077,-0.513168901119053,-0.6622375203331583,-0.748422501230016,-0.6019869999078802,-0.42095139535477016,-0.3135573951974708,-0.264306313499659,-0.2536882478633034,-0.2733219599154095,-0.32314246632460664,-0.42025998500739065,-0.5765140534256374,-0.5876040754220627,-0.3997998963919274,-0.25072125914327137,-0.14577323254925528,-0.051956606621431284,0.03566427727278085,0.10485122198744376,0.1525601013441176,0.19074006944851152,0.2522875343796325,0.3671258730405009,0.5164932280176494,0.6444074620919843,0.6889440487093339,0.6540085625684472,0.6234268231923441,0.6202209886887583,0.6000831074455095,0.5085493183054507,0.3907979254678799,0.29811407024091396,0.22469967901396817,0.1563758583136604,0.11091549035275772,0.09365616338709756,0.10499327924944321,0.14261525641992,0.19966265217551393,0.2603190590975321,0.30087049697778556,0.3131104362873025,0.30677316222197093,0.29413682070019936,0.2854145842895441,0.286143994487077,0.30923835111533426,0.3969987748769743,0.7075261774836459,0.3806178042441684,0.1498427943826038,0.07558338859272543,0.03948659876905675,0.01613099528750407,-0.0018775328950361146,-0.015682393477968425,-0.02238086701131436,-0.018406973333876787,-0.00369479500490674,0.015484727396033446,0.030251663841804045,0.029952603753339826,0.012920513120480252,-0.0023131608493888235,0.0038627286488102422,0.02419276123789962,0.043512377988350254,0.052453248693457175,0.044419327839055986,-0.0024402633229477964,-0.10826187685551886,-0.18239061594764455,-0.22170025994403583,-0.25517910103508523,-0.2833089008294216,-0.30048497046961536,-0.30404997500712844,-0.30029264727255145,-0.2994980499426501,-0.3080133242741788,-0.32258922115418653,-0.33943248330818954,-0.3583108610029724,-0.38144063904113584,-0.4174845106343781,-0.4732788984228549,-0.5533906021188817,-0.6527631808298168,-0.7423209952304796,-0.7681006034113019,-0.7162405659267503,-0.6456802421344909,-0.5829462004104754,-0.5244656786037887,-0.46026719123943644,-0.3975677321482475,-0.34655932958863817,-0.3243730938555622,-0.34069290669874586,-0.38520480723606554,-0.4310475487471442,-0.44743212400609844,-0.4294074529885542,-0.3507205520783439,-0.11307718482093417,0.11565050054172449,0.20340247627632135,0.23152912005107115,0.2399044420813763,0.24384523982451778,0.2488958778021791,0.259074621300599,0.2754182490428562,0.2993673811229308,0.3291385216215743,0.3660239811878831,0.42246605402935256,0.5101192460388869,0.6232870836522867,0.7139661569718537,0.7190329142205228,0.6545619010137012,0.5788946927495904,0.5319325425005349,0.5176797929526711,0.5237971102860566,0.5287236837756513,0.5138686079167876,0.46769225321894536,0.39709995693811245,0.3199496610094481,0.2467634941360322,0.1801507061723897,0.09929035911462974,-0.012574245115656376,-0.1188234396300482,-0.1753744039281354,-0.19411201527699026,-0.18975723779011994,-0.17311772149543228,-0.15267489391481517,-0.1430967383666214,-0.1535685227829315,-0.17094068978865015,-0.16755358293962608,-0.12148821181042359,-0.0564363676621295,-0.003020753284392873,0.014063256628293708,-0.02151483837792896,-0.11508224292570848,-0.24220140193348946,-0.35463128351223255,-0.4207381773939527,-0.4312597255846711,-0.39796999505931757,-0.38212372192022964,-0.41102064671481975,-0.4549056190332158,-0.47601906398622046,-0.44859750957927425,-0.37104668472473734,-0.2752842883615152,-0.19414941728674015,-0.13748669666093988,-0.1088084943651743,-0.10976714433217721,-0.13437582576340945,-0.1676969285241485,-0.1984257788181191,-0.2216014274146952,-0.23733467071570122,-0.2500796680183688,-0.27623030106305935,-0.3463531636223625,-0.24213591708578763,-0.06908884467856133,-0.021808843829668977,-0.005758436543276078,0.0008958380524769809,0.0038803185230135598,0.0070183683415291544,0.014218397216931699,0.03252080283096797,0.08557135264416162,0.24995478834534895,0.592980700703853,0.7922802543096675,0.8684102743248933,0.8681940303408122,0.8161509341147759,0.7471393921414364,0.6355956153115431,0.46747187505659415,0.3175991300649971,0.2278465270422864,0.1810234582096701,0.15279311358493847,0.13576261587728505,0.12956947028058413,0.15204323097709985,0.2717890501483772,0.31018772388798316,0.2055217959808885,0.17750469151690898,0.18194299788610177,0.20819483778697692,0.2578529836706625,0.34115478629965723,0.45848734749543835,0.5657440893202945,0.6246795977580334,0.6785797108522498,0.7571902972114538,0.8005628458437108,0.6660984583090119,0.33132316958571634,0.023623335823513742,-0.13409996081078016,-0.20596319803835292,-0.23994817517251985,-0.2603198911436274,-0.28135757320208765,-0.3083116322821339,-0.3480055325820754,-0.4001652655327985,-0.45555400617424435,-0.5069343176684109,-0.5471771447625303,-0.5570963907975888,-0.5354052361011165,-0.5045499397498122,-0.48559793516588384,-0.48860967959625323,-0.5234988896173468,-0.587534008140751,-0.6690745558755641,-0.7400924641381975,-0.7740522822300325,-0.7685619463972961,-0.746121225394859,-0.728264784259693,-0.7176966591754663,-0.7061798637637284,-0.6831261077166757,-0.621243450061494,-0.4996136929797691,-0.3640756098696867,-0.28471611273730285,-0.2816075427944132,-0.3592997038448315,-0.47576893724078173,-0.451604262921207,-0.3574506166219114,-0.29588542962542924,-0.26315956578010596,-0.2423319180966977,-0.21906736250311512,-0.17812842919429475,-0.11462462070807733,-0.020558197894409307,0.15621066857895324,0.42651762121712905,0.3891228188761393,0.343346238473107,0.3450067771922827,0.3770971866188901,0.4336140400274442,0.5149151978505757,0.6141743623435401,0.7128178029034942,0.793463154060278,0.8547171798539182,0.9003486814906617,0.9229799850180332,0.9067842965716173,0.857687211525808,0.7993082576105526,0.7500467142417151,0.7170263328287404,0.7021917142979105,0.7036170293965376,0.7183202781641834,0.7433310484505194,0.7500431634192253,0.6983782629956838,0.5920436532741298,0.4774911565460228,0.3806251928858312,0.3076458514132029,0.25607091786640646,0.21806881730938063,0.18498860977810064,0.14475741850328097,0.09986678780324437,0.06004668845192144,0.05072172199277609,0.08472722510645134,0.12316714410169162,0.13256066998000526,0.11713420339901379,0.08299300483890444,0.024628886669089092,-0.06364643869730226,-0.18445309000698884,-0.31081016383444493,-0.398055463121969,-0.4482836833855856,-0.5165759291815469,-0.6081366847929279,-0.7102839896470426,-0.7949747632523305,-0.8408725330489895,-0.8487440469054341,-0.8303957423511134,-0.7842162622915665,-0.6920956851980773,-0.5632653556441493,-0.4444852767372699,-0.36370288411735463,-0.32164297328715397,-0.3072669769391937,-0.3089520769471024,-0.3254199281931516,-0.3539242669363075,-0.38896138722506385,-0.41882454678462194,-0.43953034631598664,-0.45857513888191753,-0.4899598900475037,-0.516543622435879,-0.46931291602388814,-0.37609296020036476,-0.2996128514998488,-0.22903567171794878,-0.15092040600953419,-0.05947388706091401,0.04910014454325039,0.1560277838601873,0.22886092391907073,0.2588362709962496,0.2691405665959048,0.29591563283112066,0.3721448174137824,0.5479290538606173,0.7763743597181127,0.8354832747957484,0.7853584478699585,0.7333019563971672,0.695530291764922,0.6790090407837692,0.6793779754117059,0.693596949025856,0.7171372907617415,0.7277357327038119,0.6759092421838142,0.5720048539020702,0.4743868988476349,0.39069526030949653,0.32457184603485884,0.27793816125648746,0.24513707771183738,0.21894608792628686,0.20092780830768833,0.1954572843720869,0.20067537282002937,0.21162274564761585,0.22050918810329115,0.2275851095629601,0.23573536892294433,0.24770822413970475,0.25117360073753764,0.23205370209185142,0.19077600145223125,0.13692176236816295,0.08093269020209613,0.03327740982659311,0.00043896795026051054,-0.017172484969239375,-0.022783181087483315,-0.011993645236818952,0.008660890627261235,-0.001350033444355425,-0.013303423055050839,-0.02400603971563227,-0.033178953590845724,-0.04074451416505221,-0.04595556778692986,-0.05344144645294604,-0.06564692941272064,-0.07384589282138958,-0.07503247845743896,-0.0740153541170825,-0.07769345447685302,-0.08942374501326636,-0.1054972941264011,-0.12087704760564061,-0.13201493774617515,-0.14157455843010264,-0.1631748274117237,-0.22510753717513843,-0.3982546646545299,-0.7446973841995185,-0.6293491488318244,-0.4433815219392329,-0.3555175505015422,-0.31177995357903876,-0.28834530577771983,-0.2747337332071588,-0.26686660678712726,-0.2624256292016618,-0.25454322822997605,-0.23598331300137648,-0.20480481114572718,-0.16192209875212052,-0.10736472853907321,-0.04265688198488645,0.02040868183210943,0.06916041459899946,0.09931259998980728,0.11829241800269852,0.13872964751081387,0.16182219660990088,0.18825878246471509,0.22019546238835921,0.2596600588904318,0.3031262035775666,0.35866172417077474,0.4217021544542485,0.35970721644094755,0.23718007155823662,0.18409388157969414,0.1783203155138926,0.19841318969314967,0.23615166921435765,0.28769065725285725,0.339939791028031,0.38048396641826515,0.4124365929000818,0.4346301692848079,0.42545029242918914,0.38904711447633195,0.3586414381752051,0.3602226819696276,0.40105288440486964,0.4763725224754711,0.5537487751528478,0.5986926152785503,0.604087585901965,0.587840775709215,0.5637282575314594,0.5172620763737397,0.4366441185231376,0.3550623811502689,0.31119658492043645,0.2968855200974424,0.2859240329695224,0.25366195863388086,0.1920644064136521,0.10640176126477388,0.006314561562814493,-0.08757044227411949,-0.15634685266887433,-0.20260250286096,-0.2374877643064993,-0.2679623593762707,-0.2965168221047696,-0.31326029150073414,-0.3117697438439702,-0.3008789802846854,-0.2915860772091523,-0.2959478141160715,-0.31989776715165735,-0.3538526573068731,-0.38680304941314286,-0.4156194220143057,-0.4393860631655569,-0.4652009665206671,-0.4990915841538627,-0.5416892482221216,-0.590285518670859,-0.6363730934934069,-0.6734155941481985,-0.6933730983125933,-0.6863828235313457,-0.6627649621647594,-0.6536340446548702,-0.6793789862371257,-0.7458115680212931,-0.7786512182561929,-0.6086642576600013,-0.3797123546273403,-0.24246053917007782,-0.18286738854801307,-0.17894607985499236,-0.2204273173990682,-0.29222059524343896,-0.37188502174397725,-0.4183325035933236,-0.3916553791693653,-0.2933430973399063,-0.14444621866374902,0.028579082864300685,0.20388423340832026,0.35039333551190543,0.4543969923680705,0.5174155726762896,0.5574383531595032,0.5994967507637792,0.6679090936566139,0.7824243669165593,0.8982456623785361,0.8249974059433905,0.5745045232653909,0.38567067230682944,0.28533496940347636,0.23637113020183906,0.21607055353425236,0.21184933845066092,0.21930141269762318,0.2407367490111578,0.2740921069025883,0.2993685839033914,0.2993312903587858,0.2936108940315713,0.29697697587691235,0.3072397057502783,0.3117264282444529,0.296451445888125,0.26203241784980047,0.22023606454313574,0.1825034778074976,0.16122394089668812,0.15133464473020364,0.13943747578745702,0.12303548374985747,0.12390708688759004,0.18897788896786438,0.3636986346745521,0.5911881841601524,0.6488434873059058,0.49834168845944476,0.3070477179980787,0.14352213291541727,0.013566231502751292,-0.08149318343318726,-0.14752485099444074,-0.21290898323205948,-0.3338388202682042,-0.6082261514568947,-0.6990038490581474,-0.5279531131761723,-0.4577362966016683,-0.443374883387052,-0.44596844194126006,-0.44728350762488434,-0.4447426953529654,-0.44571717266138283,-0.45775564917958184,-0.4860934166826134,-0.5321561277506371,-0.5835265710219875,-0.624499525261518,-0.6382634127370032,-0.6215587879947994,-0.5807354533634798,-0.5350028004975773,-0.49661559489891494,-0.46934033306847917,-0.44877421483663194,-0.42571415308271526,-0.3925635625004359,-0.33991546636925607,-0.2699368727311281,-0.1836205840303697,-0.08195412135681436,0.008382936833311629,0.0610899538267714,0.07369682313030079,0.0722004170559297,0.06965196467988177,0.0729023404660686,0.09998267433317287,0.16471487933105652,0.26661005817462974,0.3309533648523258,0.3465503305344282,0.3511277036056735,0.3631018372999096,0.4021922234195335,0.4955052082962069,0.6804339074676437,0.9251468065463518,0.9595707052253215,0.8430353430191191,0.7701406019563126,0.740456738649633,0.7297656156932392,0.7220422054807005,0.7125089511735463,0.7153439567316049,0.7649555140998255,0.8603364922355773,0.8489115578427149,0.6411255954113165,0.43908916340254683,0.31147752386209987,0.23474717079238872,0.186263442391261,0.15804189061597826,0.1519732329863454,0.1793128835548856,0.26715388882743646,0.3490749226765265,0.16721949549572476,-0.025398195680900567,-0.12372734902282717,-0.18645615635260956,-0.22679127291697623,-0.2390291889268753,-0.22977812534222816,-0.2254593058788563,-0.2556507638462429,-0.32581205400078767,-0.3832820062055809,-0.3806074716680426,-0.33168090468262523,-0.2657416614873904,-0.20942800306291037,-0.1831746684254106,-0.1901667155277472,-0.22159289875810337,-0.26129585804883865,-0.2853690335523811,-0.28826595004520794,-0.2809485479852919,-0.2818380144444772,-0.28705315929331504,-0.28182058875329774,-0.27137129250287834,-0.2716399546819851,-0.28532987660972703,-0.2738193993067141,-0.19032364443681057,-0.13172210295988818,-0.13499487160239626,-0.19012889321133497,-0.29274898330438753,-0.4119297794406473,-0.4738982949544523,-0.4396982168835005,-0.34862800196786026,-0.25705665526047466,-0.1881150216799727,-0.1397771358916106,-0.10174497184692617,-0.06644973753848216,-0.026786388589815958,0.028203754665627398,0.11040391188950772,0.15479529483953353,0.11847892060687362,0.07533851524366274,0.059518253443466826,0.10356996921574248,0.22728061884530393,0.4024671216051741,0.5904646636541727,0.7421384977297723,0.8164842760142325,0.830420446204292,0.8126867038452968,0.765926459489226,0.6899223926907986,0.6085088330030252,0.5505549082731598,0.5255922470144837,0.5258745987666186,0.5417469696805997,0.5547856854862687,0.5461803237548952,0.5163340064775918,0.4785709520265543,0.44715604473301634,0.4320692081781265,0.4486830192249395,0.5064764224833113,0.603005200117785,0.6923862419451208,0.7171323884368732,0.6939876384128933,0.6781743296687927,0.6850131214748382,0.6280010954769735,0.44848649624077863,0.26254339745488076,0.12011644596374804
