-0.03570399381034792,-0.034236390584631994,-0.032891098318363635,-0.031460185361948924,-0.029478933458681286,-0.02670272068966558,-0.023315021040405802,-0.019389192410506458,-0.015023088095325182,-0.010485757492516483,-0.006413174577111656,-0.0033312183679739147,-0.001619019635527098,-0.0012154304463800635,-0.0016923994194962622,-0.0023405893978070387,-0.0024628890377556456,-0.0011298203210994065,0.001988826911972813,0.006819672122858586,0.012824599914317097,0.018988512332592584,0.023758209610087212,0.025886230136892348,0.02526249555877171,0.022498515394967288,0.018902906735111507,0.01580871414759616,0.013913067841809595,0.013264875599599026,0.013252650540720381,0.012995818655611882,0.011772822256125815,0.009583646249596893,0.0070642721573890635,0.004924024307805491,0.0033708154846084954,0.002478026226400505,0.0026003258663491115,0.004288064670806207,0.00728441226392982,0.010292986425198606,0.0121519500080166,0.012457697221304955,0.011002326600800317,0.00798152209822004,0.004043464636275729,1.9798663965947262e-05,-0.0032700681706829796,-0.005605996198817587,-0.007440493816579747,-0.009091542351735628,-0.010155552615138196,-0.009862030460728484,-0.0077707002032245615,-0.0037714978264221637,0.0015607770402027933,0.0071009616720570145,0.011246925880697532,0.01293467072222074,0.011980731266721814,0.009082222630923823,0.005070784630377083,0.0005823781094941045,-0.003747037898432442,-0.0075016440138706815,-0.010094404681747054,-0.01115840739881698,-0.010461299828426552,-0.008186525770749202,-0.004798816311256989,-0.0011420499077776352,0.0017809171467435495,0.002734855847609211,0.0009981979418059374,-0.0028542486402244518,-0.007526103941860403,-0.011623148294521478,-0.014582804863710613,-0.01691873440111175,-0.019487030613198814,-0.022128707363888306,-0.02359630304327159,-0.022544525385080304,-0.0185697814270011,-0.01214903712361712,-0.0046765166713083825,0.002319036317150684,0.007969289493008755,0.011650518843010885,0.01311811452239417,0.012946895781099383,0.011980731266721814,0.010708811992723246,0.009583646249596893,0.008874313620327822,0.009167828228404893,0.01129584875521003,0.015025993433392022,0.018976279727381296,0.02161795647807079,0.021850330699089357,0.01974677538270679,0.01624899737921073,0.012298711085221457,0.008495178322104396,0.005217543443682147,0.002086666623931699,-0.0006895406362611786,-0.002731948245642581,-0.003783727413100392,-0.004016097860952641,-0.003159998117412601,-0.0012888102303492276,0.0012794874910043654,0.003884474727025908,0.0062204027551605165,0.008238353983328539,0.009852710739916679,0.011259158485908817,0.01270229650120217,0.013986448380412023,0.015087141366783165,0.01588209468619859,0.01600439809931352,0.015551882262487663,0.014989303164090808,0.015038226038603306,0.016102236302005874,0.018169101349087224,0.02066401702257186,0.02230283898958257,0.021630189083282073,0.01776551593310651,0.010831107859505532,0.0022945763891609626,-0.006009585387964622,-0.012870609904430116,-0.01717556628622025,-0.018153963405809104,-0.016417303236106035,-0.013433189002826973,-0.01074258937762498,-0.009189380554427985,-0.0087613299280247,-0.009226070823729199,-0.010693666503112481,-0.013396498733525759,-0.016943192065201677,-0.020477660337998957,-0.022361081584906878,-0.020575498540691312,-0.014228134775909757,-0.004762126041955775,0.004520434364025192,0.010806650195415603,0.012567768029208599,0.010219605886596178,0.005829043152691711,0.00118164777904548,-0.0028175583709232374,-0.006009585387964622,-0.008651259120121059,-0.010864892790739907,-0.01295621550191119,-0.014961932615601399,-0.01675974071869561,-0.01809281547241796,-0.018802148101687028,-0.019499263218410102,-0.020428745009819095,-0.021174767908389378,-0.021199225572479313,-0.02039204719418524,-0.018961141784103172,-0.01770145511531589,-0.017285637094123892,-0.01754246143289975,-0.01775037044349575,-0.016625212246702038,-0.012711616222013975,-0.005447005534934502,0.0035175750525468234,0.01136922929381246,0.01600439809931352,0.016921639739178585,0.015209444779898091,0.012714529106413457,0.01074549471569182,0.010011696876000177,0.01035414190492239,0.010831107859505532,0.010965636331499103,0.010806650195415603,0.010439747502403464,0.009938323883730392,0.009595878854808178,0.009926091278519105,0.011026791811222887,0.012665606231900956,0.01465909828671252,0.016444673784595444,0.017288542432190728,0.016420216120505517,0.01403536370859188,0.010659889118210747,0.006966432445430179,0.0036031851778274807,0.001022657869795659,-0.0006283907408235486,-0.0016434795635168196,-0.0023528189844852676,-0.002952088352183337,-0.0037225772158094566,-0.00495780622050681,-0.0069512945021520545,-0.00975195965282484,-0.012760539096526476,-0.015341067913824825,-0.01691873440111175,-0.01717556628622025,-0.016307232428202395,-0.01477848881542797,-0.013164124512507189,-0.012002276046412264,-0.01115840739881698,-0.009849797855517197,-0.007073594142100663,-0.0025484991630363024,0.0027837757035886544,0.0073211017785977705,0.009852710739916679,0.009962781547820319,0.008103817965002326,0.005266464054294854,0.002355726586451898,-0.0003715609686881894,-0.0027930984429335166,-0.005141256057746353,-0.007464953744569468,-0.009972101268632124,-0.012846152240340188,-0.01551228665511961,-0.01706549547831661,-0.01739570035569489,-0.01720002395031018,-0.017041030267894035,-0.01705326287310532,-0.017077720537195248,-0.01684535386250932,-0.01595256234040154,-0.014411586122415828,-0.012577087750020404,-0.010718131713535053,-0.008822485407748486,-0.0068412244488816765,-0.004431916636777905,-0.0007751502332985505,0.004373674796086864,0.010207380827717534,0.015820946752807447,0.020456108011975862,0.024027266554074354,0.026436576630077917,0.027659580575896625,0.027794109047890196,0.02701138833368606,0.02581284959828992,0.024137337361977994,0.021740259891185717,0.018584919370279226,0.015490734329096518,0.013326023532990169,0.012849057578407028,0.014390033796392736,0.01734969036558187,0.020590636483969433,0.022840960423889497,0.02318339790647907,0.021715794680763147,0.019282026940669654,0.0170072528829923,0.015429586395705377,0.014597942806988735,0.014096519188315667,0.013582855418098666,0.012457697221304955,0.010244071097018748,0.0068441320508483075,0.0029427656128384752,-0.00022480109889655553,-0.0018880795980472974,-0.0020470695072971183,-0.0005672407699225925,0.0021967366772020773,0.005205313857003919,0.007174341456026178,0.006978662786741671,0.004777264739867163,0.0014751669149221363,-0.0019003091847255259,-0.004872196849859418,-0.0076117140671410595,-0.01074258937762498,-0.01483963674881911,-0.0198661583650896,-0.025173977076891153,-0.029637919594764788,-0.032670956702556354,-0.0343709266029582,-0.034713364085547774,-0.03300116912626728,-0.029050882832278004,-0.02349846484057923,-0.01817842106989903,-0.0150108554901139,-0.014741798546126755,-0.016356155302714892,-0.017933821790001817,-0.018153963405809104,-0.01684535386250932,-0.014423818727627113,-0.011977818382322335,-0.01081596991622741,-0.01141523928392548,-0.013029596040513618,-0.014032458370525042,-0.01258932035523169,-0.008357744512043987,-0.002389509253786482,0.0036398754471286946,0.008458488052803182,0.011100172349825316,0.011100172349825316,0.008641939399309254,0.00463050441729557,0.00019101850702529837,-0.003196688386713815,-0.004113937572911527,-0.0019247691127152475,0.0026614760636400475,0.007577929135906684,0.010366366963801034,0.010317451635621176,0.008482953263225753,0.006623992698940815,0.00598803306194153,0.006734062752211193,0.00821388877290597,0.010109542625025177,0.012041879200112958,0.014047596313803166,0.01585763702210866,0.017043943152293517,0.0174719937786968,0.017300775037402013,0.016811576477607587,0.01604108082228209,0.015038226038603306,0.01429219559370038,0.014072053977893094,0.014365576132302809,0.014977078105212163,0.015576347472910233,0.015943242619589734,0.016200074504698233,0.016725963333793874,0.017251852162889516,0.017325232701491944,0.01648136405389666,0.014732478825314949,0.012066336864202885,0.008580791465918109,0.004263604742816485,-0.0004082509361360978,-0.005153486399057846,-0.009972101268632124,-0.014790713874306614,-0.019364734746416527,-0.023327246099284448,-0.026286902668473583,-0.028366000320766218,-0.030188273634282996,-0.03253642823056278,-0.03567952859992534,-0.038981622651704045,-0.04113410838893176,-0.040901734167913185,-0.038455733822608404,-0.0352514855198547,-0.03248750535605028,-0.030958754196943213,-0.030873148599462143,-0.03154579850576264,-0.03212061020937078,-0.03152134084167271,-0.029344397440355073,-0.02534519581818594,-0.01957264375701253,-0.012454791883238118,-0.004847736167236432,0.002698166332941262,0.010060619750512676,0.018120186020907366,0.02776964383746763,0.03914353676485231,0.051703750915087124,0.06411719644178444,0.0742803180285617,0.0797960532972919,0.07984495353280648,0.0751486594329122,0.06707686055730623,0.05794104387196504,0.04986924499635907,0.04368086736766101,0.038911170090166376,0.03456952343907504,0.029591917150984408,0.023452454850466212,0.016787111267185014,0.010500902982127247,0.00476503439855567,-0.0005550108059277318,-0.005361396164287109,-0.009164922890338056,-0.011757676766515051,-0.013200814781808403,-0.0135065695414294,-0.01334757585901326,-0.013445421608038258,-0.014093606303916185,-0.01507200342350504,-0.01596479494561282,-0.016649669910791965,-0.017420165566117463,-0.01830072448301396,-0.01891221890959067,-0.01827626681892403,-0.016001485214914037,-0.012418101613936906,-0.008443350109525058,-0.00539808567895506,-0.004272926727528084,-0.005544846001526652,-0.008516730648127488,-0.011867747574418693,-0.0145950374689219,-0.01675974071869561,-0.019144593130609244,-0.022287693499971804,-0.025663175636685583,-0.028255929512862578,-0.028928579419163075,-0.027081855987889005,-0.022642363587772663,-0.01634392269750361,-0.009311683967542912,-0.0028664782269026807,0.0013528672749735294,0.0026003258663491115,0.0013650976162850224,-0.0013377300863286704,-0.004309616996829298,-0.0071347443393915974,-0.009862030460728484,-0.012515939816629261,-0.015059778364626396,-0.017420165566117463,-0.0192424313333016,-0.019890616029179527,-0.019120135466519316,-0.017432390624996106,-0.015500054049908325,-0.014289290255633542,-0.013910154957410114,-0.013897929898531471,-0.013078518915026116,-0.01090158306004112,-0.007782932808435846,-0.005018956417797747,-0.0038571071970695562,-0.004382996780798462,-0.005777215694745637,-0.006682234539631855,-0.0061808048838926715,-0.004407456708788183,-0.002169369147245725,-0.00022480109889655553,0.00118164777904548,0.0019765965706613205,0.002355726586451898,0.0026737064049515403,0.0033708154846084954,0.00447151450804575,0.005951342792640317,0.00774914787720147,0.009669259393410607,0.011246925880697532,0.012115259738715385,0.012262020815920243,0.01228647848001017,0.012849057578407028,0.014597942806988735,0.017386380634883087,0.020615101694392006,0.02368482907148478,0.025445946905277777,0.025017896278874494,0.022376219528185,0.01857269431140058,0.01507491630790452,0.013179270002117953,0.013472784610195026,0.01562526280109009,0.01843816583940701,0.02072517250229565,0.021556808544679645,0.020382735019706076,0.017398613240094372,0.013215960271419167,0.008519643532526967,0.0038722451403476795,0.00019101850702529837,-0.0015578694382361626,-0.001031980609140521,0.0008514376192343451,0.0027593157755989328,0.003713255231097859,0.003419735340587938,0.002441335957099291,0.0015363171122130717,0.001499627597545122,0.0027226262609309827,0.0051930835156924265,0.00834841724489954,0.011173545342095102,0.012433239557215028,0.011418144621992317,0.008605249130008038,0.005584443118161233,0.0037499455003990726,0.003713255231097859,0.005266464054294854,0.007871451290316397,0.010928946062197891,0.013986448380412023,0.016102236302005874,0.01609000369679459,0.013289333263688955,0.008042670031611182,0.0015118571842233505,-0.005202406255037288,-0.011109492070637121,-0.016172703956208824,-0.020489892943210238,-0.023657458522995375,-0.025186202135769796,-0.025198434740981084,-0.024317875824084585,-0.022960350952604947,-0.021333761590805522,-0.01956041115180124,-0.01783598358730946,-0.016405078177227393,-0.015218764500709898,-0.0145950374689219,-0.014203677111819829,-0.013702245946814115,-0.013066286309814832,-0.012418101613936906,-0.011672071169033977,-0.010754821982836267,-0.009641888844921198,-0.008284363973441558,-0.0067311543956112985,-0.004835506580558204,-0.003074387992131944,-0.0018146998140781332,-0.0012765798890377348,-0.001031980609140521,-0.0001025012325579694,0.0022578861198597486,0.005266464054294854,0.007443401418546377,0.007675774884931683,0.00598803306194153,0.0032240551620369034,0.0001420985755825292,-0.0027074890722861237,-0.004774356383267268,-0.006009585387964622,-0.007208124123360762,-0.008651259120121059,-0.009947643604542197,-0.010571370636330195,-0.01035122902052291,-0.009764192258036125,-0.008908091005229558,-0.007587256403051131,-0.005495925390913945,-0.0026341085336836953,0.0007169080152908777,0.004080154905576943,0.007259952335940099,0.010855565523595461,0.01609000369679459,0.023305701319594,0.03135303498477741,0.03828744305837838,0.04167514270763816,0.03985287694045402,0.032869553538673185,0.02276757988528707,0.0123109361441001,0.003896705068337401,-0.0011053603931096853,-0.0025851886777042525,-0.00193699945402674,-0.0009586000705380929,-0.0008240708439112574,-0.0020470695072971183,-0.004187317356880691,-0.006168574542581178,-0.006511015043703806,-0.004321847338140791,-0.0005794707339174531,0.002465795885089012,0.002563636351681162,-0.0007873805746100433,-0.0068779147181828905,-0.014313747919723471,-0.021260373505870452,-0.02607899365787758,-0.027766730953068152,-0.025761013839377938,-0.01981724303690974,-0.010595828300420126,0.00042338827570760987,0.011356996688601174,0.02070071483820572,0.0277451861733777,0.031854466149783114,0.0324904257867824,0.029542994276471907,0.02341577212749764,0.015136064241295662,0.005865733421992925,-0.0031110782614331583,-0.010767047041714911,-0.016282774764112464,-0.01913236052539796,-0.019646024295614958,-0.01894891672522453,-0.018239576549622816,-0.017994969723392963,-0.017848216192520746,-0.01689427673702182,-0.014643952797101756,-0.011647605958611407,-0.008345511906832703,-0.004896656777849139,-0.001460029726277277,0.0018420665894012212,0.004838414182524834,0.006978662786741671,0.00818943110881604,0.008311734521930967,0.0073211017785977705,0.00579235363802376,0.004483744094723978,0.004080154905576943,0.0047161145425762266,0.005865733421992925,0.007003122714731393,0.007810303356925254,0.007785838146502684,0.006905282248139242,0.005718973099421333,0.005156394001024476,0.0055232936755035605,0.006416082933711551,0.007357792047898984,0.00793259922370754,0.007663542279720398,0.006636222285619043,0.00496071382247344,0.0028938457568590324,0.0006190680769420129,-0.0015945597075373767,-0.0030010082081627803,-0.0032578385840047507,-0.002646338874995188,-0.0019125395260370188,-0.002291668787194332,-0.0042362372128601335,-0.007367114032610582,-0.010510222702939052,-0.012760539096526476,-0.01357995008003183,-0.013017370981634973,-0.011513077486617836,-0.009837572796638553,-0.008357744512043987,-0.007379343619288811,-0.00735488369129909,-0.008259906309351629,-0.009849797855517197,-0.011366316409412979,-0.01219795999812962,-0.012075656585014692,-0.011562000361130335,-0.01131740108123312,-0.012173502334039691,-0.01426482504521097,-0.017481313499508603,-0.021174767908389378,-0.02453801743989187,-0.02633582554298608,-0.025724323570076726,-0.022899195472881162,-0.018887761245500744,-0.014986397826023968,-0.012503707211417976,-0.011928895507809836,-0.012809461971038974,-0.0141302965732174,-0.015487828991029682,-0.016820896198419394,-0.017591384307412247,-0.016429535841317323,-0.01219795999812962,-0.0055937658575060945,0.002160046407900863,0.00968149199862189,0.01611446136088452,0.02081078564610936,0.023476920060888782,0.024785529604188568,0.02625313282990449,0.02972644562297798,0.03551123028936268,0.04183413639005431,0.04633477672356179,0.047692309141374074,0.0456988170865625,0.041332705225048595,0.03558461082796511,0.029114943650068625,0.022498515394967288,0.016261222438089373,0.010855565523595461,0.006660682213608765,0.003921164996327123,0.002441335957099291,0.00164638716548345,0.0009859676004944449,0.00017878854303043768,-0.00035933100469332874,-7.804122910492162e-05,0.001450706986932415,0.004067924564265451,0.007162111869347949,0.00991385867330782,0.011687209112312101,0.012469929826516242,0.01223755560549767,0.011149087678005175,0.009620336518898107,0.00816497344472611,0.0068441320508483075,0.005633362974140675,0.004838414182524834,0.004544894292014914,0.0042391448148267645,0.0031629057193792317,0.00047230820715037905,-0.0036125079171723425,-0.007856313347038275,-0.010228933153740625,-0.009580740911530055,-0.005752755012122652,9.317856867643363e-05,0.006244862683150237,0.01090448839810796,0.012910205511798169,0.012103027133504099,0.009021067151200038,0.0044225946520663065,-0.0008852202865689288,-0.00655993489968325,-0.01214903712361712,-0.01668636772642582,-0.019328036930782673,-0.019633791690403673,-0.018312949541892606,-0.01671082539051575,-0.015683505396414398,-0.015438906116517182,-0.016050400543093896,-0.017640299635592105,-0.020037384652717025,-0.022568983049170235,-0.024733693845276582,-0.025614252762173082,-0.024709236181186655,-0.022153165027978233,-0.018887761245500744,-0.015940337281522894,-0.014020225765313758,-0.012736081432436545,-0.011036111532034695,-0.008614576397152485,-0.006278645350484821,-0.005177945572414303,-0.005508155732225438,-0.0067678446649125125,-0.008125370291025417,-0.008834710466627128,-0.008443350109525058,-0.0069512945021520545,-0.004688747012619875,-0.0019247691127152475,0.001206107707035201,0.005070784630377083,0.010146225347993748,0.01588209468619859,0.02099422944628279,0.023880505476869495,0.024186260236490495,0.022804270154588285,0.021079842590096504,0.019526633766899507,0.01832809503150337,0.017484226383908084,0.01668927306449266,0.015588572531788875,0.01394975811111081,0.011760589650914529,0.010121767683903821,0.010195148222506249,0.012139717402805313,0.015025993433392022,0.017202936834709658,0.017459761173485515,0.015661953070391307,0.012677838837112241,0.00991385867330782,0.008067127695701112,0.006721832410899701,0.0053031535689628045,0.0036765649617966447,0.002123356893232913,0.0008147481045663952,-0.00018811113144864705,-0.000726230603709087,-0.0013132701583389488,-0.002377278912474989,-0.0042362372128601335,-0.006486554361080821,-0.008296596578652844,-0.009152690285126771,-0.009152690285126771,-0.008883633341139627,-0.008846943071838413,-0.00936059929572277,-0.010656976233811268,-0.01258932035523169,-0.0150108554901139,-0.01790936412591189,-0.021125852580209523,-0.023889825197681302,-0.025320738154096013,-0.025027215999686298,-0.02355962032030302,-0.022287693499971804,-0.02211647475867702,-0.022911428078092447,-0.02377975438977766,-0.0237308390615978,-0.022544525385080304,-0.02039204719418524,-0.017004347544925462,-0.012515939816629261,-0.007917461280429416,-0.004835506580558204,-0.004541986690048283,-0.006645545024963906,-0.009886488124818411,-0.012858377299218833,-0.014374895853114614,-0.013751168821326615,-0.011647605958611407,-0.008773562533235985,-0.0055937658575060945,-0.0023528189844852676,0.00118164777904548,0.005156394001024476,0.008800933081725394,0.01129584875521003,0.012543310365118668,0.01309365685830424,0.013289333263688955,0.01330156586890024,0.01327710820481031,0.013228185330297812,0.012995818655611882,0.01330156586890024,0.01500153576930209,0.018022340271882372,0.021691337016673216,0.024626535921772424,0.025494869779790277,0.023269011050292783,0.01869499017818287,0.01350947487949624,0.009192293438827465,0.006623992698940815,0.006391623005721829,0.008641939399309254,0.012971360991521954,0.018817293591297794,0.02548263717457899,0.031732162736668186,0.036832072437873745,0.04077013367298438,0.043729790242173515,0.045026167180262006,0.04398661458094937,0.040183089364164946,0.033970254071376965,0.026387653755565416,0.018425933234195727,0.011161320283216458,0.0053031535689628045,0.0009859676004944449,-0.001985919310006183,-0.004077247303610313,-0.005129026471068125,-0.004370767194120233,-0.0018024694727666406,0.0011571878510557585,0.0028326963142013607,0.002001056498651042,-0.0011665098357673566,-0.005447005534934502,-0.009091542351735628,-0.011305168476021837,-0.012552630085930477,-0.014277057650422257,-0.016771973323906893,-0.01942588267980767,-0.02154167060140152,-0.022568983049170235,-0.022703519067496448,-0.022923660683303735,-0.024134424477578516,-0.026323592937774795,-0.029038650227066715,-0.03154579850576264,-0.032768794905248706,-0.032475272750838995,-0.0307630777915585,-0.028353767715554933,-0.02573655617528801,-0.023743064120476446,-0.02315602735798966,-0.02425672789069344,-0.026543734553582082,-0.028830741216470716,-0.02980913833605957,-0.02933217238147643,-0.02785234409688186,-0.025846626983191654,-0.023669683581874018,-0.02150498033210031,-0.019805010431698456,-0.01859423909109103,-0.017505771163598534,-0.015659047732324467,-0.012014508651623549,-0.006388714649121935,0.0009492780858264948,0.009094447689802465,0.016554744592499088,0.021887020968390576,0.024455317180477637,0.02451646511386878,0.02285318548276814,0.02101868711037272,0.020823010704988005,0.023770442215298497,0.029971044902875194,0.037541412613475454,0.04336288754916137,0.04478156790036479,0.04096581007836909,0.033028547221089326,0.02364813880218357,0.015062683702693236,0.008397340119412039,0.004080154905576943,0.0015363171122130717,-0.0001025012325579694,-0.0014478001395990484,-0.002658568461673417,-0.003685887701141507,-0.004382996780798462,-0.004798816311256989,-0.005153486399057846,-0.005067876273777188,-0.0040894768902885415,-0.0020837590219650684,0.000276628405915976,0.002429106370421062,0.004006775121607779,0.005119703731723262,0.006208172413849024,0.007577929135906684,0.009106680295013752,0.010390832174223605,0.011246925880697532,0.011039016870101531,0.00954696352662832,0.006721832410899701,0.003113985863399789,-0.0004938608350267755,-0.003233377901381765,-0.005031186759109239,-0.006229725494505378,-0.007257044733973468,-0.008296596578652844,-0.009482902708837697,-0.01081596991622741,-0.012038966315713478,-0.013066286309814832,-0.014289290255633542,-0.015781343599106754,-0.017799293318008245,-0.02000069438341581,-0.02179850248651002,-0.022568983049170235,-0.022128707363888306,-0.020869020695101024,-0.01942588267980767,-0.018361872416405103,-0.01843525295500753,-0.0196582493544936,-0.02134598664968417,-0.021871875478779806,-0.02004960971159567,-0.015744653329805538,-0.009764192258036125,-0.0030376984774639943,0.0032852053593278386,0.008421797783501968,0.01157713830440846,0.012482154885394885,0.011589370909619744,0.009620336518898107,0.007516781957148806,0.006354932736420616,0.006868591978838028,0.009510273257327105,0.013790764428694669,0.01786335413579887,0.019563324036200723,0.017900044405100082,0.013154804791695384,0.006721832410899701,0.0003133183733638845,-0.004334076924819019,-0.0059973550466531295,-0.004431916636777905,-0.0004327109395891457,0.004569354220004635,0.008703087332700395,0.011149087678005175,0.012494387490606171,0.01353394008991881,0.014634633076289951,0.015967707830012303,0.017484226383908084,0.019477710892387007,0.021850330699089357,0.02352583538906864,0.02364813880218357,0.02219276818167893,0.019648929633681794,0.016811576477607587,0.014524562268386308,0.01366846856191238,0.01528282531850052,0.019734542777495506,0.026191977350180702,0.032025684891077905,0.03488750325757468,0.03362780904245476,0.028968182572863765,0.022388452133396283,0.015551882262487663,0.009962781547820319,0.006306012880441173,0.004618274075984078,0.0046060444893058486,0.0059268828646505956,0.007895908954406327,0.009192293438827465,0.008458488052803182,0.0047528040572441775,-0.0022794392005161036,-0.01131740108123312,-0.019670481959704885,-0.025173977076891153,-0.027766730953068152,-0.02847607112866986,-0.02873290301377836,-0.029393320314867574,-0.030860915994250854,-0.032732104635947494,-0.03430977112323442,-0.03465221615215663,-0.03324576840616449,-0.03006597022116807,-0.025920007521794082,-0.022055326825285878,-0.019548178546589957,-0.018973374389314457,-0.020061842316806956,-0.021859650419901164,-0.02322940789659209,-0.02362076825369416,-0.02341285924309816,-0.02336393636858566,-0.02433010842929587,-0.026164606801691297,-0.027460983739779794,-0.026323592937774795,-0.02203086916119595,-0.015341067913824825,-0.00805198975242299,-0.0017168593474859836,0.0031995952340471818,0.006880822320149521,0.009608111460019464,0.011699441717523386,0.013252650540720381,0.013961983169989454,0.013228185330297812,0.011026791811222887,0.00811605057021361,0.0057801232967122675,0.004985173750463162,0.0058901933499826455,0.008177198503604755,0.011259158485908817,0.014414499006815306,0.017105091085684657,0.019037435207105078,0.02028488927068108,0.020945314118102933,0.020871933579500505,0.019869071249489077,0.017851121530587585,0.014720246220103666,0.010451980107614747,0.005621133387462446,0.001499627597545122,-0.0009830607531610784,-0.001619019635527098,-0.0010564405371302425,0.0001543285395773899,0.0016586167521616786,0.003260745431338117,0.004740573715932684,0.0054866034062023466,0.005254233712983361,0.004728344129254456,0.005498833747513839,0.00892322894850768,0.015087141366783165,0.022180543122800284,0.027304902941763128,0.02838114581037698,0.024846677537579707,0.018169101349087224,0.010549818310307104,0.0036887953031081375,-0.001704629760807755,-0.005239096524338503,-0.007183664195371041,-0.008076454962845559,-0.008957013879742057,-0.010473532433637838,-0.012992905771212404,-0.016564064313310894,-0.020587731145902594,-0.024097734208277304,-0.026763868623056724,-0.028867431485771932,-0.030542936175751212,-0.03141127003376907,-0.03132565688995535,-0.030481788242360072,-0.02919763636315022,-0.026898404641382937,-0.022997033675573517,-0.017738145384617102,-0.012430326672815547,-0.008333279301621416,-0.0059851254599749,-0.00509233620176691,-0.005459235876245995,-0.0070980540700903835,-0.00961743118083127,-0.012308030806033262,-0.014325980524934756,-0.015487828991029682,-0.016001485214914037,-0.015634582521901898,-0.013726711157236685,-0.009849797855517197,-0.00462759681532894,0.0012794874910043654,0.007969289493008755,0.01627345504330066,0.026375428696686774,0.03640402181147046,0.043216126471956516,0.04484271583375593,0.04143054342774095,0.035217708134952966,0.02899264778328634,0.024626535921772424,0.022828727818678212,0.023464687455677497,0.025433714300066492,0.027757418778588984,0.02986097409497155,0.03132856977435483,0.031438640582258474,0.029971044902875194,0.027109226536378418,0.023794899879388424,0.021055384926006573,0.019514401161688223,0.01908635053528494,0.01882952619650908,0.017618754855901655,0.015111606577205734,0.011882885517696815,0.008813158140604039,0.006807442536180357,0.006758522680200915,0.008091592906123681,0.009118912900225037,0.007993754703431324,0.0038355548710464656,-0.0028175583709232374,-0.010290081087131767,-0.016857586467720606,-0.021297071321504307,-0.022997033675573517,-0.02223877817179195,-0.02004960971159567,-0.01739570035569489,-0.014815179084729183,-0.012943990443032545,-0.012662700893834117,-0.015218764500709898,-0.02062442141520381,-0.027412060865267294,-0.03340475454224799,-0.03711044155634005,-0.03870034064883827,-0.03890824965943426,-0.038198909483832554,-0.03708597634591748,-0.0359241354261552,-0.03488458282684256,-0.033343606608856845,-0.030922063927641998,-0.02792572463548429,-0.024623623037372946,-0.021101387369786954,-0.01751800376880982,-0.01426482504521097,-0.011513077486617836,-0.009128232621036842,-0.0070980540700903835,-0.004713206185976333,-0.0007506906071621348,0.004838414182524834,0.011026791811222887,0.01611446136088452,0.01891513179399015,0.01906189287119501,0.016518054323197872,0.012078569469414172,0.006966432445430179,0.002429106370421062,-0.0004327109395891457,-0.0011053603931096853,3.202865059980587e-05,0.0020622066959419777,0.004031235049597501,0.005462143478212626,0.006599532016317829,0.008275044252629753,0.01132030641929996,0.016542511987287803,0.02344022979158757,0.030289024721374836,0.035107644873381964,0.03642847947556039,0.03415370541788304,0.029714213017766694,0.024883367806880923,0.02062732675327065,0.01712955629610723,0.014377808737514092,0.012249788210708957,0.010476437771704677,0.008825390745815323,0.007394481562566934,0.006049183259232467,0.004740573715932684,0.003615415519138973,0.0027593157755989328,0.002049977109263749,0.0014629373282439076,0.0005946081489522915,-0.0005917007733756402,-0.001985919310006183,-0.00346574759460075,-0.004933346292517089,-0.006376485062443707,-0.0075750237978398464,-0.008492272984037558,-0.0092749936982417,-0.009507360372927627,-0.008822485407748486,-0.007513874355182175,-0.006535474971693528,-0.0069512945021520545,-0.008687949389422273,-0.01107280180133591,-0.012846152240340188,-0.01311520918432733,-0.012038966315713478,-0.01035122902052291,-0.008834710466627128,-0.007782932808435846,-0.007305964589952911,-0.007342654104620862,-0.007941926490851988,-0.009446212439536484,-0.011855522515540048,-0.014436043786505757,-0.016148246292118893,-0.016576296918522176,-0.016099323417606393,-0.01525545477001111,-0.014142529178428686,-0.012895067568520047,-0.011708761438335191,-0.010828202521438693,-0.01081596991622741,-0.01139078161983555,-0.012161269728828404,-0.012723848827225262,-0.01279722936582769,-0.012418101613936906,-0.01178214197693762,-0.011097259465425837,-0.010436842164336624,-0.009311683967542912,-0.007489413672559189,-0.004798816311256989,-0.0010931300517981924,0.003505345465868595,0.008495178322104396,0.013228185330297812,0.0170072528829923,0.01997914205739272,0.022596361143992286,0.02561716564657256,0.028760273562267766,0.03157317660058469,0.033652274252877326,0.03482635532418354,0.03488750325757468,0.03393356380207575,0.032355889768456186,0.030814913550470478,0.02999550256696512,0.030019960231055052,0.030178953913471192,0.02970198795888805,0.027940862578762413,0.025225812835803135,0.022094929978986575,0.019123040804586156,0.016542511987287803,0.014328885863001593,0.012225330546619027,0.009999471817121533,0.007675774884931683,0.004667193931963521,0.0002643984419211153,-0.00539808567895506,-0.01141523928392548,-0.01684535386250932,-0.020710027012684883,-0.022251010777003234,-0.021725121947907593,-0.020061842316806956,-0.01850863349360996,-0.017933821790001817,-0.018374105021616387,-0.019438107738686313,-0.020869020695101024,-0.022617905923682735,-0.02422003762139223,-0.02474592645048787,-0.023082646819387233,-0.018471943224308746,-0.011121717129515766,-0.003172228458724094,0.003040606079430625,0.006110332701890138,0.0056700532434418895,0.0026003258663491115,-0.001619019635527098,-0.005544846001526652,-0.008321054242742773,-0.010045481807234554,-0.01139078161983555,-0.013139666848417261,-0.015524519260330895,-0.018606471696302317,-0.022568983049170235,-0.027253074729183795,-0.03193715886286471,-0.03614426949562984,-0.03938522316035004,-0.041256404255714044,-0.04159884173830361,-0.0400578655203179,-0.036645700660635556,-0.03152134084167271,-0.025198434740981084,-0.01874100016829589,-0.01334757585901326,-0.009690811719433699,-0.007917461280429416,-0.006828994107570184,-0.005434775948256273,-0.002952088352183337,0.0011449575097442657,0.0068441320508483075,0.01394975811111081,0.022449600066787426,0.03205014255516783,0.041687375312849446,0.05013830948667885,0.0563266871153769,0.06011797972695004,0.06249060707998503,0.06505890329207209,0.06847107569808708,0.07222568558669164,0.0750630462890985,0.07558897284985734,0.07281272234917843,0.06667326004866024,0.05833240422906711,0.04934335616726342,0.04064783025986945,0.032869553538673185,0.025959603129162137,0.019893528913579005,0.014243280265520521,0.008593024071129395,0.002991686223451182,-0.0020715294352868395,-0.005875055406704522,-0.00821098343483913,-0.00961743118083127,-0.010803744857348765,-0.012381411344635688,-0.014631727738223112,-0.017273404488912604,-0.01992731384481338,-0.021835192755811236,-0.022177630238400806,-0.0210035491670946,-0.01937695980529517,-0.0185208585524886,-0.01916905079469917,-0.021382676918985377,-0.024134424477578516,-0.026458121409768366,-0.027681117809254436,-0.027681117809254436,-0.026996242844075296,-0.026348050601864723,-0.026470354014979654,-0.02735091293187615,-0.02894081202437436,-0.030970986802154498,-0.03271987957706885,-0.03363712121693392,-0.03336806427294677,-0.03243858248153778,-0.03166810191887756,-0.031631411649576356,-0.03213283526824942,-0.032768794905248706,-0.03350259274494035,-0.03416301004602956,-0.03421193292054206,-0.032805485174549925,-0.029919209143963215,-0.02609122626308887,-0.022361081584906878,-0.019780545221275883,-0.018288491877802675,-0.01721225655552146,-0.01583026647361925,-0.013946845226711328,-0.01157423296634162,-0.008749104869146056,-0.006095195513245278,-0.004260697140849855,-0.0034535180079225216,-0.0033312183679739147,-0.003172228458724094,-0.002328359056495546,-0.0004082509361360978,0.0026125562076606047,0.006342703149742388,0.010085077414602607,0.013081424253092954,0.015441811454584021,0.018144643684997297,0.022266148720281355,0.0277451861733777,0.03399471173546689,0.03993849008426774,0.04425567907126915,0.04572327475065244,0.043876551319378364,0.039510439457864456,0.0340436346099794,0.028796963831568982,0.024809987268278495,0.022461832671998715,0.021630189083282073,0.022253923661402712,0.023868280417990852,0.025776159328988704,0.026864627256481203,0.02576392672377742,0.022253923661402712,0.017043943152293517,0.01145483489129353,0.006795212194868864,0.004288064670806207,0.004092385246888436,0.005364303766253739,0.006929742176128964,0.00803044497273254,0.008201663714027325,0.007333332119909263,0.005511064088825333,0.003077295594098575,0.0004356182397024706,-0.002206059416546939,-0.004578676959349498,-0.006095195513245278,-0.006486554361080821,-0.006082965171933786,-0.005520385318903666,-0.005422545606944781,-0.006046275657265837,-0.007159203512748055,-0.008785795138447272,-0.01074258937762498,-0.012833919635128902,-0.01449719926622954,-0.015536744319209539,-0.015805808809529323,-0.015524519260330895,-0.015414448452427253,-0.015744653329805538,-0.01634392269750361,-0.016735283054605678,-0.016429535841317323,-0.015426673511305895,-0.013934620167832687,-0.012344721075334476,-0.011146182339938335,-0.010436842164336624,-0.009837572796638553,-0.008981471543831986,-0.007587256403051131,-0.0062541854224950994,-0.005202406255037288,-0.0041261671595897555,-0.0025240392350465816,-0.0002003410954435077,0.002355726586451898,0.004447054580056028,0.005645593315452168,0.00612256304320163,0.006318243221752666,0.006599532016317829,0.007162111869347949,0.008201663714027325,0.009742639932013035,0.011650518843010885,0.013472784610195026,0.01507491630790452,0.01627345504330066,0.016958337554812443,0.01719070422949837,0.0170561757575048,0.01622453216878816,0.01450010460429638,0.0121519500080166,0.009962781547820319,0.008446262993924538,0.007614619405207899,0.007418941490556655,0.0076023943463292545,0.007724690213111541,0.007480091687847592,0.006636222285619043,0.005682282830120118,0.0054866034062023466,0.006611762357629323,0.008641939399309254,0.010684346782300675,0.011564905699197173,0.010684346782300675,0.008397340119412039,0.005608903046150953,0.0032852053593278386,0.001731997290764107,0.0007902881765766738,0.0002888584453741631,-0.00015142116400073858,-0.0007873805746100433,-0.0016557099048283123,-0.002658568461673417,-0.004138397500901249,-0.006082965171933786,-0.008528963253338772,-0.011036111532034695,-0.013078518915026116,-0.014313747919723471,-0.014876327018120326,-0.0150108554901139,-0.014925249892632825,-0.014754023605005398,-0.01449719926622954,-0.0143382055838134,-0.015206539441831254,-0.017371242691604963,-0.020575498540691312,-0.023963205736283733,-0.026445896350889724,-0.027277532393273723,-0.02638474087116594,-0.02458693276807173,-0.022556757990291592,-0.020710027012684883,-0.019071212592006816,-0.016955424670412965,-0.014301515314512186,-0.011806599641027548,-0.009849797855517197,-0.008651259120121059,-0.008296596578652844,-0.008480040378826274,-0.008651259120121059,-0.0086023437919412,-0.008088680021724203,-0.0072448143926619754,-0.006364254721132214,-0.005520385318903666,-0.004811046652568482,-0.0041995469435589195,-0.003869337538381049,-0.003869337538381049,-0.0035880479891826213,-0.0023161287151840532,0.0005212282140564746,0.0051930835156924265,0.010782192531325674,0.016151151630185732,0.020199283673200005,0.022584128538780997,0.02422295050579171,0.025959603129162137,0.027268212672461916,0.026852394651269915,0.02419849284170178,0.01993021918288022,0.015368438462314234,0.012005188930811742,0.010292986425198606,0.00954696352662832,0.009131137959103681,0.008458488052803182,0.0076023943463292545,0.006734062752211193,0.005633362974140675,0.0043859043827650926,0.003627645105817202,0.0032362855033483957,0.002881616170180804,0.002441335957099291,0.002698166332941262,0.004581584561316128,0.00818943110881604,0.012029646594901673,0.014145434516495524,0.013680693620791025,0.011405919563113674,0.008800933081725394,0.007370021634577214,0.007920374164828896,0.009608111460019464,0.010476437771704677,0.008727552543122966,0.0038355548710464656,-0.002780868856255288,-0.008957013879742057,-0.013237505051109617,-0.015169841626197398,-0.015023088095325182,-0.013384266128314474,-0.010583603241541482,-0.0067678446649125125,-0.002193829075235447,0.002588096279670883,0.006623992698940815,0.009118912900225037,0.009485808046904536,0.007382251975888706,0.003346355556618774,-0.001349959673006899,-0.005324706649619159,-0.00786854595224956,-0.008516730648127488,-0.007257044733973468,-0.004321847338140791,-0.00027372103033932463,0.004434824238744535,0.009363512180122251,0.013228185330297812,0.013888602631387024,0.00954696352662832,0.0005212282140564746,-0.01060806090563141,-0.019670481959704885,-0.022556757990291592,-0.017848216192520746,-0.006780074251590742,0.006758522680200915,0.017924502069190013,0.02334239158889521,0.022156077912377718,0.01627345504330066,0.00853186859140561,0.0012183372937134298,-0.003954946909028442,-0.006339794793142492,-0.006498784702392313,-0.0052635556976949605,-0.0034535180079225216,-0.0018024694727666406,-0.0009096802145586501,-0.0011420499077776352,-0.0029276284241936163,-0.006780074251590742,-0.012479249547328047,-0.0187776904375971,-0.02385313492838009,-0.025406343751577083,-0.02198194628668345,-0.014007993160102473,-0.004407456708788183,0.0036031851778274807,0.00837288245532211,0.010023929481211464,0.009705949662711821,0.00818943110881604,0.006232633096472009,0.004165764276224336,0.0019276767146818778,-0.0009586000705380929,-0.004994496489808025,-0.009715269383523626,-0.014582804863710613,-0.018704309898994673,-0.021260373505870452,-0.021945256017382234,-0.02166396646818381,-0.022299926105183093,-0.024904912586571373,-0.029173178699060286,-0.03384503777386256,-0.03730611796172477,-0.03821113454271119,-0.03605866389814877,-0.03128896662065414,-0.02412219187236723,-0.014802946479517897,-0.00406501696229882,0.00656284250164988,0.014977078105212163,0.019184188737977295,0.01848708116758687,0.013986448380412023,0.007871451290316397,0.002551406010369669,0.00017878854303043768,0.002160046407900863,0.008959919217808894,0.019905761518790293,0.03321199102126275,0.04555205600935765,0.053024585517265556,0.05414974371405926,0.05030952822797363,0.04470818736176236,0.04085573927046545,0.040831281606375516,0.04403553745546187,0.04755777312304786,0.04819374030637979,0.04419453113787801,0.035816985048983674,0.024846677537579707,0.013607313082188597,0.0036398754471286946,-0.004554217031359776,-0.01107280180133591,-0.016392845572016108,-0.02101578177230588,-0.02500275078926373,-0.02839045798485615,-0.030787535455648427,-0.03166810191887756,-0.030873148599462143,-0.028622832205874717,-0.025394111146365802,-0.021480522668010378,-0.017016572603804108,-0.012295798200821976,-0.0075750237978398464,-0.0033801382239533576,-0.00018811113144864705,0.001964366983983092,0.0027593157755989328,0.0019399070559933708,0.00019101850702529837,-0.0016434795635168196,-0.002621878947005467,-0.002218289003225168,-0.0007140006397142263,0.0008025177632549025,0.0013284073469838082,0.0008514376192343451,0.00021547851047834616,0.0003010884093690238,0.0013528672749735294,0.00280823638621164,0.0039089354096488935,0.003921164996327123,0.0023068067304724557,-0.000921910555870143,-0.005764985353434144,-0.01107280180133591,-0.014998622884902613,-0.01613601368690761,-0.014277057650422257,-0.010155552615138196,-0.005495925390913945,-0.0021571395605674967,-0.001619019635527098,-0.002768638514943795,-0.0034535180079225216,-0.002621878947005467,-0.0007629206466203219,0.0013039474189940868,0.0027593157755989328,0.0031629057193792317,0.0024535662984107834,0.00041115831171274916,-0.0025974190190157453,-0.005777215694745637,-0.008492272984037558,-0.009996558932722055,-0.01026562342304184,-0.009690811719433699,-0.009030394418344485,-0.008846943071838413,-0.009152690285126771,-0.009874263065939769,-0.010656976233811268,-0.011354091350534334,-0.012112346854315907,-0.013286427925622115,-0.015182074231408684,-0.017725912779405818,-0.02007407492201824,-0.021211458177690597,-0.02101578177230588,-0.019939538903692027,-0.018423020349796246,-0.016674135121214535,-0.014827404143607828,-0.01279722936582769,-0.010522447761817696,-0.00795415154973063,-0.0053369362362973875,-0.0025118088937350885,0.0009248181578367735,0.0046427340039737995,0.007883683895527682,0.010011696876000177,0.011185777947306389,0.011980731266721814,0.012959128386310668,0.014451189276116522,0.016469131448685375,0.019037435207105078,0.02182587303499943,0.02425964077509292,0.02566608852108506,0.025702778790386276,0.024235175564670353,0.021422280072686074,0.017851121530587585,0.014108744247194308,0.010610966243698249,0.00811605057021361,0.00745563175985787,0.00922898370812868,0.01348501721540631,0.019123040804586156,0.024540930324291353,0.028050933386666057,0.028552364551671768,0.026436576630077917,0.022975488895883068,0.019465478287175726,0.016909414680299946,0.015502966934307805,0.014744703884193593,0.013839687303207166,0.012482154885394885,0.010990101541921673,0.009583646249596893,0.008397340119412039,0.007675774884931683,0.007333332119909263,0.006795212194868864,0.005706743512743103,0.004593814147994356,0.004129074761556386,0.004031235049597501,0.003542034980536545,0.0023068067304724557,0.0006557580443899213,-0.0010686701238084712,-0.0027441785869540738,-0.004444146978089398,-0.00654770531300502,-0.008944781274530772,-0.011513077486617836,-0.013946845226711328,-0.015597892252600684,-0.016246084494811252,-0.016258317100022537,-0.01613601368690761,-0.015891414407010397,-0.015157616567318753,-0.014166986842518613,-0.013469879272128187,-0.013420956397615688,-0.013995768101223828,-0.014741798546126755,-0.015328835308613538,-0.015744653329805538,-0.01616047135099754,-0.016478451169497182,-0.016723050449394393,-0.016833121257298037,-0.016723050449394393,-0.016600754582612107,-0.016625212246702038,-0.016649669910791965,-0.016380612966804823,-0.015536744319209539,-0.014191444506608543,-0.012503707211417976,-0.010314538751221698,-0.007856313347038275,-0.0058505954787148005,-0.004896656777849139,-0.005018956417797747,-0.005887285748016015,-0.0069512945021520545,-0.007697319664622133,-0.0077707002032245615,-0.007049134214110941,-0.005813905209413587,-0.0041628574288909695,-0.000921910555870143,0.005205313857003919,0.01403536370859188,0.02401504149519571,0.0327472576718909,0.03793276542424488,0.03836082359698081,0.0346673616417674,0.02873581589817784,0.02290210835728064,0.01882952619650908,0.0170561757575048,0.017043943152293517,0.017936734674401298,0.018841751255387725,0.019392097748573298,0.01984461358539915,0.02044388295309722,0.02120213845687879,0.021887020968390576,0.022217225845768858,0.022315071594793855,0.022168310517589,0.021532350880589718,0.020162593403898792,0.018120186020907366,0.014793626758706092,0.009400202449423465,0.0025758659383593907,-0.004150627087579477,-0.009213845764850554,-0.012075656585014692,-0.013482104331006831,-0.014754023605005398,-0.017481313499508603,-0.021994178891894735,-0.02732645526778622,-0.03137457976446786,-0.03209614499894821,-0.02954008139207243,-0.025565329887660585,-0.023058189155297306,-0.02370637385117523,-0.02697178517998536,-0.03103213473554564,-0.03372273436074763,-0.03368604409144642,-0.030359492375577786,-0.024807074383879017,-0.019107902861308028,-0.014851869354030397,-0.01295621550191119,-0.013396498733525759,-0.016050400543093896,-0.019768320162397244,-0.022960350952604947,-0.024623623037372946,-0.02398766340037366,-0.021284838716293022,-0.01726117188370132,-0.012736081432436545,-0.007782932808435846,-0.002181599488557218,0.0034931151245571022,0.008727552543122966,0.01309365685830424,0.016371293245993016,0.018315862426292084,0.01887844152468894,0.01791226946397873,0.015600805137000162,0.01223755560549767,0.008678629668610468,0.006244862683150237,0.00612256304320163,0.008593024071129395,0.013032508924913096,0.018951822063291365,0.02504235394296442,0.02942069086335698,0.03060700453987448,0.028307765271774553,0.02320786311690164,0.016591434861800303,0.009889401009217891,0.003933395337638615,-0.0006895406362611786,-0.003979407591651427,-0.006413174577111656,-0.008382202176133915,-0.01000879153793334,-0.011305168476021837,-0.012222417662219548,-0.012736081432436545,-0.012626010624532903,-0.011525310091829121,-0.008846943071838413,-0.0038815678796925417,0.0039456249243168436,0.014218815055097951,0.02511573448156685,0.0342515436205754,0.039755038737761664,0.041283789896868726,0.03970611586324917,0.03641625441668175,0.03297962434657683,0.030668152473265622,0.029714213017766694,0.02921278185276098,0.028124313925268485,0.02558047537727135,0.020896391243590433,0.014255505324399165,0.006587302429639601,-0.0012521199610480134,-0.008639034061242414,-0.01514538396210747,-0.020294208991492885,-0.023767521784566373,-0.0256020201569618,-0.026482579073858294,-0.027130771316068867,-0.02765666014516451,-0.027962407358452863,-0.02865952247517593,-0.03037171743445643,-0.03306231705965842,-0.03600974102363627,-0.038321212896947475,-0.03928737741132505,-0.038810411456741904,-0.03730611796172477,-0.03538601399184827,-0.03342921220633792,-0.031227818687262994,-0.02854945166727229,-0.02557756249287187,-0.02281358987540009,-0.02051435060730017,-0.0185697814270011,-0.016490683774708463,-0.013726711157236685,-0.010314538751221698,-0.006694464126310085,-0.0030866183334434367,0.0008025177632549025,0.005180853929014198,0.009620336518898107,0.013069199194214311,0.015136064241295662,0.01578425648350623,0.015613037742211448,0.015392896126404163,0.016200074504698233,0.018670532514092942,0.021923711237691785,0.02474883933488735,0.026399886360776705,0.02613082187045692,0.023807124938267067,0.020162593403898792,0.016542511987287803,0.013741849100514809,0.01191957578699803,0.011161320283216458,0.01155268064031853,0.012910205511798169,0.014818084422796021,0.01687272441099873,0.01843816583940701,0.018658299908881654,0.0172640847681008,0.015038226038603306,0.012482154885394885,0.010207380827717534,0.008519643532526967,0.007883683895527682,0.008507410927315683,0.010219605886596178,0.012494387490606171,0.014353343527091523,0.01509937397199445,0.014744703884193593,0.013729616495303524,0.012225330546619027,0.010244071097018748,0.007651309674509113,0.004447054580056028,0.00046007824315551834,-0.0039427173223502135,-0.008235441098929059,-0.011831057305117479,-0.0145950374689219,-0.016674135121214535,-0.018349639811193818,-0.019597101421102457,-0.02000069438341581,-0.01918128339991046,-0.017248946824822677,-0.014582804863710613,-0.011647605958611407,-0.009042619477223129,-0.007526103941860403,-0.007452723403257975,-0.008516730648127488,-0.009959868663420841,-0.010803744857348765,-0.010033249202023269,-0.007208124123360762,-0.003025468890785766,0.0009859676004944449,0.0035787252498377595,0.004593814147994356,0.004214684886837043,0.003101755522088296,0.0015607770402027933,-0.0003715609686881894,-0.002768638514943795,-0.005508155732225438,-0.008284363973441558,-0.011023878926823409,-0.013359808464224545,-0.01493747495151147,-0.015891414407010397,-0.01671082539051575,-0.017432390624996106,-0.017970512059303032,-0.01770145511531589,-0.016588521977400822,-0.014656185402313043,-0.012369178739424405,-0.01016777767401684,-0.008015307029454416,-0.005410316020266552,-0.0025484991630363024,0.0003010884093690238,0.0027103959196194904,0.004593814147994356,0.006012493744564517,0.006941972517440457,0.007663542279720398,0.008446262993924538,0.009167828228404893,0.009767097596102964,0.01009731001981389,0.010011696876000177,0.009326821910821036,0.008360649850110825,0.006697372482909979,0.004190224204214057,0.0014751669149221363,-0.00028595106979751174,-0.0005550108059277318,0.0008514376192343451,0.0035175750525468234,0.006648452626930536,0.009510273257327105,0.011699441717523386,0.012763444434593313,0.012384316682702528,0.010696579387511961,0.008067127695701112,0.005449913891534397,0.003615415519138973,0.0030039158101294104,0.003615415519138973,0.0048995643798157695,0.0062570930244617295,0.0072110317253273925,0.0076023943463292545,0.007394481562566934,0.00689305190682775,0.006660682213608765,0.00774914787720147,0.011234700821818887,0.017692135394504083,0.02562939825178385,0.03203790994995655,0.03470405191106861,0.032991856951788114,0.027806334106768842,0.02057841142509079,0.013105889463515525,0.007039812229399342,0.0036398754471286946,0.0033341252153072814,0.0051930835156924265,0.00745563175985787,0.008495178322104396,0.007480091687847592,0.004495974436035471,-7.804122910492162e-05,-0.005361396164287109,-0.010779279646926194,-0.015940337281522894,-0.021113619974998235,-0.02682502410278051,-0.03298893652105599,-0.03857803723572333,-0.04147654587152133,-0.04030246480021512,-0.035557232733143054,-0.029430010584168786,-0.02419557241096966,-0.021101387369786954,-0.020208603394011815,-0.020917936023280882,-0.02223877817179195,-0.023486239781700585,-0.02398766340037366,-0.022874737808791235,-0.01979277782648717,-0.015426673511305895,-0.010510222702939052,-0.005936205603995459,-0.0020837590219650684,0.0014629373282439076,0.005474373064890853,0.009767097596102964,0.013937525505899523,0.018120186020907366,0.022706431951895926,0.0273293681521857,0.030973899686553976,0.03246596057635983,0.031377492648867335,0.028466758954190697,0.024479774844567568,0.019575556641412008,0.014120976852405594,0.009131137959103681,0.005963572379318546,0.005046323947754098,0.005266464054294854,0.005572213531483004,0.005437683550222904,0.00476503439855567,0.003554265321848038,0.0016830774347846643,-0.0006406207048184094,-0.002964317938861566,-0.004725436527287826,-0.005838365137403308,-0.006388714649121935,-0.0066577746116421345,-0.006706694467621577,-0.006229725494505378,-0.00492111670583886,-0.002646338874995188,0.0009125878165252806,0.005254233712983361,0.008935461553718965,0.01035414190492239,0.008739777602001609,0.00447151450804575,-0.0009586000705380929,-0.005911745676005737,-0.009238303428940485,-0.010314538751221698,-0.009715269383523626,-0.00846781531994763,-0.007648404336442274,-0.007795165413647131,-0.00938506450614534,-0.012344721075334476,-0.016099323417606393,-0.019621559085192385,-0.022226545566580665,-0.02377975438977766,-0.02426896049590473,-0.023522922504669162,-0.02154167060140152,-0.018863303581410817,-0.015659047732324467,-0.012234650267430834,-0.009128232621036842,-0.007061364555422433,-0.006413174577111656,-0.0067311543956112985,-0.007269274320651697,-0.007660636941653559,-0.0076117140671410595,-0.0070246742861212194,-0.006082965171933786,-0.004541986690048283,-0.002132679632577775,0.0010960376537648229,0.0047894943265453915,0.008421797783501968,0.011442609832414886,0.01353394008991881,0.014402266401604023,0.014145434516495524,0.013008043714490526,0.011418144621992317,0.009962781547820319,0.009400202449423465,0.009828253075826748,0.011185777947306389,0.013032508924913096,0.014646865681501236,0.015588572531788875,0.015943242619589734,0.016077771091583305,0.015869862080987306,0.015087141366783165,0.013570622812887383,0.012017413989690386,0.011100172349825316,0.011112397408703959,0.011760589650914529,0.012103027133504099,0.011393686957902388,0.00922898370812868,0.005914653277972367,0.002563636351681162,0.0005946081489522915,0.0006068381129471521,0.002282346802482734,0.00476503439855567,0.006966432445430179,0.007969289493008755,0.007577929135906684,0.005877963008671152,0.003505345465868595,0.001450706986932415,0.0004356182397024706,0.00046007824315551834,0.001206107707035201,0.0021478168212226345,0.0031995952340471818,0.004520434364025192,0.006024723331242745,0.0074311718318681485,0.008152740839514826,0.007810303356925254,0.006758522680200915,0.005743433782044317,0.004654964345285292,0.0026125562076606047,-0.0008240708439112574,-0.00539808567895506,-0.010021024143144625,-0.01378785909062783,-0.016612987187823395,-0.018704309898994673,-0.02041651240460781,-0.021810727545388663,-0.022409996913086733,-0.02184741781468988,-0.020722259617896168,-0.020208603394011815,-0.020820097820588527,-0.022409996913086733,-0.0237308390615978,-0.023877592592470017,-0.022520067720990376,-0.020428745009819095,-0.018728775109417246,-0.017383475296816248,-0.015732428270926895,-0.013261970261532188,-0.010021024143144625,-0.006926834574162334,-0.0052635556976949605,-0.005410316020266552,-0.007257044733973468,-0.010082172076535768,-0.012870609904430116,-0.01483963674881911,-0.01512092629801754,-0.012809461971038974,-0.007550566133749917,-0.0004327109395891457,0.006746292338889421,0.012408774346792458,0.01611446136088452,0.0185604617061893,0.020492798281277078,0.021960401506993,0.022999946559973,0.023856047812779568,0.024834444932368423,0.02573946905968749,0.026436576630077917,0.02701138833368606,0.027084761325955845,0.026436576630077917,0.025091276817476922,0.023122249973087927,0.02093308151289165,0.018609384580701795,0.01611446136088452,0.01330156586890024,0.009840478134705392,0.0055232936755035605,0.0006435280049317343,-0.0036981180424529993,-0.006645545024963906,-0.008162060560326631,-0.008480040378826274,-0.008259906309351629,-0.00795415154973063,-0.007489413672559189,-0.0068045341795804635,-0.005764985353434144,-0.0043463072661305115,-0.0027441785869540738,-0.0014967199955784913,-0.0005917007733756402,0.00019101850702529837,0.0011938773657237086,0.0027715461169104255,0.004740573715932684,0.007039812229399342,0.010843340464716817,0.0174230709041843,0.027292677882884486,0.03970611586324917,0.05177712390735691,0.059848922782962895,0.061573350347454675,0.05666912459796647,0.04607795238478593,0.03140195031295726,0.01486700729730852,-0.0011787401770788491,-0.01468064306640297,-0.024709236181186655,-0.03125227635135293,-0.03481120228824013,-0.035814064618251554,-0.03495796336544499,-0.033441444811549204,-0.03251196302014021,-0.032683181761435,-0.03394287597655492,-0.03552054246384184,-0.03708597634591748,-0.0386025024461459,-0.039788808576330756,-0.04025354947203526,-0.03958089956573476,-0.037477344249352194,-0.03418747525645213,-0.03011488554934793,-0.025638717972595655,-0.020832330425799808,-0.015634582521901898,-0.010118862345836982,-0.0041261671595897555,0.0021478168212226345,0.007712465154232897,0.011833970189516957,0.01429219559370038,0.01465909828671252,0.012946895781099383,0.009950548942609036,0.006501693058992208,0.003431965681899431,0.0008758975472240666,-0.0009708304118495856,-0.0014355697982875557,-0.00038379093268305005,0.0015607770402027933,0.0036398754471286946,0.004887334038504277,0.005107474145045033,0.0045326647053366845,0.003529805393858316,0.002954995954149968,0.003652105033806923,0.005596673459472725,0.007785838146502684,0.009449117777603322,0.010207380827717534,0.009926091278519105,0.00892322894850768,0.0077736130876240395,0.00689305190682775,0.006648452626930536,0.007186571797337671,0.007944831828918825,0.008458488052803182,0.00853186859140561,0.008103817965002326,0.007052042570710835,0.005535524016815054,0.0037866350150670227,0.0022089662638803058,0.0013161777603055795,0.0011449575097442657,0.001132727923066037,0.0006557580443899213,-0.00024926110234960326,-0.0010197502678290283,-0.0011909705183903421,-0.0008974506278804214,-0.00035933100469332874,0.0002521684024629282,0.0007169080152908777,0.0006924480118378299,-4.661311565669753e-06,-0.001667939491506541,-0.004505297175380333,-0.008614576397152485,-0.0135065695414294,-0.017994969723392963,-0.02108915476457567,-0.02297257601148359,-0.02437902375747573,-0.02589554231137151,-0.027204151854671295,-0.027889034366183077,-0.027571054547683434,-0.02631136033256351,-0.024623623037372946,-0.023058189155297306,-0.021529437996190236,-0.01957264375701253,-0.01721225655552146,-0.014533889535530755,-0.011720986497213835,-0.008932548669319487,-0.0063275652064642635,-0.0040894768902885415,-0.0024873489657453673,-0.0011909705183903421,0.00011763857212948142,0.0017931467334217782,0.004092385246888436,0.007027582642721114,0.010684346782300675,0.014854774692097237,0.01972231017228422,0.025360341307796706,0.03129188705138626,0.036868762707174964,0.04106364828106145,0.04305714033587301,0.042531251506777376,0.039730581073671736,0.035376701817369106,0.031071745435578974,0.028466758954190697,0.028050933386666057,0.029506304007170695,0.03135303498477741,0.032172445968282753,0.031463105792681044,0.03000773517217641,0.028882576975382695,0.02871135823408791,0.02964084002549691,0.03110843570488019,0.031732162736668186,0.03000773517217641,0.02587399753168106,0.020089212865296364,0.013900835236598309,0.008544101196616895,0.005058553534432327,0.0035664949085262663,0.003419735340587938,0.003823325284368237,0.004116845174878157,0.00373771515908758,0.002979455882139689,0.0022945763891609626,0.002086666623931699,0.0021722767492123557,0.0019154471280036492,0.0004845381711452397,-0.0029765482801730587,-0.008333279301621416,-0.01472956594091547,-0.02101578177230588,-0.026348050601864723,-0.030653006983654855,-0.034224165525753344,-0.03752625957753205,-0.04097511470651562,-0.044375046960986674,-0.04744478188441209,-0.04978070387548059,-0.050685728002799656,-0.04982962674999309,-0.0473469361353871,-0.04348226298521154,-0.038883784449011694,-0.03421193292054206,-0.029662377258854716,-0.02500275078926373,-0.020404279799396526,-0.016013717820125322,-0.011977818382322335,-0.007807390472525775,-0.003526897791891686,0.00010540860813462074,0.0026492464769618186,0.004031235049597501,0.004177994617535829,0.002698166332941262,-0.00035933100469332874,-0.004639827156640433,-0.008969238938620701,-0.011610923235642836,-0.011109492070637121,-0.007232584805983746,-0.0007629206466203219,0.006770752266879143,0.01343609434089381,0.018120186020907366,0.020492798281277078,0.020309354481103648,0.017973424943702514,0.013913067841809595,0.009485808046904536,0.005804583224701989,0.003529805393858316,0.002954995954149968,0.003652105033806923,0.0044225946520663065,0.004214684886837043,0.002991686223451182,0.0013650976162850224,-0.00017588116745378634,-0.0013988802836196058,-0.0025484991630363024,-0.0035024378639019645,-0.0037714978264221637,-0.0026707988029849097,-0.00022480109889655553,0.003028375738119132,0.006636222285619043,0.01009731001981389,0.012922438117009456,0.014769169094616163,0.015772023878294947,0.016762653603095087,0.019012969996682512,0.022840960423889497,0.027133684200468345,0.030081115710778837,0.03038686292406719,0.02767180563477527,0.022657509077383425,0.016175616840608302,0.009180060833616178,0.0027715461169104255,-0.001863619670057576,-0.004138397500901249,-0.0037225772158094566,-0.0013621900143183916,0.0015485474535245646,0.003701024889786366,0.004740573715932684,0.005352073424942247,0.005718973099421333,0.005621133387462446,0.0047894943265453915,0.002881616170180804,-0.00021257113490169482,-0.003918257394360492,-0.0076728620005322035,-0.011341858745323051,-0.014790713874306614,-0.017273404488912604,-0.018349639811193818,-0.01855755636812246,-0.018545323762911174,-0.018936684120013245,-0.019853925759878314,-0.021235915841780525,-0.022654596192983947,-0.024012128610796227,-0.025638717972595655,-0.027913492030273004,-0.030885381204673424,-0.034199700315330775,-0.03678022913262913,-0.0374284213748397,-0.03589967021573263,-0.03275656230003742,-0.028696212744477145,-0.024281185554783376,-0.019364734746416527,-0.013897929898531471,-0.008198750829627845,-0.0021571395605674967,0.004165764276224336,0.010036162086422747,0.014451189276116522,0.01708063342159473,0.018169101349087224,0.018315862426292084,0.018315862426292084,0.019012969996682512,0.020823010704988005,0.023513610330189998,0.026742323843366275,0.02986097409497155,0.0323925800377574,0.03370119712738982,0.03360335137836482,0.031793318216391975,0.028319997876985838,0.02417402763127921,0.020553953761000863,0.017826663866497654,0.015392896126404163,0.01275121937571467,0.009975006606698963,0.007675774884931683,0.006477233131002486,0.007076502498700557,0.009693717057500535,0.01392529290068824,0.019392097748573298,0.025519327443880205,0.03090052669428419,0.034006944340678184,0.03382349299417211,0.03030124978025348,0.024467549785688925,0.017753283327895227,0.011149087678005175,0.004593814147994356,-0.001741319275475705,-0.007183664195371041,-0.010926040724131052,-0.012479249547328047,-0.012295798200821976,-0.011341858745323051,-0.010669208839022552,-0.010546912972240266,-0.010877117849618551,-0.01131740108123312,-0.011476387217316622,-0.01113394973472705,-0.010253390817830553,-0.00938506450614534,-0.009531825583350197,-0.010583603241541482,-0.012528164875507904,-0.015389983242004683,-0.0188755361866221,-0.022336616374484305,-0.024623623037372946,-0.025394111146365802,-0.024966068066295154,-0.024476861960168086,-0.024684778517096728,-0.025467491684968226,-0.026115683927178796,-0.026140141591268724,-0.02547972429017951,-0.024525784834680583,-0.023816444659078874,-0.02322940789659209,-0.022605680864804092,-0.021553903206612806,-0.01926688899739153,-0.015659047732324467,-0.011525310091829121,-0.007562791192628562,-0.004211777284870412,-0.0011665098357673566,0.0018665272720242065,0.004703884201264734,0.006526152986981929,0.006795212194868864,0.005755663368722546,0.004618274075984078,0.0045082040227137,0.0054132236222331825,0.006758522680200915,0.008323959580809611,0.01032967669449982,0.012800134703894527,0.015380663521192876,0.01794895973327994,0.02023596639616858,0.021948168901781716,0.022999946559973,0.023220088175780283,0.02255967087469107,0.021507893216499787,0.020541721155789578,0.01935541502560472,0.017851121530587585,0.015967707830012303,0.014108744247194308,0.012812367309105812,0.012482154885394885,0.012812367309105812,0.013240417935509096,0.013313798474111524,0.012384316682702528,0.010305219030409892,0.0069542021041186855,0.0027103959196194904,-0.0018758492567358047,-0.006058505243944064,-0.009323909026421556,-0.011610923235642836,-0.012748306491315189,-0.013384266128314474,-0.013702245946814115,-0.014007993160102473,-0.014974165220812683,-0.01671082539051575,-0.018606471696302317,-0.01956041115180124,-0.0184107952909176,-0.014790713874306614,-0.00961743118083127,-0.004725436527287826,-0.001985919310006183,-0.0020103792379959043,-0.003954946909028442,-0.006193035225204164,-0.007159203512748055,-0.006511015043703806,-0.004395227122109955,-0.001631249976838591,0.0007291379792857384,0.002698166332941262,0.0047161145425762266,0.006648452626930536,0.007406711903878428,0.006232633096472009,0.0033708154846084954,-0.00023703106289141618,-0.003367907882641865,-0.0051901759137257955,-0.00492111670583886,-0.002719718658964352,0.000276628405915976,0.0027226262609309827,0.0035909555911492522,0.0025391764236914406,9.317856867643363e-05,-0.0029031684962038946,-0.0052268661830270095,-0.005936205603995459,-0.005104566543078403,-0.0036247375038505713,-0.0020715294352868395,-0.0007017706757193657,0.0006312981164002,0.0022334269465032913,0.0042024545455255505,0.0062570930244617295,0.0077736130876240395,0.008128283175424895,0.00728441226392982,0.0064405428617012725,0.00612256304320163,0.00612256304320163,0.0061470229711913515,0.006391623005721829,0.0070642721573890635,0.00803044497273254,0.00897215182302018,0.009583646249596893,0.009828253075826748,0.009657026788199321,0.009094447689802465,0.008482953263225753,0.008238353983328539,0.008629706794097967,0.00952249831620575,0.01048867037691596,0.011332539024511246,0.011809504979094387
