-0.5758196259088283,-0.5621990795257233,-0.5457483371206239,-0.4394197192488656,0.31705572315354197,0.8585303186085317,0.8975668911410374,0.8931798870405148,0.854103074946954,0.7178120963651325,0.35272254495029526,-0.0806118924795382,-0.31616743873777153,-0.44306337320288725,-0.6086856035148052,-0.9085727752934487,-0.8337872510112901,-0.561920713040885,-0.43616337525308174,-0.37628878448662784,-0.32438839323702795,-0.24300103886495605,-0.10500904592458388,0.0697572348867785,0.0986561384010404,0.01641216875518704,-0.12093366089225527,-0.3425398162163661,-0.6236726725955953,-0.8515189042663095,-0.9551672202251386,-0.9519326205888383,-0.9013935758675697,-0.8476704561596681,-0.8163461615042363,-0.8205038780339876,-0.8261125579813084,-0.7839413322408463,-0.7262271832255955,-0.6929009732651188,-0.6912714206045998,-0.712369844568526,-0.7393542926361433,-0.7556710366602261,-0.7567490533511136,-0.7350673638328223,-0.677248603980519,-0.5692252518746832,-0.40972478504528037,-0.21792440466869906,-0.04189138979725733,0.1039505075175621,0.2626641003521239,0.4543682213657369,0.6170504632895023,0.6970253307658342,0.6527823247982448,0.4559633247158551,0.22426424882354154,0.08117273431633906,0.03355625629916486,0.055319061057522455,0.12845292581045525,0.2392349344517644,0.36016874096139373,0.45896255639894723,0.518592316423303,0.5462055093728901,0.5649290599131946,0.5916231048753307,0.626870245425457,0.6563378187758703,0.665745510872807,0.6495826569671289,0.6240847045451909,0.6557277787938187,0.7523331599633741,0.8444924913059983,0.9005515021460629,0.9329625804190054,0.9516374583823397,0.9423460064650637,0.8764514541001086,0.7716913448022306,0.6992756286750013,0.6912408957550668,0.7195804048595135,0.7437366742542926,0.7438871753432299,0.7117792383221488,0.6259653423583402,0.4511617876728073,0.20094141637160515,-0.02891260419859918,-0.17315080259469626,-0.2230468942868443,-0.20545425645407744,-0.16377783296026724,-0.15106435241865074,-0.20615316527097524,-0.35139551834360594,-0.5525153406106975,-0.6936636129274636,-0.7424541144565917,-0.7446782758358863,-0.7424779109197395,-0.7554401518677322,-0.7864507923785974,-0.838663701131643,-0.9042091062572624,-0.9527628388696878,-0.947920928087836,-0.8945914443680326,-0.821301142475449,-0.7449179881615227,-0.6669220625636583,-0.5921677899311978,-0.5367817521102407,-0.5298556219069108,-0.5845323132002005,-0.6782552821288185,-0.7674207595944279,-0.8242144318343865,-0.8466688786279685,-0.8424694931003701,-0.8123725110261277,-0.7593379904984584,-0.6997781041143569,-0.654701912852859,-0.6362166934367329,-0.6407612904368868,-0.6018063603969966,-0.006830733783252854,0.5938458119410287,0.7666463612259212,0.838058650276439,0.877858340737024,0.904119404618039,0.9247753066871519,0.9382022308165819,0.9334428214294564,0.8790270734604079,0.7369821583043017,0.583849345424167,0.5003270472691536,0.48329633832095065,0.514155677910564,0.5887293119408245,0.7245201261087202,0.8952794981287283,0.6586213211741714,0.305772817866423,0.13865147322549348,0.06284781380136398,0.040013682279102014,0.07619306103162561,0.1960890222888297,0.34491845133934607,0.39388973122859033,0.3677051152659784,0.33666297494106684,0.3612844334817978,0.5281327774107616,0.6402079983059604,0.5250994602112717,0.42962840904825456,0.33978803533750673,0.1748044121252038,-0.4181332875644933,-0.45100585697042544,-0.43508138689898596,-0.4690999426389615,-0.5587800650853889,-0.713586259267652,-0.8955771375473244,-0.9482723315612447,-0.8374848680464994,-0.6568733701108629,-0.4578584601136468,-0.28570352795733234,-0.14728778010844817,-0.013740614424241432,0.10328803987195069,0.13094446284360556,0.004168629694450651,-0.15536803836456675,-0.26474022177761863,-0.3595037184331299,-0.5001240908491144,-0.7707925948739153,-0.9525861110068891,-0.8034155988438865,-0.6914152541753174,-0.6553208224830203,-0.6668440713213358,-0.7049700622141167,-0.7537912829871004,-0.7870984932379252,-0.7939053389990037,-0.7966090971603752,-0.8047028798323431,-0.8156579306196245,-0.8259225700412076,-0.8326530849256301,-0.8250920213374033,-0.796677911533259,-0.7375309646041512,-0.6363331503694712,-0.45868919741106035,-0.15472050417978522,0.12687838674545032,0.20589874854155393,0.18624896687522974,0.15847607847825118,0.1321971981069787,0.10451416227444509,0.08263744841189977,0.06669905948466955,0.051878573870032654,0.035568968595260125,0.007056033017356481,-0.04119770667110087,-0.01563689635694222,0.023363786573063566,0.07847919242300339,0.1586587553256101,0.27887522424633604,0.44344833493485425,0.5975113701267996,0.6608398131819803,0.6318918205886842,0.542951400123169,0.4812242229507511,0.5131260278335393,0.6587855835210921,0.8639743913750036,0.9624327794124011,0.9684616957676111,0.959056757773242,0.9341642009580312,0.9144002966552782,0.9097163819229398,0.8990705933996256,0.8511800415554089,0.7485527108128338,0.6351728546021531,0.5573220126991443,0.5160801998070425,0.4920609615631706,0.4740451953665005,0.4579549917477362,0.44349568641407855,0.3987155705711578,0.2810334637549202,0.09502082254731241,-0.03516015412184761,-0.04979800758723171,-0.004085015079034623,0.051531546735446215,0.08799485089609653,0.09298203584492828,0.04946176444714597,-0.029379685345883335,-0.07889195406524196,-0.09224184795107296,-0.10684999035175172,-0.12498156616004605,-0.15475493495753606,-0.2481622931422163,-0.5342941904317136,-0.8429780457312798,-0.7755377821876159,-0.708306008994674,-0.6842703767257072,-0.6756090226566137,-0.6511624693395653,-0.5855321941269328,-0.47513191944208527,-0.3557040507368525,-0.29865859262764183,-0.3267440577734929,-0.4321594780045603,-0.5354760350197909,-0.5443735824553131,-0.5491792115408308,-0.5898101791817391,-0.6547346189221347,-0.7178931243538279,-0.7584506602518178,-0.7646752009814453,-0.7271683005154399,-0.6124119105807532,-0.34372884224347344,0.12261310054356174,0.5281136518416194,0.7230381960791556,0.8117953086482652,0.8752975573610021,0.939253141049457,0.9368642616480951,0.8425605742712512,0.798456658255977,0.8026217431972283,0.810264688538895,0.8109926252338694,0.8025281076913466,0.7921683065695333,0.7865852927618374,0.7906293231860984,0.8049125776714114,0.8146207761327648,0.8087180053794075,0.7968652875351566,0.8072034315951049,0.8515343234810013,0.9072407427941227,0.9430607598897532,0.9248072723583676,0.8173000573800776,0.631226305950244,0.4322629184520581,0.23850107513217111,0.06086232076293368,-0.08832190202355956,-0.23731190248695735,-0.3963545568318761,-0.5681474273098515,-0.7427910612900066,-0.8595637598009559,-0.8858765068086213,-0.849122624102858,-0.7998666671649016,-0.7846048078638727,-0.81611019529071,-0.8861075111888655,-0.9471138940632347,-0.8486711288352091,-0.4575378729046187,-0.08500767108255337,0.10380474095825189,0.17977850142629168,0.1961042215988128,0.19063522714111383,0.19183798719391723,0.2187460074686866,0.2622103831357795,0.29416678853792333,0.19966446365792465,-0.1067423915063427,-0.46663517788613934,-0.6966991002492684,-0.8193756442857417,-0.8944503885259301,-0.9358755662646089,-0.9447097032387198,-0.9296389956477165,-0.9041495193942862,-0.8711862211879551,-0.8316890635622699,-0.7839195015021532,-0.7093024239405168,-0.5831472144229863,-0.45162522549665923,-0.40506932920807537,-0.4973242850338075,-0.6479001832868102,-0.5322857934169725,-0.41296695288668384,-0.36381273072546183,-0.35228443071113424,-0.36058696453693717,-0.37473516891199127,-0.3793268025356948,-0.3562516043762477,-0.29905734655316596,-0.21622224022547964,-0.11998286578253363,-0.022542535972009975,0.0710690945908124,0.1656008593922739,0.2693859862389029,0.38866342407016824,0.5533074991952958,0.6768707819486786,0.6826710473589099,0.6646316324884265,0.6630927211623799,0.6729539408544398,0.693302896964261,0.735229463496878,0.8092139777526394,0.8691987861187885,0.8287763987771268,0.6880585493624616,0.525646395497288,0.41347752130105286,0.35704272737132897,0.34139866539142066,0.37160336818212586,0.5113104655666607,0.591426174362251,0.16083841912540908,0.052208042803795374,0.02743887471550521,0.04290099881778591,0.0974702428703949,0.22872144208203782,0.50781669278984,0.768789275033877,0.810528044208917,0.8142206653558022,0.8263010857808716,0.8300585113943683,0.8161545421343597,0.7695591852017593,0.6736395930322436,0.5220417127295289,0.33900493386947633,0.1688275417709724,0.04736591731418642,-0.03160005327459588,-0.089965991578827,-0.1450830069476339,-0.2059804320133566,-0.25592381824745813,-0.2806409054986896,-0.30386806529045507,-0.36431843154757443,-0.5326440240862039,-0.8732144371820092,-0.9084592710246545,-0.7399897669670146,-0.6657317075870159,-0.645352333893917,-0.6396870538051788,-0.637048616080324,-0.6376804916553845,-0.6262102303966207,-0.574215449056567,-0.5331215953887943,-0.5816980909907233,-0.6424771752706129,-0.6469055205341799,-0.6280792383302054,-0.6365233685862831,-0.6904706638485888,-0.770690802496382,-0.8285110103396992,-0.7986780122792801,-0.6206465473794047,-0.2635944503873607,0.15798798547628135,0.4251169727422218,0.510624379926975,0.5118643928812858,0.49866744722793127,0.5112757529931976,0.5415567247376578,0.5826660775620395,0.6555642347297863,0.7583111599519364,0.8526584989712536,0.8814028881818727,0.839857008138064,0.7753377700077663,0.710787975648745,0.6391994730703798,0.5533649331779947,0.4722418472668896,0.4158532302077046,0.4035925115336465,0.467514019185393,0.6206756276437505,0.36173085164891805,0.2264278786685033,0.24749994281273396,0.3783735061913248,0.6142658745599342,0.8130343463679892,0.8755867784652045,0.9180853436650316,0.8672214415198386,0.6070382578884319,0.3745111033208409,0.2479398622985976,0.18359578802067192,0.13463184277318346,0.03444475528694652,-0.21496387828139224,-0.5903031510916901,-0.7875921230093788,-0.8511759839154469,-0.8779795239460734,-0.8937488756107695,-0.8803247266861636,-0.7706394584670746,-0.4513990950137611,-0.06195931187066859,0.1824244164336445,0.2921871575529446,0.28772617116505195,0.14275309029231967,-0.12733631831017556,-0.3570391631538606,-0.4925589591532133,-0.5878815585316487,-0.6733191291718992,-0.7504159762905911,-0.8082100739887322,-0.8463568235757604,-0.8568267213523484,-0.8375022043976241,-0.8090065112393213,-0.7812467236522624,-0.7476751070485971,-0.6951149572159903,-0.6157447662311354,-0.5057138314099702,-0.39415731887670113,-0.3314124752197004,-0.31957285034097976,-0.3314423924372523,-0.343769725821945,-0.33666387949259763,-0.33969637277215314,-0.34942807720048935,-0.3499408337014563,-0.34600981554203886,-0.3554291605971556,-0.3873102708457217,-0.42934894318606204,-0.4518888393880513,-0.43698930515302625,-0.37621725884091,-0.29427727097653006,-0.21165280065013567,-0.13899559122739552,-0.07384730413673907,0.008387752610399566,0.15991285127013205,0.4021109147246987,0.633127530668436,0.738593409954914,0.7404230031767978,0.7086564698756053,0.6815985143982013,0.6730949524240594,0.6836741595181682,0.714692321425985,0.7609703218193227,0.789799482987584,0.7653191772079493,0.7044713738582785,0.6222185325185537,0.5336090662405971,0.4940239999123158,0.5560513440085659,0.7066248071925942,0.8467563903992332,0.9170806414328585,0.9423939884215135,0.9459020879938521,0.9395082819735316,0.9346584311964296,0.9290288899545593,0.8958082515151635,0.820379370342323,0.6808288582562709,0.45000596821028743,0.0858175173701992,-0.27976565601767545,-0.4441398987383522,-0.47056828833335573,-0.4367700759678214,-0.4300438478770218,-0.47298351803507693,-0.5374621213925094,-0.5952418270132707,-0.6570504040314455,-0.7038364036706996,-0.6520627444587772,-0.46814707153538077,-0.2544256856751101,-0.11573529981347006,-0.10106095255857102,-0.18164828437924596,-0.3257434495846693,-0.5142726458000195,-0.7299314749662912,-0.9066105860345394,-0.9371217954760707,-0.8735387866311025,-0.8106877447184456,-0.7680328050418261,-0.738634773199507,-0.7145890833003959,-0.7052052108067929,-0.7254324823504364,-0.7615307246378711,-0.7799492092715258,-0.7726352034176408,-0.7520670341023771,-0.7356671138420495,-0.6667947238455615,-0.4497223160696125,-0.22863655085017662,-0.09223108021645104,-0.01350343964588929,0.038245134547310204,0.06642453514240382,-0.06227032586963463,-0.13376496752786127,-0.16189687296075117,-0.18015467330525414,-0.18948393831220212,-0.18572233857673714,-0.15386085384291173,-0.06989874672385188,0.14591144212283957,0.5710942576306373,0.6641779570414189,0.6354088548478153,0.6292718500320245,0.634689528225335,0.6582767847262293,0.6958011804466174,0.7281670679475414,0.7435313445467104,0.7531466744585104,0.7713299909696169,0.7888499509023725,0.7767431603816889,0.7330570125763879,0.6872747590094814,0.643775184028005,0.5775354546795062,0.49878124829713233,0.46709128613527895,0.5146954322390621,0.6211957916398914,0.7669011234399385,0.9162629064204243,0.9028811797132941,0.6251625114327862,0.39076445268149745,0.2609496250394672,0.18376906779857954,0.12432804661103054,0.07471254139975404,0.07870214110246365,0.2522681888836617,0.5480615701572201,0.723088571256644,0.7756949565421525,0.7841301538602438,0.7746175078071076,0.7479450415471999,0.6942405512338597,0.603845925655687,0.4622552468302342,0.2621144682496304,0.06792695244094185,-0.004773385539833064,0.04021178183028419,0.10906378545239893,0.13662871968731147,0.09951126436662647,-0.012568083246791305,-0.22172147742982246,-0.5402984120321093,-0.8187289817272597,-0.9115304513546997,-0.9280360759689237,-0.9422092802620238,-0.9620142267940723,-0.9779175134332344,-0.9845276271620561,-0.9864861000997436,-0.9818027737574302,-0.9232016437554535,-0.7520136903813439,-0.5462172467057069,-0.41124146368578696,-0.38286366372389674,-0.5142029772236609,-0.7417951941456224,-0.3880124941396048,-0.24292855023597146,-0.20249208686014164,-0.20616867672707326,-0.2397169113595773,-0.29111662856104226,-0.3485673610473766,-0.39360171044658887,-0.4067612727611705,-0.3878081138654358,-0.3642768985671378,-0.3503605462133796,-0.3279549046750626,-0.25932354974587096,-0.10491859784558635,0.2028904947544256,0.554043127384784,0.678941776557027,0.6657157595208618,0.6257723074957634,0.5959585639804342,0.5984210043797503,0.6567720193013171,0.7791094864561662,0.894094968540019,0.8715794727024179,0.8099479047694045,0.8258933262635578,0.8661386995999647,0.854777999659299,0.8009319304735268,0.7433923428648946,0.696576017768881,0.6412901315246573,0.567358959508658,0.5454514692012299,0.6264834452950858,0.779542803665414,0.8885449727815131,0.8987199467196118,0.8577906742721961,0.7972606817811044,0.7216177987815403,0.6380789771358933,0.5593291759458032,0.494138252836958,0.43466926075894174,0.35837697536980595,0.2661996390291815,0.17075674769572005,0.07984662117292145,-0.01011527621303567,-0.1291293056312435,-0.4345511452338476,-0.7710784978528018,-0.35678524224411207,-0.22926992167232038,-0.1676653555153435,-0.14434649537594693,-0.16620070796115982,-0.2599937466738126,-0.4365595346692651,-0.61193343434166,-0.6886581356663977,-0.686499763398743,-0.6735989839528399,-0.6888700887277296,-0.7384980145839883,-0.8132595633959626,-0.867441051563468,-0.8576975166026574,-0.809596171937549,-0.7597961538504541,-0.7023428038674969,-0.609731183924761,-0.46897233999012405,-0.2980572769759253,-0.1744583064695324,-0.13942841617423413,-0.15118682624800472,-0.184260791804408,-0.2499630610618537,-0.3628594380708156,-0.4752632120133574,-0.5290149714938434,-0.5494431568990936,-0.5595275002734484,-0.5301140057319648,-0.42577306404290716,-0.2135475507648268,0.15267026596432254,0.6619544059039248,0.910714587483923,0.9065851831774713,0.8602259305714898,0.8187073759769883,0.7747619794435999,0.7208276488979715,0.6541005484826509,0.5860636795231792,0.5438473233916798,0.5564697304162514,0.6239423408904456,0.728798417747743,0.8407104130187738,0.9205870727271706,0.9565069567722352,0.9663886924068643,0.949270784557099,0.9096957226930209,0.8654571277199329,0.8277518659287478,0.8023537761664097,0.7753730921449439,0.662357443996086,-0.00591488562037859,-0.6614842866178362,-0.7862627073117182,-0.8098634126042201,-0.8220608953624958,-0.8270542080376462,-0.8056651952808588,-0.6903055345242579,-0.3356184709538262,0.11875893478488268,0.3985059939251751,0.5410961772896151,0.6255311723343857,0.6581919380613999,0.5795132132437865,0.12061461900515534,-0.42995352131112685,-0.7081534187032377,-0.8845757303071801,-0.957968054319106,-0.9667842518955546,-0.961689364817647,-0.9139682059797664,-0.797423841015366,-0.707192046314263,-0.6937252668509291,-0.7193728278108039,-0.7544367010725002,-0.7890435423340081,-0.8181750808834525,-0.8410126079492414,-0.8653312272570484,-0.8692454952386379,-0.7787184548908492,-0.6407429189540186,-0.5577455639699326,-0.5352718257667739,-0.5556034877932177,-0.6048787959589972,-0.6732377268760323,-0.7445760505986322,-0.7966824331375362,-0.8205978368074369,-0.8262356918112882,-0.8162182977575941,-0.7804631792292978,-0.689352152414247,-0.4113794196346246,0.31496290783979114,0.8416212877196396,0.9748700373365846,0.9078096980334845,0.7320949799654493,0.5283690726359915,0.3310645427504994,0.15065473439076285,-0.00770788656437429,-0.12720443780708934,-0.1512984799799411,0.06414870287638474,0.5632566226728964,0.8363767965509008,0.859310867932067,0.8324848915567087,0.811075774887669,0.8057635449698314,0.8147177712728888,0.8387446034823064,0.8817117158295885,0.933626465089314,0.9133948611297369,0.7744993266970007,0.6718171310861963,0.6783267617603327,0.7938386677270104,0.9161021187858229,0.8795633487047829,0.7755984791296959,0.6744479752582285,0.5844766144844128,0.5093682330464043,0.46124468682622605,0.4760863561556656,0.5995353973290434,0.5778206939508896,0.18586443741255596,-0.0626543361100452,-0.28553375667067826,-0.5349675893696506,-0.6484931074406862,-0.41907092486943837,-0.05690579456419629,0.3049174374310202,0.5232128536138954,0.5842616623085639,0.5590820429861394,0.47578346953877154,0.3603514485205807,0.2306168695817377,0.10404443501470464,0.009610317114927457,0.0277205908688531,0.1590129838534641,0.2606518005815306,0.28693425318826665,0.22185342311145936,0.019962512665862076,-0.31466313517059524,-0.6643096805720509,-0.8856860898654547,-0.9523041389561618,-0.9495549402011417,-0.9331394231733847,-0.9170540892100896,-0.8982401494276405,-0.8728520376003653,-0.839433164657711,-0.800586337951999,-0.7613857142717756,-0.7435043249925356,-0.7467174770663574,-0.7564936592029693,-0.7521570256962303,-0.7255800645619266,-0.6830727495116234,-0.6312442361328617,-0.5625484299358804,-0.46359605857490505,-0.3519518477003395,-0.2798720325084682,-0.2626640657169115,-0.28109206725591407,-0.3041670054582698,-0.30539931315779,-0.25372620113359273,-0.10760011043281331,0.0905519761685517,0.25852442196355174,0.3742573520183768,0.4744811856599988,0.5776402868790405,0.6612831657265771,0.6715951547096484,0.6345052901395745,0.5990970682822265,0.5817015816243906,0.5901852286105188,0.6278942691944098,0.7001676832781145,0.7866128472798859,0.8406361013634341,0.8534398676426356,0.8671268980694116,0.8828872484353122,0.8381716401466935,0.7231090665284837,0.601681145110989,0.5005247185575364,0.42504323271234407,0.3757049077842979,0.3598427468050581,0.421892677550448,0.470698297834561,0.08305423861117438,0.0035089006468752588,-0.020519495298929748,-0.028038760460291315,-0.024195445387908514,0.0021402077925679317,0.09508329519312758,0.20072470228774372,0.08827410851243367,-0.1424756393667544,-0.4601048654195825,-0.6557047100619036,-0.7311877162850303,-0.7115013453050936,-0.6392455360114899,-0.592673047135438,-0.610710448088468,-0.6587415720746388,-0.6780884798724478,-0.6551598017396948,-0.6205581082227104,-0.6087969880088625,-0.6255087908169868,-0.660879234935729,-0.7102162597684032,-0.7852322435408986,-0.8619816584945023,-0.8929201919146196,-0.882543451404696,-0.8571039435871637,-0.8222566904479551,-0.7775982999133769,-0.7339162283526227,-0.7105007889526846,-0.7125935190082175,-0.7297317684231197,-0.7497612789654372,-0.7593094655721565,-0.7432238095735118,-0.6861096808679753,-0.5601447919423398,-0.317916680406423,-0.01834328785754255,0.18487586049591684,0.27406761901354354,0.3011261579397276,0.2900558944947209,0.27865775175469926,0.29852134625243754,0.32224513114696124,0.34716821944834875,0.4191770381827491,0.5575744546010177,0.7142625095312609,0.7849319402989217,0.798596055322367,0.7929398644226273,0.75002128309166,0.6703871314985399,0.5901593882654974,0.5404503108261953,0.5308494436844132,0.5732243135666503,0.6577838275906643,0.753705647979553,0.8422383550671685,0.9123275871071799,0.9530623441474656,0.9583344120114919,0.9357306378427097,0.912187655937116,0.8937233875633308,0.8693381806704833,0.8410850582406871,0.8166934019910294,0.7960298568615725,0.7762280039486807,0.7545110933018636,0.7214044589178241,0.6592954106913899,0.5513525738122182,0.41224377124517736,0.29812600795359767,0.24465236506517465,0.2549827715086366,0.2994904924044723,0.30717931459206776,0.2451311567981778,0.15326136580670743,0.06724857963356509,-0.004688251025855535,-0.07582921465399299,-0.21118731177716685,-0.7979021797012157,-0.4444002512071727,-0.3052799594701658,-0.28738824341803104,-0.3129717906730453,-0.3729117007209276,-0.4663255581734511,-0.5833944552692566,-0.651902586880163,-0.631476510473401,-0.6214708671287785,-0.6985678728403879,-0.8525926049865046,-0.9419865361744132,-0.8876659449421646,-0.8004287361617688,-0.7438744790005379,-0.7268233073261788,-0.7438665530879224,-0.7822473915532451,-0.8236377454489658,-0.8516780678960622,-0.8683663700139406,-0.8820138627069167,-0.8923578005081446,-0.8908849794949526,-0.8712236616364936,-0.823313188530464,-0.7502531453237675,-0.6622852825383565,-0.5507406135161234,-0.3487198587625191,0.10002877518718806,0.6672492089694353,0.8749443026487448,0.907297340134377,0.8964667534365186,0.8688879893288433,0.8284778781542194,0.7779258880339669,0.7199403676456586,0.6193354756525856,0.3923912801529405,0.13982389161002715,0.06821818734758597,0.23677289775012986,0.4750708210177683,0.5751480024458991,0.6032005820954053,0.6177861573453524,0.6326684939367467,0.6564242662096523,0.6996219688194324,0.7561297912272817,0.7740362805858017,0.7109286541033292,0.6467389031252606,0.6127237834162922,0.6137945709140346,0.6708622926583925,0.7945962818843939,0.9236355607990081,0.9286026000937022,0.8635502434994953,0.8107041745736125,0.7741191464606634,0.7410056945400909,0.7163810409624705,0.7240757498828487,0.7111852848078432,0.40191308943462156,0.1640447588893825,0.07740667347581984,0.056307305802067574,0.08343929997490575,0.16950800673425614,0.3696255605232975,0.6817772956163966,0.5192353384552875,0.24047754296146945,0.011660310715845649,-0.20344933292711098,-0.3873120740079377,-0.5171458704449079,-0.5759944174735778,-0.5689691734611118,-0.5418795649579898,-0.5671823904106584,-0.6538340072488291,-0.7294141861200547,-0.7537426579993001,-0.7355803054966993,-0.6853799216279662,-0.6004563362143664,-0.49576434042952394,-0.4055085193997078,-0.3547815779337688,-0.35641376021081833,-0.39627456747530854,-0.36454798497561774,-0.20736120819051998,-0.1245799719113168,-0.13548073553948092,-0.1825364681000227,-0.22370333137294568,-0.24864246691763686,-0.26521773433146134,-0.28580371358674267,-0.31478180108052456,-0.3482076956717549,-0.37590658367819235,-0.3921503819093857,-0.38643288339920967,-0.3415759690261928,-0.22619922117473884,0.028849680729907866,0.4347734703192796,0.6889692372818219,0.7413384853563226,0.6895935926221153,0.5882434512506408,0.5288650118932888,0.5351679160236003,0.6136209828826656,0.7652505584130538,0.9153226559116341,0.9408618767823353,0.8773518370976064,0.8038956555788502,0.7550891775055559,0.7340457469586732,0.7353842972312228,0.7565675413372007,0.7972441458851695,0.8568674108489506,0.8627942903458815,0.7178201678905017,0.5372365826806126,0.43947701166126857,0.4550314778607604,0.5162944802004362,0.5758781666090695,0.6393827041817135,0.6737290680477134,0.6533983964905588,0.6031137253803747,0.5256161668114955,0.43515541990855994,0.3734204186834062,0.38352033981176387,0.5422165844662974,0.5271222354443784,0.19214160484810489,0.02493089723290076,-0.1340264788862161,-0.3626489468146555,-0.6648702390370258,-0.7945959255945217,-0.5664542219937114,-0.3123180997060052,-0.1453686122131523,-0.04762613997372487,-0.0023422613822823594,0.005866739604859979,-0.01762950093439388,-0.11006047752881629,-0.30377688320137153,-0.2816856799460007,-0.27294957445235035,-0.30118833522464455,-0.3705549844113081,-0.4992647914632475,-0.6906241254385695,-0.8561081495091415,-0.9096120920203271,-0.8960440581639629,-0.8616599369968537,-0.8278039481960201,-0.8119692918186437,-0.8161424692353455,-0.8255743032736291,-0.8269967006951171,-0.8188554135009025,-0.8044625815120667,-0.7691922432608977,-0.6830022546797351,-0.5764031119399875,-0.530467466068747,-0.5402654693822536,-0.564334702618507,-0.5219964220068442,-0.31093476588211816,0.008368292967428343,0.25647557086384015,0.4061358759801123,0.4767020435321491,0.4598137330524772,0.3788784839591995,0.2802191356511278,0.19439452637420007,0.17461780152209863,0.2613153677755857,0.46601206866779377,0.6691502525307012,0.7814401913875431,0.8075666515327612,0.7814643628264942,0.7282135628526415,0.6614189944816461,0.59754606914098,0.5496200284773962,0.5299002693555025,0.5459890365103445,0.6164440539751909,0.7351777238775147,0.8433576324897862,0.8903512293053331,0.8870989868417779,0.8373154314701851,0.7461173226034056,0.7242838304497898,0.8627299599083713,0.7611884762211177,0.5993454630884842,0.529214270293186,0.4947963815565199,0.4687007440173343,0.4422980753850912,0.4144901087047962,0.3952147427907453,0.38778671499705514,0.026525422805352455,-0.11498424336896564,-0.13508636955235603,-0.1419005062519221,-0.15699074491676232,-0.19014286659103002,-0.2627076290986783,-0.4186277524310311,-0.617025723669781,-0.6787455584390822,-0.688084960748506,-0.6543647180630423,-0.5983794765060919,-0.5376454681509312,-0.4191798766526366,-0.28289444625728993,-0.2379700388783181,-0.26132912086250665,-0.3352568120893834,-0.4548367512713092,-0.6141650802097331,-0.7455183406766108,-0.8027983441809777,-0.8131137247165549,-0.8104938689887369,-0.8130986849878186,-0.8258056430928049,-0.8365443965242507,-0.8378553190576533,-0.8285257735835173,-0.8205930765973144,-0.8156960546991512,-0.8038061033696671,-0.7788389376595507,-0.751086910516541,-0.7258209634156142,-0.6918096907097783,-0.5963674339208804,-0.3742563101214336,-0.060340021824287764,0.1823508170958426,0.2233098829677395,0.11176963710632547,0.03615531593641675,0.014549586866153479,0.027214694963042036,0.06224527797717084,0.12944981850800116,0.2849368837581909,0.6034696802944411,0.8648059939750158,0.8672018544264666,0.8295684788269737,0.7906507177729563,0.7469854077262922,0.709646205573206,0.6859864488052315,0.6768527054023965,0.6679359359014793,0.6475371007328571,0.646602818727717,0.6937777861933625,0.7584656819673613,0.8142428645367489,0.8585757630989449,0.8944281407491104,0.9205593934867268,0.9316258645305436,0.9234207303955042,0.8882929352617689,0.824581794009767,0.7502409596365628,0.6695904789984854,0.5757945163889956,0.4920168535536892,0.43731977454968707,0.4058456092522416,0.3845781406067192,0.3944305113029863,0.45709940648561814,0.5712801330415969,0.7009014250918408,0.8159046472281973,0.8919930587086617,0.8750079899875786,0.713170173979784,0.4461537404700321,0.13257327208112474,-0.22764130350866077,-0.5784230220114895,-0.8014221240128321,-0.898889237033378,-0.933817932185096,-0.9406742487947491,-0.9192885461082058,-0.8343662681614846,-0.7119549184212,-0.6558859021186167,-0.6939036041805263,-0.7997009110307295,-0.9165286496607241,-0.9716296188437168,-0.9492413861808315,-0.9043404357831529,-0.873814415316523,-0.8666357868541832,-0.8756996536971976,-0.8865096622084666,-0.887798619608396,-0.874078344860487,-0.8517267879863715,-0.8351950035858847,-0.823144682272141,-0.8078901224254216,-0.7809018409902637,-0.7407259092606833,-0.6952231094166575,-0.6452366359277016,-0.595062886178054,-0.5422454345604946,-0.4808608547201576,-0.4126945802779333,-0.3553589114167462,-0.3382841093590701,-0.34162448052601313,-0.28631386533911035,-0.15169861483460648,-0.01440065171793923,0.09650092351919137,0.2341001226797173,0.46475113732533585,0.7546319903934415,0.9215655227487447,0.9273649863654798,0.8854710198372121,0.8527500334375036,0.8312313635363809,0.8090158277179097,0.7849638117446285,0.7604290204166632,0.738851055985922,0.6913203342991263,0.5218066201795124,0.2832524632842442,0.16937833408799302,0.21169106792044348,0.4262466475777154,0.746609891097808,0.9223312195528017,0.9268165858408436,0.8793069751507068,0.8452587682136585,0.8351472863489645,0.8326986056265198,0.8280575996163896,0.8259169548397435,0.8333113992274972,0.8109397749384175,0.7672377849807163,0.7749181176432255,0.8048324950888962,0.7952233327374338,0.7600315772949314,0.7391708831841223,0.7353930116717603,0.728369350974044,0.6773584625865663,0.5520766991295039,0.3267921676470312,-0.016204739088436847,-0.4293221739435701,-0.7256203572078237,-0.8547445501637866,-0.8970054020597197,-0.9006084128645424,-0.8266462135859527,-0.6071191757957902,-0.37894587458835155,-0.2651455774722633,-0.27245239575902697,-0.4379991134807801,-0.7607710941958105,-0.9208274582610315,-0.8986027840780286,-0.8638896860116562,-0.8347314500605173,-0.8023151836612352,-0.77031552414351,-0.7621966874754288,-0.8000419086099616,-0.8510745707498379,-0.7927714625234497,-0.6615640062401591,-0.5982454007860385,-0.6264261542914746,-0.7116688704421664,-0.7506445835520372,-0.6359320869093001,-0.4680509920154657,-0.3535626562960746,-0.2990241437770379,-0.28669618095229366,-0.30234457137048554,-0.3259619655535385,-0.3267660068322235,-0.25118520854097537,-0.009029474125949464,0.3365399967461456,0.547216204450788,0.600537496519267,0.5931652503691093,0.583833253533542,0.6177704493460154,0.7094718888754252,0.7942656484386933,0.8104383172873514,0.791024430003052,0.7808099766923514,0.7841220511955741,0.7981735512542949,0.8240912179583747,0.8560488610560395,0.8835950488231716,0.9022484087274694,0.9130674906922556,0.9183645130113031,0.9147898647985235,0.8893194129678108,0.8219145737296069,0.677193551378171,0.4459164319963705,0.2347198609698718,0.1343532196704761,0.10805674356720674,0.11433301315716099,0.13198052622236378,0.1621681495532272,0.2483905070235892,0.04630046615758136,-0.06895054247607593,-0.10405715078416283,-0.12894402900084515,-0.1606267811791211,-0.22671341465098915,-0.40605660901194046,-0.7426234382383465,-0.7559114790486542,-0.7352374855247495,-0.777388545759947,-0.7965617097279427,-0.7857532585709801,-0.7799808292167383,-0.7540960851468559,-0.659612977596543,-0.5128918233992812,-0.3701527752749699,-0.2664903485614082,-0.22215212764063427,-0.2715363039132874,-0.4446345170425348,-0.6951153442662802,-0.85555234880817,-0.8595854501533271,-0.8162541862435727,-0.7793176118745555,-0.7494820435452,-0.7301875037456647,-0.7211199242560795,-0.723199217599647,-0.7569431181096382,-0.8415135917952901,-0.6671184790473651,-0.2911137870765149,-0.1515153763279843,-0.12204088371612272,-0.15088436397932356,-0.24775571080758133,-0.5386481875030031,-0.5859686000228114,-0.3551192087643599,-0.2840731479956928,-0.268278612142803,-0.2737128613867478,-0.2883640644272622,-0.29782503545433625,-0.26391641733766447,-0.08399556661864223,0.4426633366783345,0.8093055879502079,0.778610149244757,0.6911518299401985,0.6374632505944391,0.6587841326976906,0.7846057828757392,0.9025132921913976,0.7553627045886186,0.5749154054890249,0.45912442708472834,0.37745767163595323,0.32291980805429826,0.3071828949314041,0.32892040211523144,0.37157529714160903,0.41649983648288913,0.45907449427549335,0.517211982224488,0.6209194541837966,0.7453809486903027,0.6026150560445679,0.33615984991106473,0.20984192995406192,0.16774740515976957,0.18810055407684026,0.27910654975031396,0.46756399452118186,0.7161200698536705,0.7809585224969576,0.7140945884245212,0.666607211284092,0.6506052845973755,0.6480894985043981,0.6219617235153627,0.5113959679451665,0.2611322167833281,-0.07624852560003245,-0.3735940124747735,-0.5536718665396145,-0.6331679239515667,-0.6553908463438888,-0.6584607722919353,-0.6545395283793202,-0.636801491675032,-0.5879659772561705,-0.49625740320232425,-0.3846799483720369,-0.310389987476761,-0.2970433989327181,-0.327515812926884,-0.3774333720015547,-0.43119236921707066,-0.510435711320146,-0.6425099993060845,-0.7434781744521075,-0.6931180797055763,-0.6264527081715747,-0.5968762822041153,-0.594807119467961,-0.6120893748110657,-0.6408764911581065,-0.6618914155370644,-0.6503153253462189,-0.6097923642439191,-0.5656675821840849,-0.531034138332952,-0.5044285402673849,-0.4751949372248421,-0.42239792764726747,-0.2916413178748991,-0.0074979976975633284,0.40571140784398996,0.7370345382465828,0.9146749131569722,0.9620888214482941,0.8536604672361138,0.6922043079855189,0.5788163290564444,0.531655544158853,0.5581122710683997,0.674325331887196,0.7842213351176791,0.7361259594677787,0.6188872741174654,0.33890328767235023,0.20815755891368742,0.16992786832567078,0.1717979659074126,0.19889049577786552,0.25677838679053666,0.36068516944249357,0.5184090399473184,0.6847954211498767,0.7781805362657995,0.8109241350055778,0.8274678650839392,0.8505061041541633,0.8791295201236651,0.9090954896568684,0.9290911186213178,0.9379327424755907,0.9454993988242039,0.9567334893117858,0.9658788449278025,0.9692583660668996,0.9668271782881599,0.9577629568438519,0.932238212825883,0.8431611877942624,0.6106835743020744,0.4282814076287586,0.4002602499259888,0.43104214161316523,0.46933715163656076,0.5014072467979227,0.48302442077093977,0.16601650592432224,-0.6579390611246028,-0.7006580616318373,-0.6881145010682148,-0.6949231706345219,-0.7310921357405832,-0.788373850835019,-0.8375356123617178,-0.8678396772186163,-0.8833807303635346,-0.885700146133002,-0.867920390387575,-0.8238446873598375,-0.7505362472067824,-0.6688540209205702,-0.6222027150895115,-0.6653163628713009,-0.8106111937737663,-0.8884685491645843,-0.8811673915253008,-0.8870786605175179,-0.9154945825270513,-0.9433274878779507,-0.9348321240153014,-0.8581029983550859,-0.7031768429401005,-0.5126731445924365,-0.40269382112970725,-0.4304810422822148,-0.40916953370580317,-0.40131063181157545,-0.4308120646045385,-0.47290101377230626,-0.5287223481005776,-0.5912987102280627,-0.6393957157115766,-0.6613444450866185,-0.6503956006894338,-0.6079317195051815,-0.54916262230921,-0.4931631778186392,-0.44429280202888843,-0.39726893789315776,-0.3638344288220176,-0.32817517806263086,-0.29351590885670575,-0.21128773872559678,-0.030042876851763493,0.30941108973651904,0.6953025304737608,0.874437994600892,0.9099512938487448,0.9124678325854215,0.91070810132476,0.9036931396387549,0.8908337192736548,0.8799615544098338,0.875097483336736,0.8733322065323874,0.8720699432321353,0.8717586512959752,0.8708266506940607,0.8607305608909576,0.80577066943576,0.6591236325039135,0.48675835008886076,0.3536212448560586,0.24363032923669933,0.14971347594038514,0.07241535149126145,0.02259095550586587,0.008314041746632656,0.061304143030970905,0.23701209966638856,0.5371561203771976,0.5348196796057935,0.47693215057236793,0.3869624159999097,0.1720261648150736,-0.2712693622632545,-0.6276666874948778,-0.7089958878828685,-0.6239847746430206,-0.45343429478120256,-0.29975865537340046,-0.2208152716904576,-0.235775740291384,-0.3836923492304341,-0.7187585337624854,-0.8631038498589774,-0.7863734503220599,-0.7478202194822107,-0.749656799328593,-0.7666628510985437,-0.7642539318263526,-0.7286358340480633,-0.6710693585211188,-0.5832750444085046,-0.4784058877638322,-0.4283679702699054,-0.4583111746413338,-0.5172888741310016,-0.4922542987724175,-0.35695023271191506,-0.22155662901354434,-0.11785835717361982,-0.04633795243075534,0.00017724302242914402,0.02588702081350992,0.03336253928385737,0.00030388061868573505,-0.06532462279349704,-0.052590370454992943,-0.046076935798197695,-0.03899617928796894,-0.03158448892160994,-0.02690987462542017,-0.03326339982393221,-0.06036581314389995,-0.10161422943812627,-0.1388036039383792,-0.1607882279194974,-0.15609890459725298,-0.10297589805553933,0.07135168060867306,0.48709887947176433,0.8540470228947996,0.8296776730372053,0.6816882251208366,0.4975297996814726,0.33698295761036073,0.25875054528654334,0.26069127322014013,0.31791630707530727,0.41486303149251946,0.5354532864811256,0.6637003931974734,0.7582422252566297,0.7980729812263369,0.8029928896347613,0.7987781075546694,0.7981925984764169,0.7993375611233922,0.7965399167563786,0.782691241679995,0.7530887471126816,0.7016897303605328,0.6380173830760495,0.588084613318975,0.5669247605985437,0.5662233435007488,0.5660297399681052,0.5487519420251901,0.4932375082737393,0.37763618008320526,0.19361830377236,-0.04960973349960596,-0.2691752821124952,-0.37394951786054353,-0.3521385459351302,-0.21449838117440842,0.004921914050081634,0.19700427599362408,0.2887290252644377,0.2831879295494741,0.18457832308709887,0.030916294661486945,-0.1158770122067776,-0.2233109559353391,-0.2903355423642679,-0.3495222801133388,-0.44059855113314506,-0.5765113268038614,-0.7064604028671752,-0.7812382891496652,-0.8251979860088113,-0.8711987303755128,-0.9201303490374364,-0.943431264283063,-0.920972896307643,-0.8714183084275059,-0.8209065901285284,-0.7795829709630837,-0.7496872070215874,-0.7280194875507666,-0.7171950673224144,-0.7098467992523246,-0.700813046200516,-0.6813825233755715,-0.6366680310659749,-0.5522201159191523,-0.4028703411950879,-0.16849863543146654,0.10231396015382146,0.2539932466959891,0.23905491693005992,0.16869419352072015,0.1432078250678812,0.20284756791063555,0.33333946765974415,0.47562284931053783,0.5684787177267694,0.6038147219537927,0.6041024624088248,0.5832125847646461,0.5360120118471137,0.4744093974087633,0.43424672048420465,0.4109500752799002,0.4146640374835283,0.441868046566415,0.47205396817351397,0.49791149276188135,0.5227617400773447,0.5457716365314548,0.573073142473157,0.6207773681854306,0.7154620192782937,0.8516690814172609,0.942521370453531,0.9539523130469967,0.9597990248433995,0.970730759873783,0.9684029336490974,0.9621570844519366,0.9558653139531089,0.9365354583899047,0.9053113482601143,0.8799355427069275,0.8741611023082914,0.8829618249591809,0.889610951270982,0.8866165121908172,0.8838121997490355,0.8878173338598963,0.9024376482771617,0.9103346016062982,0.8564028945401245,0.5176320472669306,-0.34333566181806074,-0.7619322725712173,-0.8491999677384929,-0.7817976067856192,-0.6298674204427512,-0.5285469914753149,-0.5391002475257728,-0.6695465948177485,-0.8253053526437755,-0.9106646780237807,-0.9293454710772094,-0.8893378239890295,-0.781951186090393,-0.6532175354682018,-0.5664590709330776,-0.5419593428042615,-0.5723945562112593,-0.6455690530225847,-0.7064769233818233,-0.7064704870732046,-0.6786805827517425,-0.665807134901129,-0.6792919174098252,-0.7080745411733507,-0.7452608700294341,-0.781026849233222,-0.8181242382951601,-0.8515124163724312,-0.8824560379364087,-0.8971089637096764,-0.8506538408146356,-0.7064849152906906,-0.5871763076977203,-0.6183312967517709,-0.6900542005682194,-0.70615651738673,-0.6706189826077393,-0.6105582292101034,-0.5397687852420191,-0.4418720106068481,-0.3104393503711463,-0.1316229591503151,0.07953204110036616,0.29516455535018915,0.446621432184381,0.522725354531392,0.6077945147927236,0.7543942929558831,0.8746814380427302,0.9139008035671553,0.8873442966317592,0.8297307780897338,0.7710841165990936,0.7327345187215724,0.7294353479307696,0.7557708676785462,0.7915426659115331,0.8304588223166294,0.8828806526547469,0.9450260486438159,0.9401195253540777,0.8488797375954336,0.803898934943346,0.8526824387500036,0.9396753309195008,0.9379171790602926,0.8377359772873414,0.7501949349034673,0.7483331217167327,0.8596955922625744,0.9446562543838642,0.7610510308658259,0.5632947178166529,0.44008194779902915,0.3793254608813488,0.3925448571326285,0.47535648874072595,0.5755087690844998,0.631449617005222,0.6336851849783576,0.5856816819987402,0.46686138982345465,0.19910437192972047,-0.3546041327823312,-0.7573966965108194,-0.8587895412079284,-0.8881217297403281,-0.891178542295084,-0.8618891212701026,-0.820914319124594,-0.8005010607969427,-0.8011456039736059,-0.825046986998248,-0.8746534054370165,-0.9360684838435638,-0.9776870424916364,-0.9879169827316788,-0.9647866153317133,-0.9098160478588166,-0.849620152875899,-0.8103354453722399,-0.8045054546628604,-0.8353474212511609,-0.8960596244237783,-0.9411728701030022,-0.8880587215999429,-0.7549741383983443,-0.634512209254917,-0.5603749662798096,-0.5493980024303855,-0.5796283077343136,-0.3560936105902333,-0.11336249238566189,0.028218231209379406,0.15624485086157236,0.2943924294341605,0.43098460423432927,0.5326336069567476,0.5721200254601871,0.5594319824647253,0.5424146993549773,0.5676895738142185,0.6900665640415837,0.8556134059479268,0.923447875593449,0.9094166324793785,0.8521223244051747,0.7701602337769534,0.6864927003849401,0.6244193320131409,0.5942334915594125,0.5864545215024259,0.5820383215456635,0.572531720750631,0.5655768523456716,0.5742155995942004,0.6001107041083023,0.6416255085318753,0.7015115397968492,0.7114145332001358,0.6502027768694495,0.6433133712399135,0.6636569020296946,0.6871504744079915,0.7082046983908504,0.730456088266965,0.7496867151827667,0.7585246392856306,0.75307132643792,0.7463614499661954,0.4963720687710626,-0.07074755398883559,-0.1980912166919874,-0.23658812844465624,-0.2610213269800274,-0.2806474236543623,-0.2939683768281299,-0.29556148706525814,-0.2674718512715632,-0.21350262466108752,-0.21642293286782446,-0.3447853197965967,-0.5185712077281737,-0.6460115567373981,-0.7310387726086843,-0.791605404891446,-0.8417122274311807,-0.8664568384743843,-0.8607145049383444,-0.844287966239494,-0.821016746725878,-0.7753584512526951,-0.7057178934508052,-0.649168348138833,-0.640760052140797,-0.7006809219728075,-0.8180465135059448,-0.9076549745593994,-0.8807853984479053,-0.8071904478179677,-0.758817770174362,-0.7455925781427944,-0.7603270368316934,-0.7900169200643495,-0.8230589792814342,-0.8484164651070537,-0.8635009951139158,-0.8693807300478738,-0.8501769723929927,-0.7836963187478242,-0.6443777233347587,-0.4058715780588039,-0.09036283019729378,0.20252973278425151,0.39087116038985115,0.513957921497114,0.6168608307802735,0.6983874334718818,0.7490357428819652,0.7515369278782403,0.6995045475750595,0.6384922801467784,0.6021254277632734,0.6460208865341036,0.7848692371742828,0.8836525696745853,0.8563894605112999,0.831307063901521,0.8560217032705574,0.9066463038217306,0.9120218721564637,0.7519259329800041,0.5702051796644668,0.4649504985058684,0.4175004337167954,0.4070778467075701,0.4314687606479077,0.5170488416994972,0.7406581289332292,0.6319123169528547,0.27744272128395914,0.15525037037359166,0.12275130555605464,0.1441819909966742,0.22581438591483044,0.405025646749345,0.6909553121869844,0.9039684462273693,0.9517112122498907,0.9457283157725503,0.9338666811250519,0.9185850096391316,0.8948675411606024,0.8653255888166297,0.8125547306814059,0.6705068848280662,0.31265368029875834,-0.018862851692563985,-0.05444871252840318,0.006013069416634982,0.06398559029243377,0.12080091897285768,0.1701105896700063,0.20382831453727612,0.21914838164950567,0.21294028279333607,0.1476006022837382,-0.1778582689685219,-0.3702683577659849,-0.42936548821803533,-0.4957847119875153,-0.5672887198973007,-0.5762743068758818,-0.4600800408113833,-0.3354607994636212,-0.29064680372810275,-0.3255498843621108,-0.45617283048323976,-0.6608297061105379,-0.7546205509364377,-0.7536865396404194,-0.7473901582320377,-0.7531475245858639,-0.7541807491515139,-0.6742601502546759,-0.506043280595356,-0.3911458861060239,-0.35365116454587553,-0.3806138847495702,-0.4934383548186434,-0.7607853657538306,-0.8497667940739841,-0.5315251654354891,-0.3532337840663618,-0.26394066083811357,-0.21734910221798415,-0.19844326254411476,-0.2096668658471271,-0.2738645202149914,-0.38995448782553094,-0.4670073407058621,-0.4556258174720441,-0.38070179469679405,-0.2678839654344069,-0.17424040376028466,-0.09096855961429658,-0.017442114391642023,0.08017454398709184,0.2205322175644594,0.36882026361732256,0.5102578739579688,0.6264245229046586,0.703967559862663,0.7541433424808662,0.7888573215519586,0.8118466627125805,0.8329229260663052,0.8606987863833139,0.8930724135439292,0.9135200477359884,0.9020339817372721,0.8611022006088714,0.8096356301043269,0.7505557532273687,0.6802755223941247,0.5972836464442774,0.514789487933128,0.459516031124313,0.4649649310268125,0.5613612156578374,0.6769147440623451,0.45736690161298915,0.26810417157784344,0.17939421895931545,0.11730414849793905,0.05999593596711895,0.007122692915628589,-0.03890574540369117,-0.10899158203641728,-0.26724570362998185,-0.5567306387884059,-0.8198399364223485,-0.9363334017587722,-0.9759831234653614,-0.938919368773923,-0.8136288211006144,-0.6585835030233992,-0.54821236755466,-0.5042513819158276,-0.4843084895886744,-0.4363353810309328,-0.3378796785122222,-0.2024790380298019,-0.05457225778168127,0.08100362260730866,0.17360055057507692,0.16726248623781878,0.009074666193344414,-0.31960428186761136,-0.594069263666057,-0.7164928957271189,-0.7802621008318652,-0.8268184466054487,-0.8606189647165629,-0.8832179197396872,-0.8940044069381453,-0.8912662708314278,-0.8773194483107267,-0.8589043184040035,-0.845460819694793,-0.8313781759711008,-0.7960075377519161,-0.7185009381747337,-0.600261089102241,-0.48047213542551676,-0.3772436205262423,-0.288342457220081,-0.20392885293484475,-0.1624483336520821,-0.20923843464521694,-0.30288262784168707,-0.36610245482526527,-0.36431411022335264,-0.3014731781166727,-0.2056553521201618,-0.09433794385111631,0.0292018164517015,0.15731454510100834,0.3008814221496654,0.4799859063275934,0.6610379818770191,0.7784152526610023,0.8230213304766415,0.8325207069837746,0.8396932116710765,0.8554609975083013,0.8810603499827435,0.9153210202539466,0.9541932312978949,0.983378322228917,0.9945570920223834,0.9934142780740818,0.9829694798141211,0.964071648168946,0.9407103904904349,0.9162745510240893,0.8906764504283599,0.8603408263113734,0.8201454951437546,0.7675517392652786,0.717942250329754,0.6952508373276486,0.7046009121729692,0.7305741323063517,0.7543031401127569,0.762618101510085,0.7521889878104575,0.7180818783270795,0.6024872186455622,0.0955752498467038,-0.476987239041343,-0.5893191270987951,-0.5336954050797479,-0.46494518489388664,-0.4636228380128536,-0.5484649663875717,-0.6956731598741211,-0.8375463324493968,-0.9270806115636058,-0.9624163313498185,-0.958363989200666,-0.9320953672635138,-0.908981791373417,-0.916683716924593,-0.9456125280707124,-0.9669116347759218,-0.9715745839123551,-0.9639255753344022,-0.9417154446834047,-0.9041235401884669,-0.8618761154848082,-0.8275272278442519,-0.8085387601242613,-0.8087900043051797,-0.829256874421685,-0.8636656751334886,-0.898968120502181,-0.9201149225201457,-0.9158201941613316,-0.8697619551484101,-0.7631530937721377,-0.5843798907463752,-0.28090381413019727,0.3913625875084843,0.9416965177603348,0.8940392053635892,0.8005977687156607,0.7175472651271372,0.6444664659344935,0.5766808129288701,0.4887456961074456,0.33387017237377364,0.08518314833634097,-0.07791848725851198,-0.02724799634026084,0.03744530935734231,0.06380184792144393,0.08347708862549993,0.11406101354109856,0.18179665802803674,0.332727144113417,0.5783396255293112,0.7925770021512473,0.8535007777359065,0.8207376808556698,0.7750427722650179,0.7589567729366726,0.7935273815709384,0.876622958186881,0.9488241478625211,0.7921625086560196,0.48733276603533454,0.3320136853868842,0.3146489120110345,0.4011517438748007,0.5750991830609536,0.7752219692580771,0.8655432593272728,0.8211105342768844,0.7237947973378338,0.6125812881160837,0.5041707843471608,0.4186061518148333,0.36611284224527496,0.3478348911072923,0.35199556475070826,0.23850557408394943,0.044070465360963235,-0.04323899901900511,-0.09960532531908203,-0.14847163947714717,-0.19053332927252384,-0.22263321842397263,-0.14508660821198976,0.09096336662463597,0.18613486650127462,0.2338956248966535,0.2609100652858997,0.23461834492225095,0.1389052692314714,0.015741534693443703,-0.08446469819967442,-0.13857905409036125,-0.15882119209135348,-0.19367485708262494,-0.2554141939668557,-0.3042920991613426,-0.3086388260665298,-0.2908748933920319,-0.2913343435388506,-0.33137923465211916,-0.42055313756744883,-0.5446357133137066,-0.6442126626496365,-0.6797399172402722,-0.6648406984168083,-0.6422093087803017,-0.6579102178292425,-0.7439106657100822,-0.8476223612266928,-0.9078737218937577,-0.9225216977974499,-0.9082074455904864,-0.8761554300802037,-0.8370411163632712,-0.7986779363175284,-0.7589128013719778,-0.6999923150742687,-0.6131506777586568,-0.5055768259657946,-0.3840087898857346,-0.269192202165875,-0.18574149520674638,-0.12660158975093452,-0.02496911356559151,0.1841580259646964,0.39443784458810444,0.5788475103218309,0.7031324412615576,0.7702503853398325,0.7953774924365191,0.7954686965800701,0.7854059239436221,0.7721704972980641,0.7590650850716343,0.7434256739844098,0.7389709291015087,0.7692870393739625,0.8185589879883335,0.8377976911043921,0.8127641910918849,0.7371181958507536,0.6070157805232541,0.4287911156779793,0.24243777616012094,0.14369278980697597,0.23347537310617517,0.4449266102947121,0.6337636776000127,0.7422572919649643,0.7841467688413095,0.7873492721196801,0.7703150420546966,0.7286156664112097,0.6543432789871896,0.5634970783216745,0.49794987339425956,0.4939025285043426,0.5283794213782887,0.530201108477694,0.45341589716479397,0.31362700871828175,0.19702594338010884,0.14285388871062907,0.16504846061403095,0.22678765142433216,0.2460541131399156,0.14077305212087782,-0.18225592852891742,-0.5542969031885953,-0.7467520638534049,-0.8249522300959801,-0.8519363752678137,-0.8593001340015813,-0.8722367168005284,-0.8893740215822179,-0.8980515860213796,-0.8972791765536376,-0.8909822867728014,-0.886149548573954,-0.887727156559178,-0.8900312164109417,-0.8571427667214083,-0.7051227514064632,-0.4442366420287551,-0.23396139503506766,-0.1199013876467559,-0.07678557119773052,-0.0859126499380232,-0.17507300559782826,-0.6251447173570646,-0.3480785381912443,-0.23194314656546205,-0.19775378237905253,-0.18901821313633577,-0.19734883749159965,-0.22511863835722867,-0.28350265587009166,-0.4118358682679174,-0.6119034482351375,0.07814418473260755,0.21703192833633328,0.2527671996386459,0.24724228716840582,0.22711610898123746,0.20750579959245455,0.196290667077712,0.011028608210254308,-0.03015320955441519,-0.015085304235856741,0.019909255564319273,0.07795686395685433,0.17516359960539307,0.32314869578142913,0.48566528870412046,0.5787146113483476,0.6200332898291181,0.63960372631543,0.5978284528432825,0.5232547985087452,0.5311869770243641,0.6518951598756784,0.8510723985330538,0.9857494032162182,0.9416523159717053,0.8372195993296546,0.7536291024793811,0.7005515896454957,0.6691117478842198,0.6599933622575915,0.6708371654032239,0.6923307756931908,0.698320435973057,0.688276299787064,0.6697330761772375,0.6465463291985709,0.6166544880948333,0.5797627504291719,0.5286450610547332,0.4487843245515022,0.31345183324426923,0.059619552189953365,-0.31376104624737744,-0.6268871726987234,-0.7999477248227167,-0.8805309251267321,-0.9081345307331242,-0.8975803487209829,-0.8357674316727174,-0.7193590152412397,-0.5888374106697521,-0.5213574940000723,-0.5558685499891722,-0.6511354894034143,-0.7127959646098839,-0.6911438179012711,-0.6081515884118525,-0.5144009359609164,-0.47379301838745463,-0.5391366375543971,-0.7649811192279427,-0.742391547970748,-0.5379583131693443,-0.45089586156614847,-0.4385986784047135,-0.47963759525537625,-0.559003830017462,-0.656620952331419,-0.7443187422576325,-0.7878348886892577,-0.7750088288950036,-0.7097124649193073,-0.5632560848220772,-0.2539023610768856,0.18670060067026975,0.48128082921926046,0.5817751654230015,0.5418161229185924,0.2742079554909457,-0.34682195151049067,-0.7142518782600581,-0.7828668975470281,-0.7699471159433855,-0.7186280083755684,-0.6359444164406114,-0.4972766228186315,-0.17810528935215375,0.4351702350013898,0.7349135212727421,0.760589626755537,0.7348823468502136,0.7144271656284408,0.7111555019172284,0.7135035559348174,0.7164142182500395,0.7290662032377833,0.7649561443224255,0.8427918676767194,0.9089496031160795,0.8845005598402143,0.8805519380980018,0.9275531357015367,0.9642875034806667,0.9432251881913524,0.879340076655414,0.8227463083603664,0.803393950538966,0.8413893836116667,0.9266164508529539,0.8794028319076399,0.579678245773984,0.3326215681242441,0.17896676386371402,0.05213070435441848,-0.09134332379273555,-0.2836479957234127,-0.5352814807525829,-0.7387190370881499,-0.7340961240049162,-0.6741892605229868,-0.631176826275264,-0.46751183158837684,0.16906728908756558,0.6617918122407603,0.7649727414864085,0.7750659374390841,0.7474319142869916,0.6662722972028264,0.46657603756123234,0.06149012405135279,-0.3955944202516251,-0.6141023337584177,-0.6585115113072942,-0.6591331673578843,-0.6814061628873928,-0.7648510088617017,-0.8857393724304707,-0.9637160950714928,-0.9535051932515916,-0.9140757373649789,-0.8861044821357539,-0.8716766322222995,-0.8648857504808822,-0.8567222504022012,-0.8413933680021518,-0.8184403871128303,-0.7892854936458895,-0.7621818807097195,-0.7477251860263833,-0.7436788613557322,-0.7391375920837894,-0.7176890886629561,-0.6753422088992068,-0.6298317565807721,-0.5945124980521684,-0.5688294352328672,-0.5359322618978841,-0.4626602039497426,-0.28759046387795306,0.04050218740756198,0.36768055092532564,0.5108104275765768,0.5550779969211909,0.5810377710695548,0.5863822585790264,0.6000927543116054,0.6606764702553625,0.7419361604660271,0.8119351241956639,0.8617496436570627,0.8832014636773801,0.8733206747188255,0.8508354245149821,0.8314856832324333,0.8197917424827537,0.8107845132603685,0.8098404274342138,0.8217949885891311,0.8425426990232502,0.8248128786285084,0.7438406995586982,0.7138092550276004,0.7653716200734502,0.8134134219277958,0.8249180464721582,0.817820754252304,0.8117549599617552,0.814992919954236,0.8315388131456204,0.8602447236014198,0.8973372065655771,0.9241041134157837,0.8555736747095802,0.4080212215952288,-0.21184133205975567,-0.5791720184301276,-0.6826154640794801,-0.3017173972568608,0.001659622938809811,0.14992686330421623,0.24427479286770523,0.32510646049564057,0.39512216779329257,0.4116924641523004,0.3196792256951954,0.08994300912457819,-0.25047320459152056,-0.5872144020988818,-0.8007373925067022,-0.8926231211227164,-0.9142281130329452,-0.8840369314514923,-0.7895770613752461,-0.6371363949010104,-0.4797554595595121,-0.39425600428026675,-0.4144877378469843,-0.5702074797978323,-0.803043992308633,-0.8491327126941904,-0.7825788076939001,-0.7486468375117135,-0.7608085631323209,-0.7975038594399683,-0.8350981942062705,-0.8550980905335196,-0.8452705730952871,-0.7900806921977224,-0.6979250286788735,-0.6379678187274944,-0.6174336184857071,-0.6070572514989508,-0.6101762708697114,-0.6365693191665592,-0.6948890382363249,-0.773285910762092,-0.7869469899457787,-0.6420363886027691,-0.5096520202506436,-0.43097049431552686,-0.31146826344514045,-0.16108285027293473,-0.05306150811975303,-0.00847669899752681,0.004231418503616541,0.019616685543257205,0.06422552044775476,0.17897976455731454,0.40576485406466795,0.6612770322564911,0.7815645437897277,0.7910442057735126,0.7652285184715356,0.7380714303508988,0.7242208344257616,0.730054303600336,0.7607374899505739,0.823648348250214,0.9137676411297788,0.8576673750709154,0.5011726731574946,0.2848419768927673,0.2249494480699867,0.2541617191167154,0.3630025695220864,0.5901457054830667,0.8627938606531567,0.8484251953037428,0.727072993011653,0.6552643728815143,0.638565103200293,0.6833427532482019,0.7643423919049843,0.7352197916142614,0.48678322292182724,0.17089398371321204,-0.07953820253751154,-0.24935882345149504,-0.37361649229956084,-0.4555004526503708,-0.5021346721579222,-0.5385034812134801,-0.5627873076102168,-0.5566678415270059,-0.5459993578487968,-0.542169874020911,-0.5313480378883544,-0.5028031318717593,-0.4388217262542653,-0.3506330131116649,-0.26938932579154945,-0.23187762098815273,-0.2486492374611499,-0.31182728149275274,-0.40866935738911114,-0.4994537264240139,-0.5539886087806398,-0.5652822319136518,-0.528931937379454,-0.4410761614474274,-0.35645124138243117,-0.367673337202994,-0.48896126651810334,-0.6516891857327585,-0.7710954655433847,-0.8201314504406044,-0.7936319650849022,-0.6650471523098185,-0.48758416739192084,-0.36932416972586046,-0.34071612518243577,-0.4040420279362325,-0.6069958053998488,-0.6102901223218987,-0.2993418537535047,-0.15766278753111534,-0.07294180699408766,-0.0031135616844479414,0.07630035159159826,0.20124727774528078,0.42505985002346397,0.6205139892014508,0.6517477886260966,0.6565917203105299,0.6335181678168191,0.3126368860110625,-0.09012513628029176,-0.19423516557480347,-0.18032727694235226,-0.10130037399452226,0.04583458489239286,0.224636293188297,0.37621284296291213,0.48298828889697853,0.5455379093679689,0.5779097454316656,0.6018136042517207,0.6363920538770188,0.6674046679623588,0.5925486925141644,0.4604843454556941,0.4647939158613545,0.5366590185317135,0.5714410956423878,0.5764440826043064,0.5482728521581243,0.4223840408613807,0.088960699346274,-0.22604106764625603,-0.26896995631872683,-0.1423168535443112,0.03336797353744731,0.16669935460234028,0.23756335089147046,0.22850415195160265,0.17038665593012012,0.13519659465689562,0.1361695067377246,0.14815745656085416,0.16310941219431252,0.19001231036048485,0.2812459312927513,0.2509782066026722,0.002377362226341291,-0.06568304457620806,-0.11749141569463223,-0.18174369239526594,-0.2738106130604003,-0.4038062004512403,-0.5798700896906142,-0.6992785106599032,-0.3944160482239325,-0.1349200416923773,-0.0584766425443432,-0.09615200803541304,-0.20663528682620133,-0.3757688793842233,-0.5642583638379491,-0.6547908182931331,-0.6170772785500989,-0.5152820190551619,-0.42383230203032163,-0.40820894118069023,-0.4746494303199689,-0.5699701826665129,-0.6324593460479769,-0.6379235657344712,-0.5935161219502054,-0.522171259394184,-0.4497806395703702,-0.39783067494468305,-0.36943693562898505,-0.3730275674310091,-0.39886751885457794,-0.42247989549324094,-0.4567004341976037,-0.48969546918831225,-0.5052184557810103,-0.4757471450871572,-0.3203452172274035,0.2203124315384333,0.8464638727873975,0.9185897350699462,0.9104259040580848,0.8755194523166399,0.7859437018735803,0.6461883690722954,0.5299198679244934,0.5019926463212373,0.5374389200533508,0.5892913011364199,0.6326447422928771,0.6609951593331233,0.6729174684643221,0.667238478225637,0.6566621316099573,0.6644684591812854,0.6976582663917082,0.7156673831203141,0.6854251326090472,0.6911931086192985,0.7762599146144029,0.8756942072767895,0.922279310921626,0.9192266094102511,0.8936927000204221,0.8734827738185615,0.8733189436437186,0.8910014641290362,0.9099565548815919,0.9181509393731652,0.908826599849362,0.879816561196461,0.8194935770232462,0.4288828702965098,-0.7052631922304743,-0.7552566100151246,-0.7018268191095471,-0.552145339568027,0.031223701563566797,0.7084482835432375,0.8497258764594303,0.8639783375687221,0.8304156660227872,0.696807392424748,0.24927586771555013,-0.40569845296251245,-0.7071805096567341,-0.8180392665094011,-0.8523716010439023,-0.8157170974839205,-0.7165336307934858,-0.6079771299484128,-0.5537852203318733,-0.5685183927557806,-0.6299838012484872,-0.6974616086319676,-0.7268666169263472,-0.707467445315514,-0.6707432062232164,-0.637417499884056,-0.6031039143807406,-0.5861044850973743,-0.6385779261960352,-0.7404819148957369,-0.5884348680507198,-0.4315247902952877,-0.3832574022225044,-0.3974820651426394,-0.4536329274636808,-0.5323345802634397,-0.6025785768395472,-0.6327158561742113,-0.6041611071629215,-0.5169421802207073,-0.326927469486965,0.02147937713463263,0.42733185847648564,0.590119096192942,0.5483412286360213,0.5540709585400925,0.6771487939439894,0.8074371965630425,0.7822342975133867,0.6649271206180803,0.5795223770306754,0.5941447699559205,0.7332357830247606,0.8480754492401663,0.8230653260142979,0.7071868000282978,0.5781465197791071,0.47732258697351904,0.4231966556906679,0.428632250223472,0.5078266874337544,0.5988021091525024,0.5396703391638267,0.39529303514411585,0.29686053415751257,0.2580191924459442,0.2743054458054929,0.33165641624654496,0.4042535460060565,0.4589426306546136,0.487592151616482,0.5294012102994614,0.6467098286984124,0.852362355736264,0.8975939323521132,0.6406311121470458,0.3519887268993614,0.0765759208922962,-0.15691594685050386,-0.22396525278562837,-0.026464461256655008,0.2564211112920027,0.35435825764867956,0.3099852603745677,0.2062243415758968,0.05442946028740058,-0.14575077745282541,-0.3782537121701401,-0.5451087571557379,-0.5650027187126153,-0.4358732060390934,-0.25138827460721275,-0.13820693159488665,-0.11530912924571199,-0.14815463144977137,-0.20638579108384458,-0.2944180305895362,-0.43939360335055244,-0.6503613520576315,-0.7799662854105365,-0.7496196796427032,-0.7146273462116097,-0.7157101433226363,-0.7350221523278284,-0.737010653777581,-0.7087935062723274,-0.6615083840210149,-0.6094352841886517,-0.5661278838238382,-0.5540789851216474,-0.5804552573212487,-0.627418624070932,-0.6780279394264173,-0.7110564704380663,-0.7174935366406965,-0.7214795105060283,-0.7240255307911329,-0.7112902181480194,-0.6711447436922271,-0.626807140179182,-0.6132419784182273,-0.6499716772134638,-0.7101223905801973,-0.7168398178169482,-0.5369388080354502,-0.14833283205262554,0.18595641091116988,0.36747304218051596,0.4556845659976014,0.5274530893286125,0.6252645974231782,0.7174728111956827,0.7994177253109332,0.8619220999558769,0.8933654137314591,0.8919397404405434,0.8702525943486931,0.8367728979983307,0.7938046378711854,0.7450004698569005,0.6926711868845108,0.6429311881850154,0.6012688252645714,0.571789484555012,0.5551986615673121,0.5532018293222215,0.5665067393932286,0.5792871400253656,0.5696791239484585,0.5369482893061097,0.49504158089274175,0.4561041803679698,0.45322870589504793,0.5033830438305976,0.6051774725464918,0.7437004836383895,0.8805351524619364,0.9123149256192846,0.8265018346938746,0.7243060664819698,0.6606431447082941,0.5757213448963597,0.32477464997525773,-0.24994251687582106,-0.7167255183883389,-0.8340105719519108,-0.8294039578712076,-0.7330586559464087,-0.5014897123616456,-0.18613220243414744,0.029524337132571268,0.07314125687912393,-0.07956206989972646,-0.3585878402301639,-0.5742705967448702,-0.6629442681280592,-0.6631802251476288,-0.6582174816904479,-0.7041701718852375,-0.7990716650646742,-0.9044250850071985,-0.9694752929812853,-0.9497399316436139,-0.8655614689773096,-0.7792498399034659,-0.7261523657105448,-0.7082107952822307,-0.7155866365345968,-0.7249779960271098,-0.7150374676293602,-0.6705839877002607,-0.6174313273018305,-0.5869725158218473,-0.5941828751367082,-0.6451094263285332,-0.7143199044821946,-0.7392219137907993,-0.7290439577402994,-0.7035862570359162,-0.6574845918909638,-0.5808293232057249,-0.4701151232603028,-0.353626474930195,-0.28905143145533685,-0.30871811120587733,-0.43466250372167514,-0.6361443167523335,-0.8087539886966921,-0.8815336799473823,-0.8788539075443336,-0.812256656428758,-0.6852168496943382,-0.50487844780269,-0.22570557624957102,0.30117085381561765,0.7421647469054506,0.8455190408564771,0.8556176651430752,0.8465949296351045,0.8319818340805546,0.820123560490981,0.8301698884561437,0.8898283653098374,0.9354154978570107,0.6949603548206476,0.4886925787099632,0.48044739155775035,0.6100126234731337,0.8045078793798338,0.9106933834929198,0.8629718207759287,0.7810716461569994,0.7490909410809292,0.7788092082231082,0.8390858192071706,0.8826096584387033,0.8825554676908215,0.8310616843706478,0.726348221480132,0.5852392248856204,0.4412524151443489,0.3171844481638357,0.22555993659267656,0.1606940412831476,0.1027884024085798,-0.002243883219758763,-0.6437778449981191,-0.25994004639639245,-0.19521810098889067,-0.1701505792567978,-0.16970360154904518,-0.2061636109225046,-0.30849711688616677,-0.5123710277685266,-0.7911683275570156,-0.8089966441013426,-0.4935605256514734,-0.27439135890838995,-0.18399548885487624,-0.1957219115734038,-0.3074424012124527,-0.5153453831489903,-0.7692490762446962,-0.8687518907135359,-0.8539688450839624,-0.8326403203440641,-0.7962736294769999,-0.7449959770429311,-0.7340597809027665,-0.8121097867720707,-0.8902778612074949,-0.8663653833131684,-0.8283715815505031,-0.8251036206003829,-0.85462023531772,-0.905042175193528,-0.939846281573483,-0.8809440931176353,-0.7279097958251508,-0.6316791254666462,-0.6614584308086945,-0.77359603485613,-0.819356113716223,-0.7800723367160498,-0.7413764362338968,-0.7103231338052826,-0.6712068930811166,-0.6222284184444715,-0.5764240555033878,-0.5290308872165511,-0.4340484949464468,-0.20080108587431753,0.26922962866878025,0.7227833798845446,0.9023629573277533,0.9217220994435071,0.888340100091611,0.8480717909455026,0.8191826630942536,0.8087943567615855,0.8188530570743797,0.8495263068356046,0.8932097877309013,0.9363095735710067,0.9644256517524783,0.9767202832550927,0.9815672025223606,0.9807784594493276,0.9646040661392662,0.9149869238523219,0.8495624985525256,0.826937006712209,0.8510005104307665,0.8445431373338885,0.7344561428891873,0.5777676170414309,0.4889182351805837,0.4794346345193763,0.4855132348043127,0.41605761023843096,0.28002831493126357,0.12717259536250383,0.0021665964297915884,-0.08967447533216709,-0.17852863439797131,-0.2933485851394887,-0.4728190845760584,-0.5259651873607073,-0.40976437660531784,-0.3578712002794243,-0.35250953671231927,-0.38872067182087855,-0.48714208734130354,-0.6722071633764741,-0.7444931196265681,-0.5120325886373811,-0.34060716677021946,-0.2579335667527025,-0.2303718024338181,-0.25517942353857737,-0.3906916770641546,-0.8178574623223038,-0.49550528056332416,-0.3208102816642599,-0.2677396442361213,-0.24962002646735792,-0.24616539028058051,-0.25349380098716406,-0.27779968526889665,-0.3236535618151501,-0.37209954937605516,-0.4178576492918487,-0.4599393044723649,-0.4844395320155184,-0.50008302823353,-0.4960792937719632,-0.42426891243957515,-0.2794699517871281,-0.13604584252980667,-0.03981325528084818,0.01721462235363569,0.05197518618381752,0.07287890730965361,0.029596539239942123,-0.042918177758576904,-0.11312756972388079,-0.19654094546562131,-0.2937698483072144,-0.3770616622591734,-0.37214122673297856,-0.13161757140123792,0.39296431165668616,0.765904606917594,0.891281062171555,0.9010520757209078,0.8719695279303568,0.8486892796172391,0.8357885743040662,0.8247325571109027,0.8059810340980654,0.783967235442108,0.7740660787972113,0.7912294341628957,0.8374243262952937,0.8968776323302723,0.9553333931001603,0.9778642008437662,0.9404022139603248,0.8842691009687674,0.834898794571649,0.803746836686468,0.7866500586600844,0.7830255032352689,0.7927979805602361,0.8142839981351814,0.826707546188435,0.8223525662245635,0.7921129859131921,0.7347626933802002,0.6414903038198184,0.5068578226069226,0.3708737237763964,0.27217773460875244,0.20122813479020762,0.09860743606636872,-0.11316446979443943,-0.4180556652847079,-0.6427476153207359,-0.7145999886268721,-0.6577338707040088,-0.5512456594463097,-0.5024659925005166,-0.5070638112098828,-0.5035169790032241,-0.4338609767672966,-0.3164455168110101,-0.22192435802841365,-0.21183645969741027,-0.3197148281176937,-0.5386658891848828,-0.7821073430490173,-0.9372313693814611,-0.976046266892904,-0.932074709050069,-0.8577252353424798,-0.7890617930894349,-0.7416204633197212,-0.7212435622498361,-0.7399669182875861,-0.7411758187408867,-0.48610398333315363,-0.18475462479309865,-0.010395587492450108,0.0884584653651841,0.1444162965616118,0.14977997585878636,0.0712661970736397,-0.12613356964955608,-0.38489567056603663,-0.5923971261942449,-0.7214465749806769,-0.7936071672616286,-0.8130713631900995,-0.7919918322289978,-0.7310683391953594,-0.6311135493856511,-0.5443402051769151,-0.5543328803196549,-0.5849290609501672,-0.4591815367226662,-0.10708492221681974,0.3264184796874445,0.58181404928645,0.6693575392597155,0.6968044098499511,0.6909228153230167,0.6527312021408488,0.6107612165200698,0.6052900735518543,0.6403711002089963,0.7052966280661512,0.7864472618035717,0.869320890364553,0.9302694924315954,0.9472827632078554,0.9189688763776948,0.877673137206439,0.8542745322228782,0.8532848962029715,0.8728573022950562,0.9035312753939391,0.930822106878542,0.9412556908447266,0.9372448632246845,0.9234340832504819,0.8974453674194668,0.8577581536326018,0.8211159994877649,0.812483613406757,0.8202524845896301,0.8189194438670196,0.8051921894711068,0.7595609422679951,0.6366571381144642,0.2954026514211653,-0.15704786345150137,-0.16517484303211502,-0.06728331603626829,-0.007784638834101136,0.0015641165087403191,-0.03190043352176694,-0.11119458622050295,-0.2823263011526804,-0.7101952028650654,-0.7574286726339159,-0.5039643780426705,-0.389183787224501,-0.33356487946146923,-0.3118334063528348,-0.31847953440714966,-0.3547558029770208,-0.404158023040486,-0.4243884913463564,-0.38860955141095793,-0.341363604702896,-0.3198043150220999,-0.3288754878480175,-0.3840560900781126,-0.5057730914332353,-0.682035137625196,-0.8261459964148543,-0.9044287583879128,-0.9405050721947696,-0.948729945122071,-0.9376838381770091,-0.9120409017967248,-0.8753667964456173,-0.8318713786185437,-0.7905994212781754,-0.7640982918451984,-0.7610441287990106,-0.765418153216402,-0.6420941815563302,-0.3514209082083817,-0.16029155074763096,-0.07137844335957028,-0.02322413023533563,0.02248890976143577,0.09159596770145727,0.19033454751479548,0.3673820693643197,0.6197512072753174,0.7760026041392104,0.8095907832299644,0.7906570533444424,0.7600341741251544,0.7347186597870973,0.7166874442850727,0.7032085669083205,0.6932753297124663,0.6940342982538072,0.7144883785605886,0.7693168488133758,0.8534856380207863,0.8380695408973508,0.6497521942759105,0.49940593885031365,0.439029858912583,0.4550315432978486,0.5517592442480405,0.729812794125051,0.8582270943597948,0.8052061509850666,0.7015755616148929,0.5960009008928489,0.48945686257879417,0.37198417095535585,0.2586841492780828,0.16547160790813434,0.08373771717745135,-0.038325999393419685,-0.28522540726216694,-0.3586306632802922,-0.2260056095844355,-0.08461958569357517,0.09445395225222021,0.33575389615667955,0.5889532825872346,0.6986937885513671,0.6775086338933936,0.6249932991800216,0.5786988884058553,0.5451326486795113,0.5132188131204394,0.4915109666845306,0.49179851959929577,0.49175508590218686,0.4685451153211558,0.38550699824294377,0.17648699249879116,-0.2442821884832215,-0.6784291222223666,-0.8203609270633552,-0.8663208748422249,-0.8843138367251728,-0.7891720747818762,-0.6219363411859345,-0.5010725836543796,-0.46269239309562166,-0.4961761655959837,-0.5743767116955598,-0.6426168514659092,-0.6727709315281358,-0.6856719102530702,-0.7082924869155076,-0.7422540382289388,-0.7777075603201056,-0.8015745103887658,-0.806311808905907,-0.7908297470831923,-0.770634710314892,-0.7663187072588573,-0.7638461827007,-0.7361522470295702,-0.6887528355962972,-0.6318514953624607,-0.5536518178376449,-0.42862667357056095,-0.2196414054015123,0.11616602013652078,0.5207248358118185,0.7691456466059282,0.8424773016353112,0.8295645403570913,0.7916367293389633,0.7736714831880758,0.7360328705709668,0.6204998603535345,0.5003729682661653,0.45121920426631346,0.5034125334551877,0.6848976855712997,0.8984058013582392,0.7055301163873136,0.47844013516060835,0.36700969955517193,0.3323961737341564,0.3582087208422408,0.44431905056794146,0.5770367244965332,0.7033346555401786,0.7711086834268013,0.7594865052967806,0.6111256831576845,0.26433522237660567,-0.15383171543783833,-0.4568689896122859,-0.6333561793678301,-0.7413418315638137,-0.8007824219910611,-0.8285117295619508,-0.8423237306564341,-0.8604510342521835,-0.8682871317202424,-0.7680280717839019,-0.04775090565478962,0.5816359714977183,0.7274570073934764,0.766208879033908,0.768650322700493,0.7498829585317537,0.7018917248801501,0.600418950735848,0.44518290231797314,0.31770137387658864,0.28676071202657505,0.3185504040762177,0.365138359753545,0.3980553498196294,0.4031421228529343,0.37884899714555664,0.316734570223068,0.17523433390852444,-0.143697120107733,-0.5851394834649883,-0.7427240641102739,-0.7111990450806115,-0.6626622373054653,-0.6520416625563201,-0.7061728201091273,-0.8294957122607175,-0.8499949109950017,-0.6292900511239978,-0.4539108405470916,-0.36519707906155646,-0.32926722681848336,-0.3308721120182188,-0.3646149776634485,-0.4283794434459133,-0.508865209232125,-0.5836085362817978,-0.6350335111917234,-0.6629486885459867,-0.6759421709880513,-0.6733156447528649,-0.6232260256090103,-0.4938288740451917,-0.2854336250315578,-0.042268644472787935,0.18607065523661162,0.3732502599982525,0.5265708519629868,0.6763712783241504,0.8152376898565346,0.6973500995868112,0.5244269029014934,0.48387512796401766,0.5230938506954449,0.6025131676163669,0.692886539314,0.7710425324972081,0.8336112250262178,0.881897286242312,0.9147027372852203,0.9312122606819563,0.9350163510741526,0.9344526257655111,0.926265877599516,0.9066678864255078,0.872073990508613,0.8311514293403541,0.788126909205069,0.7581425654345137,0.7557406467584388,0.771780334779954,0.7955113826241691,0.8120658149064299,0.818528519819368,0.8163876735343886,0.8007365272605151,0.7442309436039763,0.6223552685706392,0.457553452412256,0.28167992717783596,0.0803552480883711,-0.206103973364036,-0.5597653745407121,-0.7579625952117184,-0.7989708058564342,-0.7913634313130816,-0.7827660633369496,-0.7947378204778472,-0.798184244547179,-0.757452843457717,-0.6291583218236019,-0.41664577335661945,-0.23828973519105315,-0.12811515061249942,-0.07077432869856035,-0.05740069275220368,-0.09269723867668887,-0.21469530477030058,-0.4323011747489633,-0.5490838684611732,-0.572874121850683,-0.5872459262110293,-0.6113612588497519,-0.649475049784999,-0.6991595200633206,-0.7367704856937218,-0.7350796094459319,-0.6793201101979768,-0.5838309144669794,-0.5035029070347617,-0.4946994106892967,-0.5536646427684364,-0.6317078361544574,-0.6881366403200019,-0.7327242749722662,-0.7531582517652549,-0.7232527733174596,-0.6298864677859878,-0.5211124679001613,-0.42687008934643883,-0.33476862222969256,-0.22002016640684102,-0.07231754700241096,0.0814538924408748,0.2520144064043417,0.42228262078085754,0.5268246737284926,0.5696198297614494,0.5739373110769277,0.5574359195182819,0.4748576630307875,0.3510693130361023,0.2836989491612159,0.2569911054083686,0.24785832146628065,0.2522951015181361,0.2800924622865862,0.3647071491324623,0.3949919003456569,0.09292649811013694,0.03847123271425601,0.05285914095099272,0.1072012659353192,0.20775989373203552,0.36972266137106025,0.5889363266832948,0.7941244717464254,0.9148884517905062,0.9643406796820827,0.9816153083511687,0.9804277116026504,0.9554037036180958,0.900152474540957,0.8056227776560538,0.6604710761428806,0.4936304679865557,0.3534035210000711,0.2390160595156872,0.13122287533260735,-0.002071361915654877,-0.1665434029679394,-0.33798335609503094,-0.4827401474480706,-0.5531916898205363,-0.5535987295772908,-0.5448864904817005,-0.6164476895022021,-0.7526282370098041,-0.8603517478363158,-0.9003637000654422,-0.8874615113822274,-0.8248378489164345,-0.6949197996564696,-0.49285230332464675,-0.27771982309801796,-0.10573361781042237,0.030328985787253838,0.163746826220024,0.26777678762565404,0.13678088914364048,0.03380098852242428,-0.057639802158621994,-0.23423751120646785,-0.5507138976198985,-0.7538905765493186,-0.8002371912397064,-0.8031614196773648,-0.7901726779051809,-0.7635166108919511,-0.7136229309694325,-0.6197355109982722,-0.45965761211955314,-0.24120277721899264,-0.06056688796410866,-0.03902084756167377,-0.1696675299268675,-0.35415151077739754,-0.5061727633687557,-0.5744979867492799,-0.5662732950348266,-0.5168118486479722,-0.44547593461866924,-0.34833434661066026,-0.2235440873703807,-0.10446181635685373,-0.04542883387095399,0.013282119815609585,0.0745827507297262,0.1788665716578151,0.36776083827090517,0.601183785094897,0.7382359833742423,0.7907336600964476,0.8171321835672076,0.838659966361186,0.856405741064103,0.870625974987665,0.8823997632222409,0.8822431592067915,0.8528925361946985,0.789444840283267,0.710931819967989,0.639783124165426,0.597304015348014,0.5894724641794667,0.6090006197560341,0.6502829677656584,0.7120286634515949,0.7822765383399605,0.8385145613356236,0.7824444736296962,0.5952844986412902,0.4441333213210246,0.36337063666463687,0.3445345568324047,0.3587974908295305,0.3530427285218998,0.3135562190154288,0.22860960053149085,0.06446112701448953,-0.22284622165954213,-0.6130200491126578,-0.8597835888799964,-0.9302275545856628,-0.9401455049528968,-0.9320198528081106,-0.9045844691107142,-0.8387747051259564,-0.7678647106699421,-0.751640330554993,-0.747821596485419,-0.6204195509977205,-0.4478688408793509,-0.35091480260827584,-0.3257027080198871,-0.3601981652335522,-0.46713761345983823,-0.6762283411321712,-0.9079926438267955,-0.9613271887412536,-0.9193161113258221,-0.8908979029125018,-0.8892642650175527,-0.9030885721156454,-0.9147908897787783,-0.9003618444562707,-0.7904850199978428,-0.40213740949645493,0.1832782357706136,0.49524271920011276,0.5618279766299601,0.44713517284695664,0.20403463962610982,-0.06770826359042474,-0.28625770656614813,-0.425467181526868,-0.49272776640177013,-0.5121782085375651,-0.49926988489733576,-0.44196143129597,-0.32012275804332113,-0.1213207797756342,0.11616466172035189,0.3249837137586884,0.48592575761358414,0.6057537055438518,0.7169839315265377,0.8283259215121956,0.8908133723692425,0.8718673357657285,0.804321443381942,0.7147269859583116,0.6268394030159541,0.5554147182382299,0.5151400081774006,0.5267729525089346,0.6237671881565662,0.8025641934968161,0.6914908991959248,0.48587028448585395,0.3951447552652171,0.35439175293018965,0.3281976277752595,0.3097353509161852,0.32429106169370486,0.4002024739820027,0.525385443799156,0.6797555246361937,0.830039570092438,0.9162150564581196,0.9271108451957347,0.9028888041010956,0.8714141945613252,0.8393342140406306,0.8047418215310506,0.7598645363104748,0.6974802891073514,0.6115124918702572,0.5035403145392445,0.36449644923069535,0.18939439252653495,0.0035593572984857643,-0.13172159257575816,-0.19090090563889872,-0.16186856059240978,-0.05186014851055399,0.09266040125964509,0.19359481678353477,0.17782307279446016,0.012347713369089044,-0.2740273643156063,-0.5339375393962615,-0.6960407539767907,-0.7960763975229482,-0.8566523143513342,-0.8861082963254224,-0.87779934545739,-0.8193697818366608,-0.7601104928274226,-0.7529124097897988,-0.7939923235226367,-0.8452291773908601,-0.8745232391275124,-0.8818469813510428,-0.8877019457188785,-0.8899893769199853,-0.8689694524595432,-0.8359797687822063,-0.8077242472882873,-0.786624530749876,-0.7671700782428561,-0.7396837086609477,-0.6975094496647614,-0.6451528261878534,-0.5871088598869066,-0.5054256276867742,-0.2604214795398429,0.25357989947613163,0.33974401554573547,0.27718798572800607,0.21206761888104989,0.16110745616788374,0.12455603605507345,0.10164916909259995,0.09442362834935543,0.11428160186557926,0.24515460558046107,0.20249412409048723,0.0952558068403496,0.08846610376121954,0.11378348353970362,0.17186848896650947,0.2799604505420393,0.48039301186511035,0.7504407030335255,0.8255748788278245,0.7696419449187306,0.7512536175770724,0.7471669326611672,0.66315959828148,0.5455520776850875,0.4879884616505623,0.4594970939798097,0.411170165977164,0.3470954677113038,0.31180289297776903,0.309993209244598,0.3502766885595763,0.43511515388505184,0.56024926759355
