-0.7620460000831465,-0.7907524749749738,-0.8261742477195673,-0.7845845431483883,-0.5359670588301736,-0.3002747919353445,-0.15841172681880722,-0.06971512682917545,-0.00909806201451512,0.032776931980858355,0.06039622207757899,0.078714151690944,0.0987146199560998,0.12063104397330435,0.1331322079704971,0.13792086042758336,0.1405322853629604,0.14215336025355563,0.13998422752307588,0.12474514346232607,0.05035686842033525,-0.14922118876451426,-0.3030673480766436,-0.35665147047923823,-0.35302740436943736,-0.3140739231053592,-0.25131998266847644,-0.18191362727747257,-0.12356511119062188,-0.06969735546669648,-0.015111500968784063,0.04322787312750897,0.10293891907971661,0.1541329953203608,0.1751462737169002,0.14717323548161762,0.06701332687385961,-0.049170254148138616,-0.1744138168121952,-0.2844332007312076,-0.37137276660059687,-0.4359087416496618,-0.49113938913659594,-0.5655903802697633,-0.6909485617558169,-0.8320360339662599,-0.8227549813513468,-0.6537515247229968,-0.4566549642817352,-0.2674513792102743,-0.0579771026124783,0.19804713643276928,0.42124850186267776,0.5436648610532153,0.5996858928971079,0.6294719695012598,0.6542276858241253,0.6756682515273945,0.6750275105385384,0.6219405872659327,0.49348955829840596,0.3318377424616072,0.2530414557373175,0.3186750917654155,0.4167871606468706,0.48919605722399795,0.5351904348647879,0.5649049127603487,0.5872776500684438,0.5957718245892599,0.5499406402814896,0.4054988787523306,0.22168866760009737,0.07097517253245633,-0.04560054156148277,-0.1340257030886776,-0.18442264167644057,-0.19074921769929606,-0.17440947671105742,-0.16769812557198105,-0.1860453453180536,-0.24234127891040316,-0.38687449570923527,-0.4071020102182384,-0.21770512267838754,-0.1461104993730106,-0.12448108690163537,-0.12563194569724662,-0.13948880018261192,-0.1564189213082936,-0.16386527659269634,-0.1586259974438607,-0.1472134593012583,-0.1465357494410231,-0.1771582431315881,-0.25435767591843034,-0.38814819032435943,-0.5860559413212779,-0.8147069391749725,-0.10314982425583306,0.43281334393382703,0.6246926784911141,0.7174484440847599,0.7584842991276265,0.7514076438297521,0.6796235999021077,0.5338482715326089,0.3569968774667556,0.21727492733189485,0.12412976075653114,0.036770332825045084,-0.0855641030118133,-0.2004415476360692,-0.27845659485747964,-0.34340625274643194,-0.41156303088894847,-0.4855460589449922,-0.5582109983402666,-0.6031271275045794,-0.5932058353537981,-0.541519983359028,-0.476933260449223,-0.3551317375684612,-0.2361010907759163,-0.20754765744534318,-0.2377384763406668,-0.29579740353659784,-0.35375577015661086,-0.3734507118181475,-0.32713892440977166,-0.23658561434962067,-0.14289800241021838,-0.06331561640259387,0.0023016591719951015,0.05815322300772561,0.1148925807720157,0.18602010892085075,0.2652591019023927,0.31745968255541773,0.31908009774156676,0.29160221324218294,0.2614366513880559,0.23799683248483988,0.21417086116857859,0.18300494324656116,0.14732052474395807,0.1116493247584826,0.07689097538090091,0.0395295599635423,-0.0059711584311953,-0.06198126592009639,-0.12447607253846571,-0.17481013167024548,-0.18758758155726654,-0.16417425286022103,-0.13437773526169303,-0.12000699759656891,-0.1429880879815314,-0.2316246333624845,-0.24826285964705708,-0.15822353697760727,-0.10798618201320138,-0.07867522554346763,-0.057879227250956095,-0.03756673112146401,-0.010505193078818496,0.032082979242467245,0.10279684286744478,0.20146351158714532,0.2828138499803094,0.20137881838386285,-0.335701371487673,-0.6851781409971175,-0.7470914994470249,-0.7423066159858304,-0.7070848834282922,-0.6504570095527983,-0.582618621087653,-0.5125066999580685,-0.4373036040591521,-0.35349764449424526,-0.26204852030293146,-0.16949678444921124,-0.08335713833527802,-0.004729359342261828,0.06222637055936775,0.11039780691856947,0.13454657840513937,0.13447198481168574,0.12095929431684115,0.1010935440705468,0.0804184095417999,0.06168385822218765,0.04681374549529814,0.03702261862313087,0.036968982754568676,0.05493280524992791,0.09667106171495496,0.1625893299758784,0.24386248855267098,0.3319617932649205,0.40890643293668244,0.43125886969743205,0.3511184776077352,0.2364899607369126,0.15276589095136747,0.10640119496023978,0.09334738695989456,0.10792128774934838,0.14027837478616703,0.18089592505388463,0.228291970746292,0.28414537805054835,0.34748739799181527,0.41230999564470516,0.46492730968861984,0.49360274805167537,0.49665460011032864,0.4901226898984385,0.49040131319450786,0.4981407093560467,0.43878112245921064,0.2938709882866717,0.17143181984590072,0.08633648889658403,0.019426978690583685,-0.02238918331807728,-0.024784594051782665,0.02755841886087674,0.12915513842200732,0.24923953534503912,0.35267291977019616,0.4196063727791332,0.4366978635276187,0.4051260322593813,0.33505943316148756,0.24249468630575402,0.15233780829498025,0.08563604552440765,0.041898854750805035,0.007698140994435228,-0.027699632294700266,-0.06697832762974161,-0.10053811016169813,-0.10884823252342983,-0.05928008132134876,0.0858682424756601,0.3274976554180619,0.5789035212095608,0.6993660595284522,0.6287370048788695,0.3936686182154137,0.09488363228827904,-0.10725143665533884,-0.17088506042256094,-0.16176559044220398,-0.13138555245532405,-0.09991687835772801,-0.07659240781140335,-0.06413183219357173,-0.06125046271814456,-0.0670021705719565,-0.08344094638927124,-0.12633681552377216,-0.27531982812300526,-0.48645718983223807,-0.28757488991857416,-0.25078483182245226,-0.2595888758754872,-0.2630531176784304,-0.2218186724796943,-0.11381039595676769,0.05294673908717765,0.26308964835747944,0.5140278897475753,0.7653417507186113,0.7685641325683118,0.4798346923269923,0.26314117003346255,0.15531593975854083,0.11116320913653537,0.10662806658092398,0.1393413000187045,0.22297297307572006,0.2601497179951573,0.19330526916954688,0.1620724036579248,0.16849567433218032,0.1980472700958383,0.2329449162089564,0.25350498445074887,0.24716783961649316,0.21355742345070988,0.16074254041295766,0.09507176892141303,0.027090657974338586,-0.03224506944403479,-0.08225323537341263,-0.13283109404250465,-0.19949630785656472,-0.2840925350178374,-0.37691032358643595,-0.4665436211764405,-0.5367467595016586,-0.562961939569255,-0.5049794856474239,-0.2957959701895222,0.027072751565568605,0.2617872949109143,0.3695375356017945,0.41275002976058534,0.4354265474550681,0.46639902154636415,0.3087539906794667,-0.0686981761363219,-0.17282489638128112,-0.22682096594679707,-0.28583636687165265,-0.3740397462554464,-0.5063913495181132,-0.6402030412888782,-0.6896836183525701,-0.6851190944056881,-0.6774838136933314,-0.6753713090763318,-0.6768128226339962,-0.6822865961983094,-0.6919713021019291,-0.7041244457149238,-0.7153979379083998,-0.7267603955645985,-0.7440312341129858,-0.773658687234099,-0.8164212560882157,-0.8707055444883657,-0.927704530798456,-0.9513283289065803,-0.8073887031403776,-0.3134934932915534,0.1357179522032379,0.3210887343637307,0.3736038539548545,0.37680917179698326,0.3701947242245425,0.3744045819781896,0.40174600534379734,0.4572118156540445,0.5337658520013285,0.6141703481525767,0.6809726930543385,0.7297421563260398,0.7647393705559586,0.7921861082464642,0.8118766212357792,0.8178804044958808,0.7960288591439211,0.7362976744598391,0.6587430898718134,0.594087373121652,0.550981101917399,0.5228550888864307,0.4840203579464941,0.33824670991350064,0.04948319671381965,-0.14971637237834876,-0.23863138161140035,-0.2715488317055733,-0.2770056926950432,-0.26631826524208707,-0.2419669654824969,-0.19076635120288166,0.10580427043434353,0.23313629447646947,0.2284285852265213,0.25608687533215907,0.3247892073994031,0.4222030633518564,0.5282989052181658,0.6206087096343299,0.6955198856095577,0.7615385726754218,0.821768297114498,0.8716197449445803,0.9095321067900934,0.9354535823508842,0.9405360231157897,0.8852691053487755,0.6917267834311793,0.41190950343727034,0.2184519592178092,0.12477589107106808,0.08249992998247459,0.06174651275672299,0.04610942401314486,0.023547073044867823,-0.014976661287675675,-0.07148201527609829,-0.1365316514923218,-0.2001968713491873,-0.2561200910494041,-0.30665524466908145,-0.36094932054550644,-0.4382934596040418,-0.5506815985861279,-0.6554050450894077,-0.6257219574681717,-0.4959055339245375,-0.384624681264513,-0.312731147192701,-0.2700416130159887,-0.24814639343106656,-0.24285917949275618,-0.24375729334522986,-0.2438525288425246,-0.25118842492304516,-0.28865154101765667,-0.4101995181664782,-0.7299326973724174,-0.5993672685078258,-0.36253017019308387,-0.27004394389777997,-0.22683488731746987,-0.20306453020419823,-0.18978029435167112,-0.18890108503252387,-0.21641636082917692,-0.29036580777288973,-0.4085474287539615,-0.5411073587664739,-0.6466559145262429,-0.6984559787883413,-0.6960190743003396,-0.6370736262130127,-0.47786805492621587,-0.15245926109382069,0.20663892779256607,0.39331582953029137,0.451610563319259,0.46216732941481575,0.469797354381945,0.48938436352999176,0.5145631104212479,0.5204284009889178,0.4823460317429975,0.38425618719099647,0.20909149776226554,-0.025342274985268604,-0.22970446532875552,-0.3508083044912943,-0.39268578781408314,-0.3519207709870651,-0.13756435908628808,0.12618435939280978,0.21108239781304372,0.21166928156941853,0.18031954681041754,0.13183487884251566,0.06713732637277908,-0.02584808317042317,-0.17697686580179878,-0.3371271683355613,-0.35282130283503893,-0.30930212354542364,-0.2694741932820386,-0.24196441208037167,-0.22579510418643745,-0.2287770870062708,-0.2616015860886101,-0.32382524247165145,-0.41509260503710327,-0.5678488864191718,-0.8024875909594852,-0.6660743484763081,-0.40420022340939565,-0.2750000375119223,-0.20768378590615535,-0.16441656224239498,-0.12319322393517494,-0.05923278472045429,0.07601982460174557,0.37520273566956996,0.6993336862720534,0.728790296676473,0.6424130564900207,0.5195943723533033,0.4026918355256181,0.3165071714310853,0.25803937487473977,0.21350615678557425,0.1685383653226185,0.10148284387785908,-0.02020606756591579,-0.222998556026087,-0.3946155608689401,0.13143219140926365,0.5610771440322456,0.7011609406641586,0.7395565994063557,0.7232092888793549,0.6495373435727277,0.48641087728586185,0.1984478424548006,-0.14261276733886988,-0.3760306121813038,-0.4790189849519232,-0.4983078823322572,-0.46575417963899446,-0.39562219059003567,-0.30974126766772664,-0.23185398516740138,-0.16995931135002423,-0.12224132613606603,-0.08407215179435998,-0.05459618102764221,-0.03287661157853932,-0.021003089542352277,-0.01646654524463253,-0.015093585060871887,-0.012098607769788721,0.00017228853906326247,0.046648748625621086,0.07976847351368954,0.08316163079507087,0.08953116929028818,0.1031475120386661,0.12481319729243706,0.15519878365955933,0.19129565654701572,0.22852649371757644,0.26060091662289975,0.2829016136414571,0.2962065329893507,0.3035117401643186,0.30612627258108294,0.31046854166982496,0.32445507191794,0.3466428099026551,0.3645957089399989,0.3528579970862762,0.30620194612464063,0.25526552745749,0.23153404087692517,0.2478203045448158,0.30644520772075745,0.4007793741795908,0.4862990044793443,0.49081674333422637,0.39757567147892153,0.2720324515944297,0.1793032426043211,0.12875993232875127,0.1070352610414543,0.10150336805841734,0.10796061987168576,0.12765698581506804,0.1416939726806064,0.05476787216072642,-0.056164724902254985,-0.15199648542805663,-0.24886443261955551,-0.3374058903059049,-0.3991068164293984,-0.4218551214296156,-0.4076127275853585,-0.37005117441820323,-0.3219858882513816,-0.27368360433605604,-0.23630185521364155,-0.2168996067654257,-0.215674147394092,-0.22694577196916732,-0.24196512959112543,-0.24434833463243003,-0.22517279708916527,-0.18508129389796651,-0.13597359401857856,-0.1034084632822033,-0.10094742025290813,-0.1231844349859394,-0.15991001122375315,-0.20429141475393933,-0.24943151442720846,-0.28740614215422916,-0.314540425549884,-0.32990871612395134,-0.3349774638071876,-0.32688818209875187,-0.295378827550358,-0.2161512388259457,0.010416350317431005,0.21153924041661143,0.24154321268334034,0.2317652375839832,0.21516845532628726,0.20043455183232856,0.18592779485462493,0.16578769948212038,0.13321103307256038,0.13240308789966704,0.23377972709032613,0.4047354959494683,0.5376312870647705,0.5151238214053708,0.15963561721965758,-0.31195217805308445,-0.4640087772614205,-0.4341448230139189,-0.32556707901907433,-0.19073417080465827,-0.0656455478034504,0.03308158702769189,0.10985340704332215,0.17967269743870998,0.2598656728399405,0.3663500044354765,0.4909604794097219,0.5253938684017478,0.43176151759456816,0.31308747864528713,0.1285959070170888,-0.12141242897630686,-0.26146735324013726,-0.3335103788661192,-0.385261636861687,-0.4241550132486246,-0.4459527883794231,-0.4557024716477153,-0.4595145748199161,-0.44698460437969767,-0.33637350277395794,-0.05003488466529348,0.13961178405614005,0.1922686648970841,0.1731886659078218,0.10165014961892256,-0.03509873286023796,-0.22253118086354873,-0.3115950173328675,-0.2471644880204963,-0.1427364045043171,-0.055199507267462505,0.008545227761339145,0.052258378015053626,0.07505698239158826,0.043433415196081036,-0.10787877664363875,-0.17413562010114905,-0.212011209326343,-0.24045104555770933,-0.24601790669124865,-0.20828414775273135,-0.12209587954610551,-0.010980351517373902,0.09304223845261704,0.1670848161137831,0.20202142355571026,0.19661771368102293,0.15715114081309783,0.10010065999427123,0.04788927313426846,0.018316747112491958,0.04938641035434275,0.1372975529971817,0.19331794125776547,0.22601893252319788,0.2485779338933428,0.25701815035647285,0.2388861750197285,0.19870129678943038,0.1535760268019599,0.11701148881439032,0.09482839144031732,0.08635761970406992,0.09116126181168228,0.10896142999336556,0.14299248213434443,0.18021357095993734,0.19904610789131572,0.200041892117812,0.19511118883462525,0.19751250599432127,0.2227620128914956,0.2928132632527632,0.4164436787122909,0.5202325201480756,0.5639167151219698,0.5933868765770084,0.5758679552930935,0.3507206413593265,0.03379626477920527,-0.14200028514455054,-0.23414031765688845,-0.29760043314140433,-0.34913845257899623,-0.38164780296237816,-0.39181489706103323,-0.3827425009224326,-0.35934320044348356,-0.338950843665321,-0.3535730386340658,-0.41105311013697926,-0.4899459538958909,-0.5588254972450718,-0.6012789792606293,-0.6137580630770632,-0.589282116662173,-0.49803203502146276,-0.2717998916175869,0.09382628262732395,0.35347772617899575,0.45829991834983835,0.498131900700733,0.5149552538395842,0.5201716855190458,0.5280220684835587,0.5659869749171997,0.6801279846728637,0.7885260137936098,0.554290079625954,0.37557403250225907,0.3086646648711556,0.29227085070980696,0.2918506939566409,0.2768718451088328,0.22266317735274838,0.12300771343642238,-0.014237158856534383,-0.16812038178382152,-0.2995986131700025,-0.38799170263836597,-0.447812017685012,-0.4988235928855032,-0.5618525819960777,-0.6491237553441246,-0.751319915694837,-0.8368315182512113,-0.8578174169985787,-0.7864684376721759,-0.6532485969697989,-0.5231861668575212,-0.42204278082018726,-0.33698633924940574,-0.2494019902604519,-0.16848258747767167,-0.11259315161106316,-0.05395977659460002,0.1281999546576285,0.5413750322680971,0.844864963745195,0.8986551648828789,0.8240705204348757,0.637059644328345,0.3698837587675169,0.1259108617680174,-0.033057213181986136,-0.11347982168188193,-0.13940089964821004,-0.12902082482960875,-0.09466776013225252,-0.04846263940812057,-0.006966356395268939,0.012683871596798306,0.00537173910270406,-0.02195063682951693,-0.040901964698321004,-0.009581003774794612,0.05822653977154268,0.13284646851497606,0.20664835452277108,0.2783996958479896,0.35214866556406466,0.4284441186102241,0.4993549702067918,0.544491714406391,0.5441717944004493,0.4917987965018346,0.40004648580303775,0.2926240730749475,0.20904185600117353,0.1743531235676951,0.1830788865735824,0.2159184032819827,0.24721545415758742,0.2508334315928423,0.20256280631364926,0.08670530508543364,-0.140434946691796,-0.6174136113878376,-0.7690749580934313,-0.580406194497841,-0.464612382864401,-0.3886161147255882,-0.32880977288078084,-0.27954582857387367,-0.2419686124749513,-0.21622175926578294,-0.2029473651685527,-0.20136397089926547,-0.20844383822264861,-0.21968051043487508,-0.23187043720528644,-0.24904733236476692,-0.28371062463630936,-0.3569547543264524,-0.49804166316055004,-0.5698033975336328,-0.08925721596321312,0.15797117109696227,0.260493504334069,0.2949206581023428,0.2830496538965453,0.2469777053129657,0.2086441692573682,0.17638243815225554,0.14893621425960232,0.12640954031037852,0.11362894446316622,0.11700051407784351,0.14026148185205797,0.18315584258021342,0.23721032779820242,0.28150371613203523,0.2934781911955241,0.261958453371718,0.19255095681298812,0.104821851112237,0.02465652336655131,-0.026513290634154533,-0.04696153080987625,-0.045749520679456306,-0.002238694590658923,0.05922156609533364,0.0541770706771409,0.055250106301924826,0.06421195022125356,0.08469173625552791,0.1237960555225931,0.18678067267924256,0.27112566507435815,0.365825292407375,0.46277460644514856,0.5553510578026342,0.49511799278146934,0.22537841731627906,0.06054094658419451,-0.025624297005436652,-0.0820216453008499,-0.12410931223670531,-0.15466485942469704,-0.16917408168725906,-0.1700180283176764,-0.16519668900365853,-0.17172763985981657,-0.23018035715211443,-0.38036899486169706,-0.4944325822597749,-0.4936730531309282,-0.47428900420114495,-0.4603172247310247,-0.45694848757801426,-0.46094823503426424,-0.4675810282191381,-0.47011599246357566,-0.4560964742466301,-0.4009397881525031,-0.2562038051301417,-0.03374020147414649,0.14894987358210693,0.27014384890920773,0.3552061902488293,0.4161984698213594,0.45305380055095873,0.4643308836687424,0.44292428099851383,0.37174789859450774,0.23532284604107562,0.05578711849666752,-0.08836658665795,-0.14919754163495555,-0.1458018963657045,-0.11011656590132428,-0.06673488596053768,-0.036924421409452686,-0.028578346535949095,-0.035117791819095204,-0.046425267403591805,-0.05420249884488675,-0.05363101271749469,-0.04464691874296563,-0.029388117318896425,-0.01175986029031563,0.0028109445213289545,0.006503350973780429,-0.009514615839319803,-0.06452145423792012,-0.07384026449652824,-0.05057445470054217,-0.021796970852412292,0.005654962837455363,0.02055998783267962,0.013628560638513436,-0.012460140454228743,-0.043366318323432886,-0.06875985309440973,-0.08905458756117551,-0.11005158037765833,-0.1379599685031812,-0.17742469958122484,-0.2271771722474696,-0.2538687504441119,-0.17654955520871657,0.020130677373247884,0.2313333282171788,0.3855369365928877,0.4943919143884252,0.5799552382536206,0.648154640922098,0.6912347806000516,0.7050838717661309,0.7054798334859983,0.6665844839502119,0.2986933333268197,-0.04327684485622137,-0.16297968551122677,-0.22940161446023544,-0.28984553961904774,-0.34447362620232286,-0.38770624935149667,-0.4118339129377992,-0.39598551839242363,-0.3221644732152212,-0.2059453310377903,-0.0795536252722993,0.034318312296247475,0.12168944717623821,0.18103099113058582,0.22351012704700993,0.26147106701436307,0.2960874774508199,0.3248583995362205,0.33456172422342495,0.31541951342708213,0.2672433217271751,0.20237452559416363,0.14733196224847211,0.11791956887477101,0.1184466507165558,0.145771978686945,0.1919260383898055,0.2544636618118402,0.33455873378891515,0.4286255136257542,0.51626339095574,0.5828859587774273,0.6315676515902795,0.6708524675982426,0.6991839510709567,0.7058622927698222,0.6748914432733569,0.5636652104660643,0.3146175754810654,-0.030962379482125206,-0.31970211254529446,-0.5055181688411555,-0.59586995614898,-0.6145640914509855,-0.5993034397669447,-0.585716565408214,-0.5978536362320881,-0.6289330094527347,-0.6421018829406475,-0.5787687614471566,-0.35248260361341527,0.0827475537984968,0.4997863316163912,0.7231994695694357,0.8086825816668689,0.792316544426381,0.5757861404076248,-0.14104895194952188,-0.6861076775438872,-0.8303470346964837,-0.8561809244932368,-0.8367345173665507,-0.7919851814464156,-0.7367770372784025,-0.6942875609409779,-0.674668099013038,-0.6245538083742409,-0.5085801050888548,-0.4045688274750508,-0.3214079934708359,-0.24309823242405215,-0.15304366889234966,-0.006411954864306242,0.28564208852325257,0.6544856419516637,0.728742312197571,0.6390294254354523,0.5046619903829017,0.3472064939729197,0.18898398322197035,0.051123565710647384,-0.06367171089114136,-0.1547093034788464,-0.2139215371033428,-0.24165194963429126,-0.24814482229826246,-0.25270725515152703,-0.26862259780611736,-0.29636252907450916,-0.3123892747630247,-0.2740877243096841,-0.11539999975177795,0.2749879121459881,0.7330240137293318,0.8321732504373802,0.7715835931226938,0.6555428049787891,0.48607197090171544,0.30164772694464975,0.177511114826784,0.12827133228369395,0.12813083409157652,0.15395655224262605,0.195049934153739,0.24929523771206166,0.3033657984127779,0.2978558098964878,0.24551938784476057,0.21677896229390753,0.22293671123003664,0.26144808258741675,0.3350459068304887,0.4505690194902656,0.6202793326613748,0.7009475538257934,0.30409990449577723,-0.011162933488924512,-0.1851728972447341,-0.2959976188991867,-0.3766036590418036,-0.4455327036177656,-0.5078892627116003,-0.5640125762366089,-0.6158500394005076,-0.6623086646522948,-0.694133766806144,-0.7028747498830797,-0.6907337587265843,-0.6717084111316723,-0.6583329679036564,-0.653476076290144,-0.6582483930734443,-0.6929726719446141,-0.7826571189805985,-0.45140256831634823,-0.13297286916307238,-0.02475040121147114,0.047892220878328284,0.14506079409501116,0.29842653815027437,0.463038876373375,0.5013729005160368,0.43668563941744154,0.30038718911278667,0.11635028458598282,-0.030133365657126043,-0.13237315765293475,-0.2248413106135359,-0.3323290730021364,-0.46135031387991443,-0.547037299395862,-0.5338126598955258,-0.4921582288108419,-0.4526687842036707,-0.3604880620046235,-0.2020610944124375,-0.07581115048025465,0.0032971035270721333,0.057358512037692724,0.10038985630687519,0.13715379647547554,0.1586327169315183,0.1513372836734242,0.12147596442373887,0.0904405472161073,0.07471109250710803,0.0766589051974339,0.09028471365048826,0.10561329765899623,0.11582523144815807,0.11808271492069877,0.11587873705435811,0.11926123891236538,0.17681418236463417,0.07829964781428422,0.035000777185272045,0.035370391075331166,0.0402505714236985,0.04486999542930415,0.048525376364619247,0.05101960439322475,0.052815650755591644,0.053105184931918833,0.04941187509760904,0.042215163589136566,0.03738582249755338,0.03731036310826033,0.0369142551554276,0.038336796902871735,0.04643843843229429,0.06296628074819151,0.09646676680329178,0.17611852840712183,0.3938399296341911,0.7626703925066622,0.6225264188226727,0.4930590979764114,0.43161210433214275,0.3971438012125857,0.37579852418479676,0.36275096298019993,0.36220846522532135,0.38614805764252486,0.4601895462872633,0.6397095057943694,0.7093893579551304,0.32135320101369974,0.09088109552574586,-0.0664377129384343,-0.22312340307141915,-0.41114736979578037,-0.6329202123840885,-0.8189069000026664,-0.8980343228688749,-0.8989900600552926,-0.8745913315963781,-0.8485511587076912,-0.8275388409383854,-0.8109361600038886,-0.7962547008812715,-0.7850171064526165,-0.7738344977877992,-0.7615861347363775,-0.7366062436128651,-0.6666362403045094,-0.5465660728091125,-0.4345119332088725,-0.37439069271203357,-0.3670431137202143,-0.39493777330693364,-0.43931940892251925,-0.47961626410161307,-0.5008219958259741,-0.49730525956215244,-0.4712127502056712,-0.43313931371887665,-0.39789567646693086,-0.36228944428792315,-0.30169414594480776,-0.21557938719406491,-0.12792753472938512,-0.04895500575104172,0.01918286500666941,0.08200775268498775,0.15035718582635457,0.22925179168152163,0.313849273152377,0.3971671064746165,0.4781937528612802,0.553765679306665,0.6171807032210461,0.6666823153519487,0.7048636183769778,0.7376532979859179,0.749699247212964,0.7083181486158597,0.6021153198669552,0.47045430709510716,0.3566199701392947,0.27747124440791565,0.2339505587207741,0.2182830007049018,0.21908174988030177,0.22224972883497177,0.2178501424393025,0.20624472604097163,0.19678988271633396,0.20401939003556854,0.23840036004362491,0.31808414647579375,0.45950644257484824,0.6432108069528644,0.7903493196432626,0.8352794511410351,0.8276299042403368,0.8240410649482015,0.8357878164760933,0.8418517504846702,0.7933020157775169,0.6361091898883057,0.4030619546563652,0.20027123487166115,0.06524554034884393,-0.0025643333803635703,-0.0023827181772439476,0.020561212849802692,0.02875021106790413,0.013939763944200777,-0.026939048128966785,-0.09964634464297754,-0.2115631209497649,-0.35259753134278615,-0.46124232441678137,-0.46149476222921204,-0.4150494648634414,-0.4127421541307231,-0.4710441895123015,-0.5583741262543892,-0.6423780847273131,-0.7089444145119185,-0.7583611233784407,-0.7970417894241224,-0.8318233524156455,-0.8675011765408536,-0.8939994627178306,-0.878470344070199,-0.816419270734994,-0.7530702054827477,-0.687607988463268,-0.5800661027471038,-0.39820665020295937,-0.17187391967499094,0.01671086922486198,0.1331542567963351,0.18333192507816137,0.16859483376211418,0.09796963386810768,0.012406779919345343,-0.027970249945001684,0.02706149451785002,0.20729688674592023,0.4734436284287428,0.7157431475531794,0.8813138572927212,0.9360280177573266,0.6544048996366078,0.3207012530530815,0.1925877978466016,0.16712765331432325,0.1901821038542926,0.25544076633920204,0.3725159508572863,0.48907984568697,0.490598248325148,0.4558551405523227,0.45011073723328204,0.4713243662930997,0.49508948852225254,0.4744651220285394,0.41378288654645856,0.3773000651575477,0.3857362825556709,0.43472382527413345,0.5197363043741134,0.6155659795008563,0.6937038299930381,0.7411480022837662,0.7551564872023523,0.706332169903303,0.4437241349336761,-0.16116070520123252,-0.5358451100363962,-0.650026526564611,-0.650110403580281,-0.5620206261509851,-0.37751946566035555,-0.1387033513171154,0.038057056206773285,0.03729847654701331,-0.27374363719430495,-0.6934577642219801,-0.8711598750681008,-0.9311931134502239,-0.9492547915946642,-0.9294294959193548,-0.8453785652446036,-0.710527364853082,-0.5869168940669669,-0.5042891282499724,-0.4540831729833021,-0.4249682910106143,-0.4138223637303799,-0.40552998395514417,-0.3446561589329752,-0.29632544076628986,-0.3037727834796412,-0.33253534375403954,-0.36414245079701785,-0.3921772675287502,-0.419119378755597,-0.4372718107874527,-0.4166437940335105,-0.34430070227892723,-0.25304540103768564,-0.16216115682414414,-0.06095955041494046,0.08261105718363483,0.29248369219849135,0.5084691103474879,0.6187807504606069,0.6263675130102883,0.5715885885268317,0.48679045136524635,0.3999059750024875,0.3325315196915668,0.30066423443156065,0.3020301212471015,0.2973162495071585,0.2578037803858472,0.19926408681744517,0.13735070473967628,0.07026103436670722,-0.0011590928880092911,-0.05987734886109566,-0.08699270910342385,-0.08472656399718952,-0.061167723924678306,-0.02255608857450143,0.02670982949384847,0.08483466992648307,0.1495773272302551,0.22069645000861046,0.31310663449202863,0.4077126657478924,0.155740218381978,0.032820286230231366,-0.0031396507386507386,-0.01399520023684306,-0.018209966992034893,-0.01991311160028642,-0.015354074407305376,-0.0003985469285797962,0.028476993794868816,0.06834992716697785,0.12000067358959388,0.19748368436298722,0.2923047358721814,0.37938235847633395,0.39593285898274966,0.3387504383762143,0.28796320283112004,0.27171162319656317,0.26097529553261267,0.22600324132617114,0.18412022961524593,0.1478848824548529,0.1148692039673018,0.08124140406999374,0.03898288079315843,-0.02680074074381911,-0.11640491304946167,-0.15832027646206134,-0.1545048701317568,-0.1431559624819779,-0.13841248195110648,-0.14658819257487526,-0.1729103303100689,-0.21809346855925074,-0.2583817221783249,-0.25807534886669187,-0.22218772739091538,-0.17652979235242514,-0.13556583889958165,-0.10742393649637207,-0.0934968597102516,-0.08650458974910966,-0.06548748582167915,0.0005675119303447298,0.15612945155296498,0.4251583137512901,0.6944722013990711,0.8202343163642314,0.8479892509703713,0.8467657164206722,0.8449646519350598,0.8455031689325794,0.8333960350943809,0.7743163308543868,0.5701739234554637,-0.08760576926007846,-0.5818734240704012,-0.6226238062162206,-0.5700963118396958,-0.5221748143743239,-0.534620308481478,-0.6488129204562711,-0.7754779931467136,-0.7471484417467437,-0.6830067900670751,-0.6507912619125528,-0.6409769857045365,-0.6368207954050916,-0.6219408521604739,-0.5809556978937997,-0.5192398448246741,-0.482147226371827,-0.48955999946631507,-0.474157826803397,-0.30478644200223276,-0.11775228511288109,-0.012180528466699267,0.04588489724398397,0.07942120021772259,0.09371287384959834,0.04948744719076703,-0.15722564940557768,-0.22457241176767648,-0.2632208873588599,-0.29336307879680695,-0.3058909949954077,-0.2957757546044511,-0.27358939541730676,-0.25709643796202963,-0.26274461783310493,-0.2958691042501144,-0.3465243463081319,-0.40342497870042887,-0.053429258911717015,0.38120614273189235,0.43830116819541703,0.454219408327715,0.44671221815608925,0.41750119250852674,0.36809785352358554,0.30714795897511793,0.2509561249184283,0.21631939625600402,0.21530148823296053,0.259143488235013,0.36580058853328834,0.561516292350078,0.7964526291830513,0.8686835800133917,0.8238249838674316,0.7831266349028775,0.7518077643939575,0.7117657953427419,0.6490072558345416,0.5502423908794176,0.417860237010749,0.2781454253283366,0.16392584875960894,0.08489616502778859,0.03277243761165668,-0.0018182672036598528,-0.025939777475199183,-0.05339302833624462,-0.1051889938002936,-0.202359854283331,-0.3468626298790765,-0.49218703997753377,-0.5889362277430271,-0.6495342701261412,-0.6979044564279472,-0.7387975782128219,-0.7468959453977694,-0.559293233120304,-0.08945405953171646,0.2213709183733381,0.37843811531694865,0.47052430762241815,0.52233423853605,0.538047965209219,0.5384467190117337,0.5483705163637316,0.5757058601778107,0.5970982714049243,0.5578506059061739,0.4323166568168744,0.2759086898066096,0.11527975067727053,-0.06658188915075076,-0.22793500828337246,-0.30622289210771375,-0.3196122006523572,-0.291680709083713,-0.2393575393956596,-0.18587908398713934,-0.1527900131066866,-0.15698345133042957,-0.21202204189238985,-0.266348195153136,-0.28437695438994876,-0.3052107301384759,-0.33615317373451925,-0.37259339144425246,-0.40346242041894576,-0.41600512130388556,-0.4055551914913962,-0.3766730867950122,-0.3373664917416134,-0.29495955660658496,-0.25265441538758326,-0.21038013593317395,-0.16112595368732427,-0.08217205349443814,0.04469515182206593,0.25581263468212073,0.5519240505513603,0.7610249620211296,0.8056708583425699,0.8014889405478134,0.7972671291171121,0.7932568177003309,0.7825905586130336,0.7682578571966147,0.7669917876706671,0.7861810524950609,0.8109291967878416,0.8204157876478461,0.8087676880355354,0.7632526009885943,0.6490887436803354,0.3759370541287612,-0.04287009052182748,-0.34210537267191676,-0.46882383093957636,-0.5132372445640674,-0.5259309687538274,-0.5292092339630936,-0.5321223877052215,-0.5441771324553449,-0.5679597252881852,-0.6019716841662653,-0.6391222677151006,-0.6657835162325272,-0.6809108026826306,-0.6841943127699163,-0.678821325702779,-0.6756385521732986,-0.6892259252005027,-0.7094444776488129,-0.6981852885695177,-0.6577523289564017,-0.6403164116586534,-0.6761105007997998,-0.6994282946256822,-0.5469780556493052,-0.33739481635702157,-0.1985346496490237,-0.1148082178694773,-0.05475341516463677,0.005063546503117203,0.08617947023278756,0.21201236430051876,0.4160677894490548,0.7342512320128285,0.9208642594103554,0.7678162962301444,0.6091802217785209,0.5002991541724651,0.42058065012408785,0.3567978062372251,0.3047477519637881,0.2600029751548582,0.21499813475055898,0.16035340478281934,0.09357602971961675,0.025924268504040872,-0.01794589780918579,0.0015801981082183179,0.2119539921361192,0.8027396941763988,0.5237762294799142,0.37259508193139085,0.2584467131921429,0.14526638689443297,0.025679777942913408,-0.0915291304397476,-0.1843455211802031,-0.2274021489375778,-0.21214588775629498,-0.1697940249330671,-0.1427925057370915,-0.15421634434150905,-0.21751977464323444,-0.34942287290531626,-0.5407454112798618,-0.6732244286627894,-0.6641263224337569,-0.5943244808872029,-0.5093782958937981,-0.41684287725520247,-0.3238224146887489,-0.23829153405911138,-0.16736743107386434,-0.10979175832275741,-0.062640552216387,-0.023688391332158127,0.014755640595023255,0.05378322540411762,0.08598275004018044,0.10166939334330075,0.09540211620924954,0.06999472962588997,0.0361124138477262,0.009768054286614947,0.016167648227357286,0.07706460626951063,0.21558140871513645,0.4209232479975014,0.6068490745357131,0.7078108182452126,0.7314870944341708,0.7035805545487037,0.642195720644317,0.5592870348108946,0.4682278208684204,0.37807013440817394,0.293840804110539,0.2152785523683742,0.13750861612125542,0.047196236684390463,-0.06815608415533476,-0.19658145221304754,-0.2759109115685174,-0.26904982516066706,-0.1966148006301781,-0.10286202429741767,-0.043270221047933315,-0.03195072662190699,-0.06578781415677863,-0.1479527186393139,-0.14233348547772606,-0.060370008387410135,-0.0024736331284755963,0.04892288218964388,0.10825407582423512,0.1945730525470931,0.3467786433889541,0.5945952167653236,0.7168391910066083,0.644889005166726,0.5689469796593827,0.46801006086786867,0.31752806263989275,0.17647717745730235,0.08349244870901443,0.03447664931335787,0.025144230108637606,0.04746632432934226,0.07353840345653925,0.09121400155927935,0.09863607275291929,0.09582817465022597,0.08240005854302022,0.058599266380827214,0.026074718575637007,-0.013912781382568186,-0.06124122924513639,-0.11074686385354121,-0.15834513118580976,-0.20523847079412588,-0.25584950341820345,-0.3198068659309899,-0.40912336944940036,-0.5375151385908598,-0.7023793816193232,-0.845725289889439,-0.8755561876658244,-0.8060615317869521,-0.7197766276622732,-0.6566161178176095,-0.617280636371236,-0.5923783809886451,-0.568452146888633,-0.5280201236059283,-0.4657414629917356,-0.40956977302234665,-0.3921912338599671,-0.42063045899080215,-0.46376826211824174,-0.4781983341345756,-0.4273038012619456,-0.3082744759518657,-0.16145676801693554,-0.029618889857545596,0.0736812141556206,0.15767551967042379,0.2051244212832617,0.1998546120971337,0.16928314316361706,0.14205675074873778,0.12384667255468344,0.11062356346362907,0.09485274826278983,0.06962781816806665,0.029187111629889673,-0.019374964516223187,-0.06043053112571957,-0.08314243721967847,-0.09819613793917338,-0.1108249065674798,-0.12257622959609983,-0.13195104128818577,-0.1340360625287915,-0.12906202809770828,-0.11832923148393011,-0.10149305196576822,-0.07440157923282686,-0.033314743690599585,0.025465967203544444,0.1165203802447092,0.28601799886440815,0.49100003300167405,0.36233626520971574,0.2588341945624155,0.2172388237164705,0.21228785138935047,0.23234514954030716,0.2633626991114787,0.27366487488755586,0.2433572628308627,0.19014313293334592,0.14168881205852812,0.10547575451042203,0.07470202379013022,0.04121520792500651,-0.004421856560051317,-0.08914879173538998,-0.3244407383144872,-0.4857478198415202,-0.293596507630372,-0.20307392892153517,-0.13596439313760966,-0.05586818004095634,0.039197327781302624,0.1252915355364458,0.18638734537622687,0.22390552688896564,0.2437570414566796,0.2559649242340354,0.26113908174830813,0.2577901864563356,0.24239034287125552,0.2226874855741296,0.2098540437195446,0.2103477136780099,0.22499276859418793,0.2632269605659332,0.3143479183805949,0.2953180817933465,0.2070870092483139,0.13688968554734124,0.09144371709757083,0.06063055066050866,0.037965748813361615,0.016589647283235913,-0.013288986972368402,-0.059544191889108214,-0.1141219388680001,-0.14596426008567467,-0.12749473547029125,-0.07238457253414825,-0.01644587182458273,0.013726513442312648,0.012992779093051786,-0.009395815787197621,-0.0339145674333488,-0.04445710162964294,-0.03954398100185702,-0.026664236816155026,-0.011782774498158632,0.005248861325531358,0.02403163569480617,0.03899184649773484,0.04043282835822166,-0.009384835354271872,-0.13573872910991358,-0.23628118823545266,-0.21305703871494827,-0.10897723646084717,0.017648716145599215,0.13034683874689568,0.203066404290993,0.19875878122995902,0.10680071297987839,-0.008123376928429783,-0.10047737972374113,-0.16708594952541375,-0.210792941518019,-0.22960246793677053,-0.22467883781515677,-0.21728476383907236,-0.23783793168794296,-0.2982338404247948,-0.30046789205317304,-0.22488264716310466,-0.1612331382509405,-0.111294420718101,-0.06829440422860177,-0.03209883736257288,-0.003313046504757483,0.019686433982369904,0.03845679112102933,0.05607080420009119,0.08142354217892044,0.12917118236315334,0.20235685296821063,0.2545826670632491,0.1913469871526711,0.08914188607139725,0.015688611341933764,-0.02524762113588277,-0.04022373000660535,-0.03838915299699715,-0.028627903449941924,-0.019721843843954916,-0.017176494796980152,-0.022357904514667275,-0.0335593929203538,-0.045913462520498716,-0.052691999401443534,-0.05392044358294622,-0.048644657311307786,-0.04032823369368566,-0.035082307212701044,-0.03799014517116413,-0.04997057594280595,-0.06048926814684891,-0.04449804312168116,0.015223526839773436,0.11948452340321036,0.2295947701337718,0.2941630954478017,0.31795843730147294,0.3276665485042233,0.3301291568280095,0.3249909095186459,0.31013661530914177,0.284649344356109,0.2507226689489126,0.21570935335459948,0.18920928840621945,0.17621753591579334,0.1693683800074463,0.12623130808039057,-0.04901600245380664,-0.21503913297514898,-0.2439810946319519,-0.21500791631065297,-0.17497037790294853,-0.14224813329787275,-0.12295893125320395,-0.11939111806625388,-0.13511557408284355,-0.17603689593689373,-0.24645539782684375,-0.3186936630904926,-0.3590171052088556,-0.35807839902355837,-0.3019438274959113,-0.1927342862083803,-0.061665495023279046,0.06959579627192262,0.2203188045228896,0.41161086452117285,0.5909343960156258,0.6610817039913602,0.6318781377154722,0.5690367157705456,0.5078116653605631,0.43071396855962796,0.1015659217569195,-0.23095374555688786,-0.3403911156136919,-0.4039808460521824,-0.46195556561826107,-0.517538139015217,-0.5656336665927894,-0.5982796676312048,-0.6052927402664968,-0.5797520581176465,-0.5283460415941776,-0.45459787208296465,-0.35016781268863667,-0.21276334080752668,-0.0625595649509038,0.07798918371967892,0.2003352659351324,0.3095464456738762,0.41627437010454865,0.5518820243639313,0.7658830371632417,0.905479818051981,0.5843756403164835,0.3316673821643253,0.19516327904500333,0.1100446742072148,0.056347054672884575,0.033919610576798376,0.040111663783965426,0.05311050726203559,0.05657051152734569,0.04722872959788604,0.029694212334392758,0.006089673403198311,-0.026332142240507617,-0.07020400345276538,-0.1278971842377992,-0.1970398371868364,-0.2686605261278181,-0.32273472564455075,-0.31478259742713993,-0.20915572566174812,-0.0626642351811932,0.037657481393558415,0.08518632714389018,0.11023179126627546,0.13822862407567224,0.19450702211880536,0.31363942235262393,0.4632869442796998,0.5229812317148621,0.5275525689633965,0.5067821233238166,0.47678969435812385,0.44847565329039263,0.4200466891375293,0.3800623642241233,0.31413363046257664,0.20302454487890279,0.022296536786742906,-0.24802294215030568,-0.5615459664564564,-0.7737312417466179,-0.8147643618525313,-0.7588990137766788,-0.685126629308966,-0.6248012567961359,-0.5695754368756223,-0.4961741579197955,-0.39980469974697236,-0.2996560577256243,-0.2239585481309462,-0.18803406639790118,-0.19541742240016566,-0.23482777013750267,-0.2925748858018901,-0.3515320205574092,-0.39631820811767376,-0.4148671677567039,-0.40445720318027545,-0.3737300351946246,-0.3331010773401888,-0.28952391532790306,-0.2544176920540884,-0.2454548910385808,-0.2841069724266839,-0.4043306589957708,-0.492193522553842,-0.46209424254422143,-0.4923008813848829,-0.5995669770299579,-0.7071596515668758,-0.5890906068654935,-0.18263803002557602,0.3392428810229427,0.7000090655364103,0.860985498711567,0.9166825932764919,0.9207720990770981,0.8950499360331247,0.8476102678192019,0.781214387602615,0.6917356027108946,0.5531825572135054,0.3215336418751621,-0.0186370784918689,-0.33739473536279513,-0.5288022207241477,-0.6259576038203845,-0.6639976698122928,-0.6390834009160031,-0.5556370769336222,-0.45357038950330636,-0.36949157374453295,-0.3060941372636224,-0.24938231404777053,-0.19049286298434065,-0.1285800486479061,-0.06942320127074039,-0.01789163620147372,0.030719516238149606,0.08858023802375685,0.1715070766533734,0.2943977114885004,0.4332463281534064,0.5031217687912574,0.48435991613141394,0.43573622236672643,0.38754399338241763,0.33125658680996656,0.226564495474558,0.08229165121415698,-0.02789689219486829,-0.0953204327313803,-0.1486196069786501,-0.2218816370466866,-0.3692747994393476,-0.655861810770307,-0.8610130720178015,-0.8173582311142572,-0.7720199482332838,-0.7873872729364162,-0.8697823789099033,-0.9179803189698925,-0.739673640402021,-0.5131716743382558,-0.35987657564320275,-0.26209029511087156,-0.20196138159853225,-0.1626937079643502,-0.1117973052053367,0.03321874978099928,0.4772444123600155,0.8321698895120874,0.8249144897946663,0.7800904961392046,0.7195756758881522,0.6303854129399622,0.5086473104543526,0.38281149716944873,0.30445359409754047,0.3042946995073382,0.28268786153469777,0.21633203569217282,0.15563326887311807,0.08922516187341756,0.0064950708137129776,-0.07978807868660745,-0.13013639982411793,-0.1312332124633598,-0.10118912179327542,-0.054991768269420586,-0.0035552180876335013,0.04725785706753973,0.09409711428471758,0.14434304121173788,0.21343540913023787,0.3062350535558208,0.3880246875081409,0.41378812704960943,0.3970867336206391,0.3632503964576459,0.3232008633503788,0.2751860995033672,0.22101951380550164,0.17072124562104293,0.13514845516068225,0.11815565363846268,0.11757819350264935,0.13020410669519547,0.1551392525371296,0.19569401652602592,0.2621374296999344,0.2876985524743334,0.16728175363859943,0.09302285402128892,0.0591580722869678,0.04350196642371473,0.038793351425039924,0.04385358413930562,0.06478956684524224,0.11833035229360038,0.2413516688317331,0.2810731079515803,0.17468572841815566,0.11652379770002516,0.1054898310237418,0.16163849689755977,0.3125026627885413,0.5296311583917928,0.7041005720804541,0.7726993788984977,0.7577935262503687,0.6704618348629097,0.4731509495976936,0.17554716570158743,-0.05965406813269198,-0.20692243293315088,-0.34742011235564946,-0.5421363920810525,-0.7059237683335762,-0.7351267194770135,-0.7085473070823253,-0.6671887499414865,-0.621760090994743,-0.5825383614631751,-0.5522046186648533,-0.5269138820412885,-0.4897711127852291,-0.38307077784807575,-0.15033743663294558,0.0888651123647099,0.23029440407183852,0.26040661883710015,0.16712088238196632,-0.054419270034215865,-0.32893571208785843,-0.5444028132034977,-0.6895250969709589,-0.8063953314312723,-0.9023989980617027,-0.9437181191748468,-0.9461358690111795,-0.9748781550714476,-0.9635161604831884,-0.8239832307639667,-0.680958396954849,-0.585314111728462,-0.5159439157753803,-0.4492092525214064,-0.3472539695968586,-0.0803562889701388,0.30851346886086195,0.4746189941646856,0.5180359930116404,0.5198955943804701,0.5158791146751893,0.5219074211467372,0.534626658255479,0.5381492972672829,0.5063649298640434,0.42779736369356947,0.3330737563982467,0.25848009268238903,0.21382555487113653,0.19250749359614652,0.18720396904379422,0.19399690055884936,0.2162878828898227,0.2650501295486709,0.3838833431585443,0.3953468625543063,0.2054067577261235,0.14025397608312332,0.11929501033337704,0.11165324891602635,0.10850000931228718,0.10779317985173255,0.10917325629594592,0.11300351488452229,0.11657589231899636,0.11690920990190878,0.1117051579280219,0.10227254074974533,0.0911012273623667,0.07646207748026358,0.048596798389844195,-0.00238064177238682,-0.044369333728127375,-0.065294856131937,-0.07093100256715405,-0.05900057746909327,-0.008564649106321853,0.04695446235208537,0.03720837539921553,0.00016569107511035854,-0.03372233237944126,-0.05603018377919538,-0.0666873186249244,-0.06972981829430934,-0.07105809508653338,-0.07670217078069513,-0.08792043977117103,-0.10490902476907307,-0.123353805105883,-0.137119843053334,-0.1384803650017025,-0.12763703462013354,-0.10847416164697866,-0.08347511144834602,-0.05024347398062717,-0.004645106777262498,0.04745569935990317,0.09574654691105595,0.12733884648735644,0.13353266455287816,0.10926985761073105,0.05950623366955337,-0.005462594593781298,-0.08132722964671214,-0.17217139197374692,-0.2781995339355789,-0.39185547692389167,-0.5053337278340839,-0.6075898079151416,-0.6964335611221555,-0.7637183419305016,-0.7973273609462493,-0.7530976139009017,-0.6050360595357797,-0.46661576328805615,-0.42374668263596765,-0.4509168463669168,-0.5100140324098269,-0.5678781575204137,-0.5851842964926585,-0.5549452810065553,-0.4891883105957488,-0.3839069941279198,-0.21944637406812825,0.0012526693163282105,0.2304918697800762,0.41790654731395704,0.549056778250881,0.6367495102425188,0.6987878363639316,0.7480395179738012,0.7900920589114907,0.8294489473710858,0.8719895422715547,0.9221215078960953,0.9720277113116645,0.980614741758568,0.8788563843956205,0.6575210374633241,0.3939777408624263,0.14859046694793265,-0.056869522493153093,-0.21988750439123977,-0.347344515919425,-0.44952547007415844,-0.5396060207000052,-0.6283165010935078,-0.7174406978837337,-0.796708171059007,-0.8512028992912141,-0.8725815060383249,-0.8601016984421934,-0.8174733057950722,-0.7563973310101065,-0.7115090727710983,-0.7401712340521899,-0.89542343005919,-0.6152861453608255,-0.18360689759754353,-0.005904475400502432,0.10823723928901031,0.21039667986234148,0.2890288989909683,0.3114920927006613,0.2781496962565002,0.21201380995627614,0.13228899973596997,0.03940773238807142,-0.07582085778544853,-0.1901770098721361,-0.25870565016801267,-0.257117096256701,-0.1404477669127893,0.18514612670788158,0.6536505067791711,0.9085249326989615,0.9713700536951893,0.9639361278573276,0.929370863791583,0.8825318299743113,0.8277990500997046,0.7611781530621183,0.676103276404333,0.582061072787426,0.5041466207084503,0.4478811213408892,0.40325908307280506,0.36586297171723575,0.3392350431645046,0.3246585986964499,0.32216466501184804,0.3191310244008384,0.2977141830753055,0.24947984530469924,0.1793454202683749,0.09359905692123129,0.0021310786763711355,-0.07815360678480315,-0.1381195858911648,-0.17680762408940062,-0.19938024813796135,-0.2148030192378609,-0.23768104270759619,-0.29118050139866425,-0.42244869060206613,-0.6528841872904194,-0.5268620510086095,-0.3360141873387834,-0.23793828123310792,-0.1749579320991691,-0.12138227586532355,-0.07696093816368152,-0.052008420260018465,-0.050512421169918324,-0.06737783043901478,-0.08833426564836504,-0.09997559869093904,-0.09689511905401275,-0.07764365400131581,-0.03975551585852686,0.023810298273254413,0.1335727977694543,0.3131604341934039,0.46389157567454703,0.4560564314499425,0.3625443936065593,0.27057406890739133,0.19553683391961277,0.1333246023028476,0.07933102921188799,0.03399610286608285,0.03307522084265354,0.12713626015559865,0.17760715190895554,0.20023581033201143,0.20749545816620973,0.2087675194023427,0.207444952455896,0.19709874521414042,0.15921034093654637,0.10729389845929718,0.07951981281341367,0.07921041211463047,0.09860555705041475,0.1361520853086792,0.1951320446302763,0.26760835997195803,0.31571585181051715,0.2872742014844006,0.12268803470139172,-0.23046975104188097,-0.5163860117153289,-0.5080686909016889,-0.4201642915909895,-0.3411672600697138,-0.28336977298493976,-0.24675555715021694,-0.22911110914786872,-0.22729990169502737,-0.23617834800430465,-0.256329361664394,-0.29584179469407335,-0.2900884951722839,-0.15250241322401328,-0.10854286179752727,-0.13535236283312027,-0.19841625934085264,-0.2823856329249108,-0.3735390062874342,-0.4610355649258188,-0.5352617782506711,-0.585017005957257,-0.5938538768350828,-0.5408692292598279,-0.3975609362000187,-0.1541554036905995,0.12040094691686357,0.32026417884771685,0.4163438672221473,0.42879684990084427,0.3898111624271052,0.33576477401676946,0.3049000641269001,0.322314813487632,0.3900191519818877,0.4680477268125939,0.4968018348100652,0.44456973380742004,0.3440496484465402,0.25359891645708726,0.20223236838447228,0.18862548141204463,0.20514690710075018,0.24656597778600203,0.30740832927223943,0.37601410666087737,0.4364119299180265,0.4658563395786102,0.4378036310548006,0.3309176339596617,0.14510116734050799,-0.08912484618424794,-0.32410321041163087,-0.5248473105227474,-0.6811045657576968,-0.7924787070374535,-0.8637822270578568,-0.9042868318055208,-0.9218788090105379,-0.8997018379735409,-0.7292120525322295,-0.3472197671786116,-0.067034236124737,0.05361599731814609,0.0949193234508547,0.10194285386402507,0.09540766080127377,0.08577380435144762,0.07843318521201421,0.0778142317936115,0.09540351166659862,0.1510649336623797,0.24551013083975462,0.34065917252633654,0.40225493304434423,0.41489407017252217,0.3700508467716946,0.24621727478644,0.03844157641103728,-0.16913480103313225,-0.30324499059702015,-0.379624518969615,-0.42037635059131445,-0.4372128776748307,-0.44586315556991307,-0.4713376905051893,-0.5201127088315934,-0.5770593094611861,-0.6123714818524825,-0.6261916028439038,-0.609312942129767,-0.5648567460799273,-0.5104650932682542,-0.4561469461359181,-0.3867723688887682,-0.2978348108462401,-0.21228354406694494,-0.14896842952946296,-0.10311717424572338,-0.06682825642330122,-0.030522634544916275,0.015161373720834105,0.08599082121085408,0.2074916854717296,0.40736967494882725,0.6145025869398668,0.7208798361711145,0.8068468714373458,0.7767546177498973,0.5021485147656132,0.3118112471587795,0.22166381517271044,0.1773869161638917,0.15297416936258698,0.13757944957074453,0.12464130382029238,0.11029617788348664,0.09102713387042327,0.06530390974706995,0.03385423797439377,6.365519888556463e-05,-0.03149741431029079,-0.05774278126599106,-0.059665328710163786,0.0020082922664676397,0.05000681081783047,0.07102927941673026,0.07878080583885635,0.0794177904417225,0.07418000687556922,0.06459723151241785,0.053733013544964146,0.04532060234139558,0.04063512875852565,0.04019600332208005,0.04223209221506764,0.04366768275446168,0.04323702487530122,0.0406545172124998,0.03364746949363711,0.01791513422258708,-0.011916499210627988,-0.03948901729473202,0.063942276341347,0.210291361216224,0.31669394273541945,0.37302065706628956,0.3819670360679742,0.35204312996253656,0.300440130930924,0.24835459053561298,0.20348659734614816,0.1583793150051091,0.10053259434056934,0.03354320073359775,-0.03266897928488745,-0.0917125522369501,-0.1430139743698407,-0.1872315550129387,-0.22409744451919691,-0.25422783729600085,-0.27579816490690834,-0.2852356040921301,-0.27771367970948246,-0.25249470537336544,-0.21440334362319866,-0.16716658009241392,-0.1043093943853501,-0.021264299883932924,0.0401112146358337,0.07056178771801798,0.09017821925657388,0.11280702453079257,0.1462141408627797,0.1953022126223638,0.24959313525465973,0.2816153986921828,0.26513846573187333,0.14297958969254293,-0.18957693660380454,-0.5017830879252606,-0.4786611279478628,-0.23962626414675547,0.05896716638432499,0.27276850663960633,0.38784064205454716,0.43981984200457885,0.45366025788433073,0.44124465370187116,0.39094025623134615,0.0727384510826438,-0.46457400114749686,-0.4814526665058277,-0.4581751025630057,-0.41167776801875244,-0.33596102335802924,-0.242605816916833,-0.1595347171577175,-0.11073703053201135,-0.10921707650417375,-0.16247176469742164,-0.2695747391445487,-0.3903187800670488,-0.4684807153442601,-0.4826974165764044,-0.4422274879852954,-0.3618206571371459,-0.26502342569707876,-0.18093401606032217,-0.1269136442723356,-0.1004773918430721,-0.0865897046692787,-0.07236716304554923,-0.05403736314281357,-0.03341605912020399,-0.015648051945361268,-0.006718824043657605,-0.009078226223962413,-0.02053653422829313,-0.03686325252742303,-0.045768245164776615,-0.019321771751602435,0.09772530611242938,0.5039096605372584,0.5853701259128112,0.3995514684404783,0.3078738093020974,0.2518278720274081,0.21085881169393625,0.1729110720684392,0.13280074805056274,0.09160306931344496,0.05168376665660275,0.013045550930907689,-0.027203393823838903,-0.07399495200010267,-0.14114095146070874,-0.26724809073103584,-0.5117706829474151,-0.6094228787669539,-0.51361818464783,-0.4808917474759002,-0.5151269573157703,-0.5847326575486017,-0.6457245803745267,-0.6614889108683616,-0.6206778479453209,-0.521279041997267,-0.3647538296246935,-0.1808824953600555,-0.024424419559392868,0.054177375070186815,0.035707480233149076,-0.05802262077930179,-0.1701740363434858,-0.24480735997372377,-0.25836438451830923,-0.2077796042663491,-0.10668668131585253,0.02003121560524569,0.13956533399944682,0.23544585147900765,0.3052009736570593,0.3526860560907121,0.38742730127331587,0.4212112803611025,0.4651510501565845,0.5155622352557188,0.5668711952665815,0.6207430700456131,0.6741951601147333,0.717889397552656,0.7476690044970214,0.7660581879213427,0.7757521541837112,0.7768192866794479,0.7665902041494304,0.7389002086992227,0.6827662229213552,0.5774388797749935,0.3952375542116363,0.14834626913322257,-0.0807774465007211,-0.23346898082440729,-0.31869244815264947,-0.34712319790236,-0.3212343453957754,-0.2454379400116412,-0.13272372925849124,-0.015032737840270625,0.07237800848777219,0.1188261033814977,0.13584411795439766,0.13088145471780632,0.09112993129797763,0.023413857071972695,-0.03698115951264404,-0.07796492281487462,-0.10861995772370013,-0.14271009683805563,-0.19826477841492943,-0.2858727835900067,-0.2872118531710887,-0.2017013467789719,-0.1326168953782895,-0.08716106313604757,-0.06275694911367188,-0.06984203613124998,-0.11160337983067155,-0.17339871274505525,-0.2229493014344465,-0.23583453354127695,-0.2094381686065961,-0.15138188818110782,-0.09091413118148199,-0.05384193415516206,-0.04709016009630253,-0.05867754116202865,-0.08929764977127463,-0.1260169752679668,-0.14834218888501494,-0.15204297019281116,-0.1438999263862697,-0.13620419179038679,-0.1395461010323083,-0.162063469792691,-0.20856860927198342,-0.28601443781910874,-0.38021673338714523,-0.4232200780287822,-0.35689740626063093,-0.20495126276273912,-0.061727974393155485,-0.009036333106295504,-0.016006596229863404,-0.04523741912462368,-0.07119643515657284,-0.07629016633569446,-0.059683730550308414,-0.030204080533790395,0.0031850426177698374,0.031023911945223113,0.055994257615338654,0.11601792707082456,0.10224364599996262,0.04617051579435737,0.042047550587400374,0.05075964830970232,0.06490926236587584,0.08143426536955115,0.09628489917369121,0.10004164111913087,0.0857798188177489,0.0614365916967092,0.037482681517221964,0.017220914405108076,0.0022884267836952793,-0.008161422801703925,-0.017216895153443986,-0.02310913590067655,-0.022386887836011997,-0.019360961534974536,-0.02091644661968509,-0.02634868043254719,-0.027612134858766187,-0.0163806978223818,0.0015536089944068845,0.012844536488714309,0.013113927800660789,0.005360483408070099,-0.00422017605235951,-0.0034274190788823205,0.0432754808762256,0.07476424557431864,0.09389577223019481,0.10206190382319712,0.0941103510441876,0.06302304854446376,0.0010078471188528202,-0.06447291295056162,-0.09023763238795758,-0.09022849226941065,-0.08062060550948488,-0.06845380423852888,-0.053171697211806306,-0.03515567299995503,-0.01783853600663721,-0.005853798404315754,0.0010811650700827053,0.0064531626047459375,0.013760849738300529,0.024996637571938995,0.039091904652965664,0.05041746121317078,0.04997451982951051,0.0294968295136424,-0.0162221462279824,-0.10537869654292191,-0.16207509746048152,-0.1147407554010404,-0.08793600533939246,-0.07642002506260144,-0.07335494404994303,-0.07911304507819533,-0.09784178087324558,-0.12902938377303733,-0.16891700631447726,-0.2125734032008686,-0.2565015782500841,-0.2980044350199838,-0.33364068578810924,-0.35059804512899356,-0.2806331466888031,0.03841316547488811,0.3087314481905958,0.4036633186150587,0.41444429077171957,0.379266737716647,0.32153845075461956,0.26291013945084063,0.22058964565436034,0.20679371565527283,0.21584597515038753,0.17338776774968023,-0.020799048526802654,-0.19106847613415848,-0.3391822818115242,-0.47719884614742153,-0.5773832789853561,-0.6117609396806039,-0.5756554556764807,-0.4844917875308164,-0.3782581225991133,-0.31473591738367007,-0.33755141159391283,-0.44367613259113975,-0.5782608445015651,-0.6498321496922965,-0.5800751960369098,-0.3490980736732355,-0.07090539821645173,0.12723590394737364,0.23632110057061256,0.28815915692129207,0.30759221253964075,0.3091498451554255,0.30368100110715435,0.29974276882816725,0.30584123222024,0.328603435207975,0.3884201860393025,0.5416729918550884,0.8263627574154663,0.6518702725331459,0.4437612238666565,0.36498792445356804,0.32773934054451054,0.28927640477277583,0.24709460730348312,0.2150086076442256,0.19396411374501715,0.18022405847924014,0.1671606970332762,0.1450885332131536,0.10291824916756025,0.06031746639831636,0.036944744371184224,0.02887610055332842,0.03979216326792764,0.08270650130475579,0.17418598941790214,0.3126140363742084,0.432394466126707,0.5007184376924015,0.5514409746110899,0.6131692085892148,0.6923271088541345,0.763294811516319,0.7727271401090581,0.7027966895409143,0.5729808359693338,0.38756982872186385,0.16022231090728808,-0.0644873961552798,-0.24120060295547716,-0.35152225314692054,-0.40191070652161326,-0.41327052659942415,-0.4034799263152432,-0.3843441835802781,-0.36796813769976033,-0.36874742579821906,-0.39926697839618985,-0.4647934008431479,-0.5569929601034805,-0.6509951636524086,-0.6757075139563999,-0.5646579479186267,-0.3830511327930226,-0.21927424803739837,-0.10955556358633219,-0.049408009242537625,-0.02686110266953142,-0.04182305668749722,-0.13988645677111425,-0.15852216807994352,-0.13071095187575063,-0.11838173216285124,-0.10650656514018879,-0.0835455387541252,-0.03813911991159248,0.034896341639865366,0.12237121969864462,0.20464478614610399,0.2826358718120958,0.35865183771886233,0.4245216291166745,0.4665214998514238,0.47096023022483147,0.4380875124075417,0.39992596331921587,0.3777203694781549,0.3431322998210697,0.28846457328242353,0.2436098537418917,0.21525905386679142,0.20256988779968885,0.1945968447111115,0.18905109095577338,0.19857417624565882,0.24080263787365735,0.3255583668183586,0.4233624560313775,0.4946439460932993,0.5279555926691691,0.5245757579216312,0.4789766268365126,0.3769203541995945,0.19280549697309907,-0.06850050333245511,-0.32969419907614833,-0.5160160739800881,-0.6258186082873717,-0.6869735633207916,-0.717783493324842,-0.6866170365678314,-0.48371968079550137,-0.020610117605628687,0.43812383551412365,0.6693416279539812,0.758013082798825,0.7823733762856387,0.7643213017441857,0.6371644358087211,0.3172701104062931,0.14097229074611806,0.13535783295636644,0.16703624909409978,0.1645224070849459,0.088804147703063,-0.0529355563304303,-0.20834025433651318,-0.33652683766323427,-0.43916001866751647,-0.525005234905054,-0.5989966044941997,-0.6624107539408453,-0.7131737152612996,-0.7487547438263166,-0.7648655723874537,-0.7584108210924683,-0.732899112558118,-0.6985436005858995,-0.6673109441052072,-0.644406790924391,-0.5976936926173125,-0.1805704992622887,0.23570312501864757,0.31220418843441117,0.2976057961624703,0.25824741809816976,0.21808617688107218,0.18332250202191136,0.1542177577003212,0.1308244894000624,0.11359179686080641,0.10352482388979123,0.09933611000913309,0.09137021289190096,0.05924243730068567,0.005622055988143922,-0.04917162921199995,-0.10335182229004898,-0.16336384185112954,-0.22204513918799118,-0.21829824219609464,-0.1579035573368688,-0.11767352452980516,-0.10467781578715689,-0.10543794281263204,-0.109474649230098,-0.11685314678550471,-0.13260628084308407,-0.16449373603306217,-0.22009608617287196,-0.30286088489851304,-0.38350662430326427,-0.391567380031267,-0.3272424237752424,-0.2377102988974856,-0.13471700238712767,-0.019841033644301717,0.08582949625542219,0.16137420746725695,0.20214688557200475,0.21164544451933964,0.2008482806635277,0.1857433512423726,0.18388147069314104,0.1063453089606057,0.018658107520149993,0.011213462264598214,0.03487493960262839,0.08678561912249899,0.16367533851919722,0.2506827896196643,0.32027071653225864,0.3385128886390147,0.29739552545138015,0.23215212941733346,0.18200873831390715,0.1591256057382392,0.15829253485183234,0.16991429646519512,0.1868244278760478,0.20571983735527363,0.22907234941700408,0.2536910566886134,0.18476496526480324,0.037871510041577815,-0.028634999913531994,-0.05754433665270678,-0.0737748066037093,-0.0841348307563834,-0.0904288470153793,-0.0942779021255032,-0.10096799001554148,-0.11687801994105002,-0.14397274287136327,-0.18328427575198303,-0.23718621259024109,-0.30225737548488096,-0.3490596156906978,-0.3330222080649787,-0.21186294318799756,0.027918285724707174,0.2915832237292856,0.4616532562423025,0.5243545918424659,0.4960048855310805,0.37404530381049916,0.17759307243836361,-0.004526289568560393,-0.11093382586502928,-0.15211222345514927,-0.1526027880725816,-0.12657071113000098,-0.07503057274365936,0.00962478528217156,0.1177952167018238,0.2082823880396659,0.2617586131044757,0.29581011675366176,0.327586997199112,0.3673746038553738,0.4280054921898509,0.5275261021684831,0.6858360760318158,0.8761629180946607,0.9322244190224589,0.8100207954032026,0.6082878195958301,0.34207199349706774,0.041921905436998856,-0.22951245097205064,-0.44292708664965685,-0.6043238191853143,-0.72075322919095,-0.79680703459641,-0.8379258831225325,-0.8502810241420887,-0.8272146250237414,-0.7703210921870829,-0.7140237797816873,-0.68675211255873,-0.6813913539817517,-0.6492748074068125,-0.53681665648556,-0.3818249988406364,-0.2622034283807584,-0.19598035053333387,-0.16096459325945564,-0.12155831732272276,-0.04180518498961571,0.07835506690990808,0.18203831750502905,0.22748206129908383,0.21268667391423313,0.14344838953901318,0.03248616741707114,-0.11049412672376817,-0.23742144725832173,-0.2876350071765779,-0.31230220384050283,-0.3487165834613254,-0.4102827695866314,-0.5133374776888183,-0.675742671260944,-0.8277664531673011,-0.8096365696708819,-0.7278851180952429,-0.6976211009507262,-0.675797795606303,-0.5541428579137978,-0.408543972815912,-0.3165469904338032,-0.21654837379361366,-0.14229879067145737,-0.1198507554626497,-0.12452009750410017,-0.14272668433938068,-0.1703946265979719,-0.1987829931292844,-0.21273926726652154,-0.18225459182283155,-0.0910797880091465,0.014551972886707473,0.05316713960110047,0.03184803957613621,0.012841254270182244,0.01581944364804371,0.04747600886926232,0.11047265020769605,0.15506241241392787,0.13946569524896346,0.06767276491931923,-0.0732524287793635,-0.11480134662711816,-0.0874505337671432,-0.028072667369273017,0.08577834566175235,0.3137336527627101,0.6510231841052315,0.8102681371192402,0.8371390879996788,0.8642758412762886,0.8962524962882907,0.9193545527988353,0.9278317990599508,0.9245111459917886,0.9180717600961197,0.9173274820164541,0.9225608053052313,0.9296463434365568,0.9347377956076374,0.936091572071449,0.9344641337542685,0.9290749462471992,0.9149011262067098,0.8582286566434942,0.5883547259813626,0.2040511663182562,0.16029453839636684,0.33942183427659195,0.5138620673129485,0.578383943331848,0.5489854123117393,0.4470648644870569,0.25309705649143144,-0.08793847371567665,-0.5436647069404379,-0.7816800048018804,-0.789258341324982,-0.7322911857579864,-0.6540723531369933,-0.5869454128140329,-0.5602156779579541,-0.5532246839863315,-0.5025549505318179,-0.30581900285648456,0.06776121606363009,0.35338194944515333,0.3948248963515113,0.127133897816878,-0.5680775583703718,-0.915186670853553,-0.9585567290355967,-0.9550382309020482,-0.9467824950403683,-0.9286403196461648,-0.8734546522797083,-0.7552773512832399,-0.5771394366136605,-0.3949855071649755,-0.2872721624406702,-0.27027107869920247,-0.30934055420750683,-0.36698021199020603,-0.4100895248669176,-0.42318086177641634,-0.40767208507695657,-0.366770418720743,-0.3140054389410844,-0.26795315063853753,-0.24491869707827205,-0.2424747022785694,-0.2066949891799899,-0.1085742009871122,-0.039996987675836385,-0.00250510585409155,0.02296246977914449,0.046226195370086355,0.07318549295915523,0.11282089831786168,0.1868342171735056,0.3274729587507399,0.4660207799217286,0.48306874357993335,0.4791420674769503,0.495373935127506,0.5272737962368721,0.5683798480284125,0.6020707805081623,0.6150675661548912,0.6028193991055875,0.5609781369511981,0.48939457986849666,0.3981267700082717,0.3081793794866486,0.2416304181954112,0.20953193397479622,0.207879715949736,0.2271197488848626,0.2626926075835683,0.3194590197688397,0.40344623559350856,0.4846968214954589,0.49137867054892126,0.46472067821406876,0.478322311518406,0.5379797996676001,0.6115770106366509,0.6539444675333368,0.5986150847088106,0.29070399565199245,-0.09427579481915868,-0.1981984613803485,-0.19788182559100137,-0.18099163514294622,-0.1693602595801267,-0.16862756973884416,-0.1816324877334606,-0.21189971230649285,-0.26240259032311525,-0.29490806274481085,-0.21572979802123765,-0.10485757877745062,-0.02064116585019621,0.03730624159255995,0.07050946907662665,0.08641530326144492,0.0875718139936129,0.07284747955111041,0.033474886016342555,-0.041099177012739366,-0.16835688807074084,-0.3596149831229565,-0.5293772437006774,-0.5598057765403114,-0.526980188121361,-0.5052072006974642,-0.5065770984432391,-0.5252245360101933,-0.5560277168063487,-0.595316415378598,-0.6439827003179438,-0.6893078303442637,-0.6232466053121324,-0.48740475257832666,-0.4391185755699655,-0.44307198672460646,-0.45318962270011676,-0.4425867664702145,-0.3979729705414365,-0.31593262672235956,-0.17879728759477265,-0.04858654652952491,0.0037465889350921555,0.018569865801687836,0.02610045614142324,0.03687078215902349,0.05146107649691246,0.07032871988981039,0.0957931099973545,0.1430235617643403,0.2454769842258521,0.08815351307062294,0.031244972633905525,0.021984285378096984,0.02733325457146399,0.03664782841421946,0.038923024771955,0.02419869727467499,-0.008528708602312505,-0.040231016445147934,-0.05567944831786941,-0.0525755004201062,-0.03621199655658794,-0.01412766639475371,0.00847749786238368,0.03360835034407065,0.06453838550582222,0.10022963369898535,0.14078895233749747,0.18946096964220568,0.2585302195415782,0.3598107206748838,0.44036757515694813,0.4406040989005365,0.41952179558203967,0.40634869368770093,0.4016599338699002,0.4020957925174564,0.40229556082449364,0.3961463146130524,0.3765074836146722,0.3343866762526959,0.26171378914465915,0.15155639155691517,0.003925684460584295,-0.1600410939812669,-0.22845973910989298,-0.1614788506764826,-0.06514607491759743,0.027564147473999694,0.08829874791580838,0.08583826254577254,-0.0077643614310002424,-0.18093681301450418,-0.3721781269204647,-0.5152779437169825,-0.5941405604499737,-0.6154852148347429,-0.5903102919986383,-0.45100659392753445,-0.09393198204640095,0.09287245612282245,0.1455728180658836,0.14621741631933838,0.10659433930084553,0.02287278183071392,-0.0643997672591293,-0.10198703581149272,-0.1048333116565907,-0.10636217369588048,-0.14142609772402678,-0.23087737077319057,-0.22789934641155382,-0.21525540315048358,-0.2315928316775815,-0.27252345053581534,-0.33640796142715473,-0.41483695604523674,-0.48871838881578616,-0.5388662096937809,-0.5534345110924394,-0.5305620595231355,-0.4718515371458512,-0.38488334053493994,-0.28132767142964177,-0.1777892736396637,-0.08999955939635615,-0.029260697237468446,0.004801516766157633,0.013705870263918103,0.004259518615152703,-0.013208297005456688,-0.018023039141615512,0.020363447872755992,0.049322907581528345,0.07570947969845127,0.10496843163800579,0.1386477196724302,0.17982802799351347,0.23594137094668094,0.3164481986166511,0.4012048317431372,0.4225711012035561,0.41167002061106744,0.42119000946296875,0.45885221096290724,0.5114459372229606,0.5599166503817086,0.5635996434742913,0.48439648215318254,0.34856778059821125,0.2327071666306037,0.15799325452718235,0.11190912647155017,0.08463123340506716,0.06869058162877466,0.05951990921586275,0.05498660735952723,0.05885184957608708,0.07362547589676788,0.10124951921105539,0.14240678655846098,0.19837861559406078,0.26657027881646966,0.3396216191812323,0.4114172470026442,0.4879011382161919,0.5854218966949043,0.711486061383053,0.8289186695182603,0.8482593797672605,0.7690746036754349,0.6655788188798428,0.5745886414577139,0.5030455490362232,0.45485233810622855,0.4358323081957246,0.4464307633773653,0.478825123618588,0.48636863722599716,0.4152654819159131,0.31530964481830503,0.2299652754575943,0.15045465662903298,0.05865514475569327,-0.05999493005880294,-0.2077511687041916,-0.35111122460177074,-0.44001841230946226,-0.4713582413067547,-0.477711557738528,-0.47748312122355135,-0.4729294748454306,-0.46484438728955757,-0.4557969250753109,-0.44963158241990947,-0.4508593543681987,-0.4606180423503707,-0.4804241297392909,-0.5119420893485226,-0.5516361239103829,-0.5852223031396351,-0.5818123222620549,-0.5178636046081262,-0.41784480784358513,-0.316733675051155,-0.22700898593068092,-0.15311790053327165,-0.09759460914528752,-0.05872511416460869,-0.031984037633958615,-0.012562252779635855,-0.0034262649930021224,-0.005263482076240579,-0.011889199409246346,-0.011421172027214484,0.0006758033315698692,0.021990012595821708,0.04700080109107808,0.07256274789556266,0.0846085123553045,0.04484302432566263,-0.03863336402471876,-0.09132633078971907,-0.11087185936735633,-0.10806070204176167,-0.09130527423470791,-0.07356233811311721,-0.06490975598910709,-0.06673280216846508,-0.07395307792540527,-0.08259943187927526,-0.09006576822339596,-0.09364540344235775,-0.08956949357621645,-0.0715425269043067,-0.02888583677317421,0.04992810478562896,0.16029329843609677,0.2691631001969188,0.3456416560119946,0.3873471972198439,0.40404757873049285,0.40568941891947863,0.40373051144207767,0.4126178262009153,0.44221993708523943,0.48505943366500814,0.5243925495005292,0.5449046078569062,0.5359399059811871,0.4901178416072757,0.40779976858551903,0.29897124132851305,0.18269404612979168,0.07663270852752553,-0.013868885964391746,-0.08573781520776541,-0.13057549372233077,-0.14470673368347967,-0.13605166366445556,-0.12377611547271981,-0.12468402373776719,-0.14986164878118172,-0.19182712159591467,-0.22737583271867126,-0.23533903892352148,-0.22075234485791764,-0.2010993288458948,-0.18481702746685263,-0.1762647684063786,-0.17548724816872882,-0.18522375090581178,-0.21885373790466395,-0.29222020695509715,-0.4220039588528047,-0.6033744749672759,-0.7703595928468648,-0.8471896530663536,-0.8285114405926037,-0.7631016125054964,-0.6936634798762747,-0.6359298738821578,-0.5908706395741765,-0.5587084847517212,-0.5332907831047496,-0.5025300571249911,-0.45639777563276257,-0.3952790165366931,-0.32437106466082694,-0.25033519108753444,-0.1715590769156099,-0.08126609317461748,0.02503936967311563,0.16010160015559427,0.3258945713883105,0.5189810729419291,0.6430851518534426,0.6235805664598235,0.6007299069210785,0.6285677168854542,0.6828030598724927,0.7335116270891774,0.76571952534533,0.7758025471673506,0.7618394776318832,0.7161523637601557,0.6262076859391597,0.48645777749243074,0.31757100299275365,0.15557282317866333,0.018666616050414666,-0.1209758442784242,-0.33465778402636165,-0.6719504629877247,-0.7203132292875832,-0.5460090193961328,-0.40254996705544,-0.28908992028127495,-0.19815561499642267,-0.1194677121140795,-0.14856891386654664,-0.24014153261668403,-0.3557371956864341,-0.48014074844214366,-0.5493158948438521,-0.4236788154569853,-0.21693886237442925,-0.0931095323005838,-0.04019069968445181,-0.012235169335113484,0.04756411245022315,0.2227993590539754,0.5604999656284986,0.7966373635250464,0.8529978214081344,0.8247115643419856,0.7184374863137059,0.5079673595974175,0.1714970356626695,-0.23618022383372658,-0.5849370938922989,-0.8058201358504696,-0.9084110799549767,-0.9367000000787843,-0.9352636687768401,-0.9273500640645477,-0.9150264872112086,-0.8900757196643632,-0.83824979067029,-0.7369522617735562,-0.5605375704585869,-0.3061097630547875,-0.02849385962459693,0.20757961438977954,0.37881280724175365,0.4963970346241598,0.5757253745245327,0.6162202736717084,0.6110662772273544,0.5633875101540124,0.4935768772153439,0.43565671072502427,0.421364159629372,0.4857684862449471,0.6561412144740626,0.8276051815544511,0.8210831493644527,0.7532112262227787,0.7143747951095301,0.7128645934377653,0.7419361654660716,0.78689016192309,0.8303794881459904,0.8641901561277108,0.8889972814000651,0.9096778569965766,0.9281469580595951,0.9189539698685655,0.5731434326374736,-0.16515314392783922,-0.4240238496314348,-0.5139211825489162,-0.5703636146059666,-0.6043323939702188,-0.6072876818604517,-0.5713842746223021,-0.5021473896707846,-0.39897642921720583,-0.22500170037272685,0.0880636769511993,0.2984487106194511,0.35104182933543226,0.3635815052507688,0.351166174519557,0.3150809600250991,0.2730855778841051,0.24192249498377694,0.22460704717116006,0.21860141668007999,0.2246526985369775,0.24715602789806973,0.3060057693447697,0.19696965142284711,-0.03159783556972799,-0.08744865839714412,-0.1241788471090564,-0.20190746290609526,-0.506875069676795,-0.17228610946482992,-0.10893928391100174,-0.1254166109456961,-0.22675178976561394,-0.47673634450353236,-0.6687568312318427,-0.6079696325176199,-0.5058468064634178,-0.38220050552649487,-0.25620741537606556,-0.1634084758128097,-0.11440069661360343,-0.11651082080801632,-0.17892562802616827,-0.2824359863545563,-0.37703514561048185,-0.4211193902700039,-0.40629385100973353,-0.3400081709709681,-0.2388909652513877,-0.1286381095475518,-0.038208448385803714,0.01869180770868547,0.039883207056867924,0.03463543602040862,0.014904392339708864,-0.010019569876652626,-0.036197866127227814,-0.06522232924138752,-0.10398193953154097,-0.19325341699956436,-0.1886848537595022,-0.0838438737919503,-0.09344429764994909,-0.14488048217171204,-0.2180925414857612,-0.29875483812088743,-0.3742114848123161,-0.43204770116703367,-0.4730165379252786,-0.5143556765797915,-0.5695904199796833,-0.6333761242133057,-0.6819618942800961,-0.6871036850125336,-0.6243419860983599,-0.4907991801212649,-0.30979533026203315,-0.10594722276885248,0.11820348682750312,0.38192669731315904,0.6634010230231528,0.8148157262755512,0.8095561551643613,0.7664819017836667,0.7002246390920007,0.5617036137377656,0.37462676211293894,0.22847027831521924,0.14917554285555137,0.11927462487881628,0.12277836668762457,0.15280334323812053,0.21028866913391864,0.30235283071867985,0.38976613185364584,0.3021890243323748,0.14881657695529088,0.03577114394274828,-0.05715078682131439,-0.1445390072884698,-0.22715793307706408,-0.2917061409078097,-0.32569999547875544,-0.33319767435804404,-0.3317829966503342,-0.3358129048407181,-0.3503187866230225,-0.3730847317625135,-0.397541599912562,-0.418772938376928,-0.44156956374577105,-0.47407106014548583,-0.5198799472866175,-0.5719088209857727,-0.6092771801482831,-0.6076433184085698,-0.5438118891927537,-0.41104195436814767,-0.24128482230219855,-0.08805559635286928,0.021216528375995275,0.09109117619976403,0.13681053811247781,0.18233590159230137,0.2550755997447488,0.35986248504031787,0.45760021873840007,0.4991812850668636,0.489984037872452,0.45672385808860355,0.41000322470170547,0.35692875077508807,0.3017205000730724,0.2557900470610032,0.23208357533085536,0.24566452837620548,0.3097479586096159,0.36852234646013143,0.3433742171129535,0.2962210913736065,0.26092342090274306,0.23878818019136966,0.22831790016112258,0.2327781698774973,0.2586736461550706,0.3160201396712397,0.4106400192496437,0.5280750869682297,0.632853761584862,0.6916760104966483,0.5729172314902194,0.32651781335709695,0.16983364477469562,0.08207456346164103,0.022562627971330754,-0.02475524470740443,-0.06597116003802901,-0.10304663531702053,-0.13554861009809405,-0.1615805400354837,-0.1706024776308196,-0.15920193317039708,-0.1326939976878224,-0.0984899771081001,-0.07365428321419147,-0.06734452734326508,-0.07420629017154175,-0.08832930320283341,-0.10894870214640659,-0.13327630409361174,-0.14850009647192497,-0.13471587444609198,-0.0723355829187214,0.044085623275336945,0.18825198877281682,0.31477375509325295,0.40601723131048906,0.48704682422876466,0.57560348632776,0.02515980878939252,-0.09703151570397107,-0.10191627085771106,-0.0875492589366323,-0.07328766981174918,-0.06298434798056886,-0.06159889698083292,-0.0649893003149878,-0.06714365563980906,-0.06646820236322941,-0.06957587336450884,-0.08461903614028453,-0.12029152315252231,-0.21767978615817526,-0.3609972835454808,-0.34549583653256727,-0.3350742664525486,-0.3465489802572663,-0.3545319638649721,-0.33896514661636973,-0.2977410612827259,-0.24676205466941517,-0.20034798747469842,-0.16336258249188443,-0.1366630018887243,-0.11833174134496285,-0.10430539887912103,-0.0893391021216002,-0.07527456174991273,-0.0695045748851536,-0.08542378105084182,-0.13819629845789905,-0.22510965339534317,-0.3174774377052853,-0.3652884295803979,-0.31800808664685093,-0.12992111651934315,0.17835226878542054,0.4525883174436908,0.6046267514690196,0.663836516133363,0.6640915762368729,0.6230168792892413,0.5620033983343091,0.5248718080516985,0.556062798430369,0.6405051749320165,0.7262744282010279,0.781199998294632,0.7975014056534356,0.7801288673350626,0.7408143605617051,0.6961565744024825,0.658479796709452,0.6296516182075675,0.6066800080473588,0.5877527347065403,0.5532444462224051,0.4802529191551609,0.3983933635108919,0.33762355110311665,0.29310914717465836,0.25681872222900715,0.2172605935163562,0.16656486565818657,0.10797562276885676,0.05131255748392705,0.003411064971147406,-0.03403736408004656,-0.06471764983704256,-0.0941766942864007,-0.13149794326515576,-0.1827121866543869,-0.24460358542993316,-0.30670548722036683,-0.33002650452884463,-0.30466439149213714,-0.2687611847769123,-0.2419449400307686,-0.23145180409157512,-0.24290199195305678,-0.2954898313504867,-0.44053907309343626,-0.6534633100675787,-0.5348567455043972,-0.3824107325238924,-0.2987341560750865,-0.24470437906537654,-0.2073989276895258,-0.1836751737388284,-0.1742740405977715,-0.191096598637365,-0.2383919225703582,-0.3041673623955101,-0.36501891709380724,-0.40544066319790495,-0.4237236413773894,-0.42528011522569875,-0.41477967807592886,-0.4002342017852817,-0.39167207539900356,-0.40023548407248294,-0.42384788862117206,-0.4484664664470673,-0.4479060897924466,-0.41007124179064786,-0.3527367908715909,-0.2934603813439435,-0.24056425470226947,-0.19446330975302908,-0.15321535311936815,-0.1152377532979358,-0.0799340530064134,-0.04671013468996241,-0.01593956858472011,0.011785648937204988,0.03713281574269589,0.06278578439735057,0.09205293150288306,0.13056386551843044,0.19417093794664916,0.35785628496188726,0.45806956063268056,0.1774819598736315,0.0901608703964738,0.06063898420782419,0.040921352679439395,0.019499159832292293,-0.0018155613249191682,-0.02198035946175609,-0.03960909784399069,-0.05334074829860727,-0.06361931771594058,-0.07168993029525106,-0.0783325297800345,-0.10942231459256459,-0.15490683302118358,-0.22027588133022516,-0.30949163071487745,-0.40863964040224676,-0.45433748820328534,-0.40028336902612877,-0.2979862108705773,-0.1978678884757778,-0.11178682400651041,-0.03754633594943294,0.025761953110486978,0.0818342270564203,0.13422588780591196,0.18455323742979005,0.22977676130455338,0.2640977611576733,0.2833507107970259,0.2883661505831002,0.2811837665777012,0.26267924136478665,0.23242257802907246,0.18857137404059252,0.1306409435847043,0.06534963293018542,0.0068189484868668845,-0.032927738849734815,-0.04885162388691283,-0.04296798285817947,-0.020398597181577226,0.013531113576590498,0.054968726223331946,0.10328613848459285,0.15468735659810987,0.20098616708500094,0.2353345365272312,0.25606991889728487,0.2680195375109002,0.27747587578216854,0.2932659251133438,0.31905629905769217,0.3638004904474811,0.43067168572864295,0.49512007552326737,0.5133642408105352,0.45090141464311817,0.29094575857775706,0.06578252448945164,-0.13914045125744715,-0.2787901195203879,-0.36325685826963006,-0.41537004108937264,-0.4549946998227318,-0.5003351092323534,-0.5541311743878816,-0.602151419353574,-0.6195772792536806,-0.5790319341619843,-0.45843056832443346,-0.2742491582367641,-0.08748862599895232,0.049944621753077824,0.12715015534015395,0.1318569731872383,0.006002934583301293,-0.30945268311896,-0.5957227371344447,-0.6875937751487153,-0.6775059817835779,-0.6025615340090772,-0.4870671912070894,-0.35644786619591673,-0.22023434583411974,-0.08758752865457953,0.019250331167873853,0.08678810874139552,0.12346963860113576,0.15263124061403185,0.17397744399853798,0.1756266612103954,0.17007462789154412,0.1690113327963704,0.1723773501450676,0.17503185249103767,0.16724623419462106,0.14116666807647904,0.10159372078813882,0.05939307891214105,0.02155216166784267,-0.010335934995253395,-0.03207190414767047,-0.0013496548431130536,0.07124334961721521,0.0776166943717758,0.07946589329310261,0.08089746622094415,0.08599926776868573,0.0944354653769318,0.10184245854752712,0.1049261836578301,0.12057951142555788,0.16580637410127969,0.2054620159100763,0.2158637306929038,0.2169012472753247,0.21886007520331122,0.22536486145333992,0.24012606340025336,0.26845244462112383,0.31867202450247833
