0.891026371135986,0.9468314648279378,0.9694068766267177,0.9782495706807299,0.9793365771486935,0.971125989899324,0.9291491933411735,0.48840334462801827,-0.7587987374394596,-0.8949964596136694,-0.8949837309013948,-0.8590959053049559,-0.8059067518917821,-0.7561747134837122,-0.7106346360876704,-0.6445926204201293,-0.5397351963802668,-0.3955919504879894,-0.23319251044646472,-0.07644114760824822,0.05780863832017934,0.1644368556128412,0.2411864546067144,0.25438659951910175,0.06454577018035695,-0.35929557308772897,-0.5971930128484324,-0.7011757711830098,-0.7533694974149499,-0.7731720154480131,-0.7652195920762794,-0.7252935001202181,-0.6474400822723377,-0.5373925331652284,-0.42558925801277325,-0.38087083779307124,-0.4817342164430171,-0.694892527180223,-0.8207757976136696,-0.8481873872271102,-0.8362645775820328,-0.7880766657526183,-0.6622536454921151,-0.27498121638685574,0.5154150230132448,0.8253354866807113,0.8632760980933859,0.8387768647284622,0.777733235786718,0.6733506122665712,0.5207437983771671,0.32764563878170994,0.12756775539341805,-0.03725836038323848,-0.16913992367655148,-0.31053608240067054,-0.4951889798189779,-0.6835537844633846,-0.8073362658496678,-0.8640052773765013,-0.8845965518787257,-0.8885791070382437,-0.8801168548428432,-0.850763133871729,-0.7605926848077281,-0.4155858544874079,0.4596803487329043,0.8448388440289901,0.9187806630498668,0.9188328582923703,0.8494881250465021,0.5732817744293707,0.12428435620026289,-0.0038931548151109234,0.1483283339625363,0.36259734013316286,0.5059908058141713,0.5788768916554378,0.62071308944533,0.6860224737263378,0.8066115322486666,0.9110989396528496,0.9509965450794582,0.9599018352789855,0.9534035968104918,0.9320222243153428,0.8946666204144378,0.8350406517526918,0.7289588059928587,0.5340986023655646,0.27579877769128364,0.08518678377226646,0.009878335716571582,0.01773306967059311,0.07760090825426387,0.1764907783215488,0.31026774512433924,0.4630890285490236,0.6017147074951525,0.6907956151430948,0.7177626948643846,0.6793322848863006,0.5724142389135087,0.42778544769931554,0.3056134492111946,0.2341834737239323,0.20373198142429874,0.16334732168776425,0.018417832494615125,-0.28853887697951963,-0.5884029493400978,-0.7614334498350218,-0.8500056490941792,-0.9021909392855529,-0.9403887904357922,-0.9626306371411719,-0.921613814694256,-0.7304761217639318,-0.4528508822182271,-0.3074837930014899,-0.32440603779703353,-0.40603323248082956,-0.47332628749925565,-0.5012927108150887,-0.5029787151680231,-0.5127300185798332,-0.5574562679507701,-0.6411108104989584,-0.7430002557643379,-0.8279579201561733,-0.8796981538803255,-0.9026098367678829,-0.9077475848900542,-0.9056461388951071,-0.903509178465557,-0.9025164551719287,-0.9008939926489826,-0.8955615635702153,-0.8774260955628891,-0.8172088845755202,-0.5912741757831265,0.15809509823189735,0.7229246201157492,0.8599913719953985,0.893872435507095,0.8979342768177283,0.8879165611256974,0.8686372085899994,0.8398440965962511,0.795744242873345,0.733859319232274,0.6546980633067736,0.5665563701976549,0.47795003217850174,0.4038532575171455,0.3565751778739127,0.3405326844457523,0.34915497393779715,0.3806294075207877,0.44259032380026214,0.5451638982070359,0.6419290115404107,0.6610140417084119,0.6374261331880571,0.6052389490942968,0.5654355121067787,0.5168415365340212,0.45915770182007837,0.39087781677666905,0.3119880859230467,0.22660663113606708,0.1398676878421856,0.05465741240868464,-0.03162937828138272,-0.13442440158970742,-0.27498384270785003,-0.4580234608941798,-0.6501179265151704,-0.7940023915514378,-0.8750827296486412,-0.9105307381738849,-0.9144207706309747,-0.8829361426209396,-0.804499811327238,-0.691640041846116,-0.5664945501064177,-0.43457527411409563,-0.29285932004110493,-0.15111696161822474,-0.025825936216334874,0.0665350825067082,0.12019487715007046,0.13968972143550007,0.1372039794148169,0.12469571808649797,0.1099586729391433,0.10074175225008393,0.10775671394653834,0.14579774280365684,0.22345507477716484,0.3296101536664446,0.4337540175300636,0.5027602695417008,0.511845770295782,0.4543825778165733,0.3576408191839486,0.2643943234376908,0.1975900795360464,0.15355303468780104,0.12084715950127031,0.09553091064334958,0.07543915203811423,0.049354701554743426,0.0008710734917403598,-0.08049411401461644,-0.20044041404490476,-0.3601406403072104,-0.534648001516851,-0.6793418179993501,-0.7786225234351599,-0.8421679997828184,-0.8804652933627648,-0.8996166637434262,-0.9020730715970153,-0.896916370547629,-0.8899468687384996,-0.8795186883447491,-0.8544478101586765,-0.7711212361345865,-0.2814682732314628,0.8523583484986366,0.9833098532412838,0.9957025414047574,0.9972895660614477,0.9967194339709674,0.9939329442645322,0.9868152027072296,0.9731374959524084,0.9482699148992894,0.8969341466351997,0.7831497157247083,0.5328072440294761,0.06359310074737122,-0.4605538385721871,-0.7553421535443638,-0.8600610163369629,-0.8898724994944596,-0.8983082494221771,-0.9030078625358254,-0.9075521715077894,-0.909241006770379,-0.9010547936813658,-0.8703376561309443,-0.798556303501527,-0.676691745204482,-0.5199683819959156,-0.3264396639329342,-0.05358825335986352,0.2833210328489447,0.5581038437353468,0.706504644970901,0.764111014478764,0.7722376199986785,0.7762438280012245,0.8304112648316401,0.8960081113514831,0.927072201726133,0.9456098662557909,0.9581879656523083,0.9643541877337152,0.9610756135572214,0.9351449670010322,0.8073065723622614,0.10495615573504664,-0.6905404944561316,-0.8725417606816032,-0.9180190488948716,-0.9286672303119349,-0.9258047901679813,-0.9147679938522519,-0.8971471448156993,-0.8758660187886852,-0.8597258263967075,-0.8567800094862351,-0.8669803593920894,-0.8848343911575367,-0.9028935721700236,-0.9136468199681836,-0.9110397991834855,-0.8953404405237275,-0.8781635352889358,-0.8694610863084146,-0.8587221480110729,-0.7937572693951438,-0.3663272190646512,0.6054459027873058,0.8423728017421209,0.8786356682734158,0.864908366682653,0.8130143547164356,0.7214539987678028,0.6231180533712591,0.574105163058885,0.5918283853283349,0.6462006053142385,0.6619181637483105,0.5206709346676773,0.29760796017705315,0.15426960077326407,0.10530941709287797,0.12807373104297717,0.198883460617389,0.2745274806835746,0.31721492044068145,0.3129162616485159,0.26909948727503047,0.20668605889164293,0.14404182931227835,0.09189925807083243,0.058802289048563355,0.0626579772093361,0.1423156367305791,0.31677554863695284,0.4684341179193585,0.5290355901647799,0.5465912087014079,0.5403149355578744,0.5069234926131154,0.4410931734678163,0.3445828705824879,0.23354352915048468,0.13229650579308355,0.05678136125761853,0.01530267058754332,0.014324879886161745,0.05649477139271478,0.14274527553283234,0.2582064326345979,0.355013608336134,0.3572892641987076,0.14772921786508442,-0.32131948846287983,-0.6798746333314272,-0.8382908815654094,-0.920456159615679,-0.9663000385982417,-0.9725217625041326,-0.9371701483317916,-0.8778967194911712,-0.813005463850721,-0.7346442487587674,-0.5915289925896643,-0.23385156906657809,0.4087279848169206,0.7925638356400697,0.9125214192451856,0.9536320963705027,0.9708820195867047,0.9743984397880958,0.9287853246531932,0.6784637291371098,0.33019793696513655,0.23624093647869676,0.31097255626525894,0.4163115940785939,0.4442689227666399,0.3546850668788947,0.21730746081920052,0.10668358006521281,0.05418400808435593,0.07352990652126208,0.16382326140787973,0.3005335696980432,0.4364301922336781,0.4351911570323926,0.048941424436104795,-0.2265407926632165,-0.3103730992722094,-0.302199251247451,-0.22789025306568506,-0.08441506855432436,0.06177523177263444,0.08451008019564914,0.021534025107397225,-0.0655121414338547,-0.1593424851114254,-0.26387062370858805,-0.3962397210531824,-0.5566350931158165,-0.7036163269060441,-0.8011503553375693,-0.8468197083752868,-0.8551545284840981,-0.8410324164615851,-0.8149571795328523,-0.7870853477217646,-0.7643622139227042,-0.7448124881685377,-0.7191146832323005,-0.6722928976251472,-0.5867734346683302,-0.44575203892314047,-0.26646086935882196,-0.10056079164730305,0.019447950653996012,0.07627630469556403,0.0547147046997154,-0.0345654677018019,-0.15739283613553381,-0.28047786037385675,-0.38242350763916455,-0.46101074104142475,-0.5052944905198788,-0.4973015782071113,-0.4213596470179595,-0.2699966617024358,-0.06167880169393678,0.16011293805380722,0.35049835517848926,0.4892315663593666,0.5808843538281955,0.6485292611209011,0.7209388946129466,0.7901451594269656,0.8302879970481969,0.8369355439688109,0.8113215130478788,0.742345247060474,0.6058890233425064,0.37708104221564204,0.08157727043212687,-0.19023652890488368,-0.3651462475166965,-0.43872962821856015,-0.4110617911412436,-0.23540058236853179,0.15058468326092966,0.5813013280939167,0.802976437614786,0.8542903449663074,0.7831861543210512,0.5226160505237732,0.027950248414542418,-0.4203297317893983,-0.6758015169004444,-0.7971588823535601,-0.8126328298934256,-0.6949464420028202,-0.39579028922607873,-0.0045205366558883405,0.2967437815231014,0.47798932645911385,0.5837056006796715,0.650866561204103,0.6931210535021217,0.7198551269907669,0.741982087686091,0.7653590895510592,0.7879833557290516,0.8036504636845009,0.8076360196831682,0.7900635587499212,0.7084592445307539,0.2953743154272097,-0.8398929675244884,-0.9909072999996148,-0.988815805829251,-0.979985711961338,-0.9735813475379534,-0.9697964535557044,-0.9673601120362112,-0.9631799058638296,-0.9494839111089887,-0.9011685698586046,-0.6935888229897825,0.010400088541154994,0.5557240856091483,0.7052689603687196,0.7222892343164764,0.6782662793743917,0.6063735752000421,0.5423384990740762,0.5090624855150867,0.5062737700493096,0.5251442376306003,0.5513342370902712,0.5604281590078113,0.5454080701619591,0.5266602496253869,0.5154784275743275,0.5104628797403735,0.4987807140973976,0.4534468010871451,0.36050299844621403,0.24959278314210742,0.16024012670368468,0.11141808260952538,0.11083314672803672,0.17823016823620969,0.3363882571357651,0.5257126164792016,0.6571007093847827,0.7456850848486033,0.7972672337636837,0.8145937358089609,0.8111261787549001,0.8018694160226855,0.7928893684873146,0.7861892844436534,0.7851509017912549,0.7875619429456103,0.7777711503056267,0.7114300829107895,0.47211925536623556,-0.015503867174798935,-0.3990488773333099,-0.6090874271979615,-0.780007288378837,-0.9027933880504772,-0.9529308530924043,-0.9709901755725067,-0.9810118077862802,-0.9884455276007795,-0.9932880566859874,-0.9926307245550515,-0.9816140338317502,-0.960504933466921,-0.9439306203383204,-0.9406926418700988,-0.9338261343377772,-0.891552373679005,-0.6839383097246308,0.25835438536299205,0.8227308901901965,0.9240900545012286,0.9511743394303598,0.960338664769938,0.9625264483962328,0.9606799827722087,0.9555164468620927,0.9463172499936435,0.929149072495068,0.8931092645437768,0.8041704805330248,0.5255094704229213,-0.2074275263231465,-0.735692642997092,-0.8820699262006712,-0.9165462043130009,-0.9134172465228586,-0.8997468686727192,-0.8951979590196715,-0.9055939242162026,-0.9185847139608234,-0.9210293198007143,-0.8987808493064171,-0.836449943474688,-0.728676109456733,-0.5986371983845759,-0.4854342785800794,-0.4057016659885618,-0.3472973978495951,-0.27598175624424065,-0.11802272895274027,0.24996540741489007,0.6628146343823207,0.8235174435031356,0.8475838530317242,0.8094994581445377,0.7288763190185293,0.636792005502135,0.5716223483106172,0.52057467882743,0.38776287183838604,-0.01638875339504168,-0.5591609011901372,-0.7959895165944406,-0.8658606790015282,-0.8810781080328846,-0.8669147675068185,-0.8139466439827701,-0.676882636946048,-0.3973403474450675,-0.09674236326317161,0.03212639302642174,0.021665811272264003,-0.011784187133522283,0.008672271280141069,0.10014309516548942,0.2275320861257254,0.3341625717363183,0.3779612364130418,0.33859713950960063,0.195704025308508,-0.05400696716348579,-0.3307682773020559,-0.5191626906381107,-0.5973370373430729,-0.594579006267447,-0.5411831082230585,-0.4701481840683217,-0.4126597800845654,-0.3801607390525441,-0.3676371454288919,-0.35840669013572635,-0.3289761817974766,-0.2557924384041165,-0.10204055801151089,0.16466273282988309,0.4694306064145729,0.6792091816335228,0.752981212789451,0.7332776665852325,0.6525255577938733,0.5074228732931982,0.28667626057190304,-0.012965817534882997,-0.33793610492701176,-0.5763384223940073,-0.6952099146011121,-0.7233789639211318,-0.6831743025835818,-0.5959400448703681,-0.5415640647684938,-0.6100502241131106,-0.7436099161928513,-0.8361352143669789,-0.8709897119134213,-0.8438432914277607,-0.5907932031946386,0.5185732103838308,0.8925500564120792,0.9492157449720294,0.964446733214314,0.9691813361388745,0.9690402422708152,0.9621474892801348,0.9322856352679033,0.740454144747396,-0.40099197347535787,-0.8371663756419574,-0.893901407653654,-0.8914067778352028,-0.8560282751587404,-0.7713431201658606,-0.5845697878063985,-0.19603226306348717,0.34186143518364664,0.6940457154890419,0.8184015666277973,0.8363399885665265,0.8174098352415713,0.7821917569623393,0.7300447590200869,0.656798157368468,0.5640132599864167,0.45507882415816797,0.34304629109524876,0.2490506929823639,0.2059523526278107,0.2408401676351209,0.3370546380576245,0.43505633454470255,0.4593861583920833,0.349676593320702,0.06663473862397189,-0.276287343213847,-0.47890315734132854,-0.5282489586020327,-0.46224837829525556,-0.30263858607251065,-0.09379542450072888,0.08676830710912194,0.19293953818593926,0.2376391597106713,0.26193479643361023,0.30783781307165115,0.3745390520432065,0.4144007251912981,0.3987164478908684,0.32558298154097415,0.19691057457521158,0.039112833099430866,-0.09627054746524312,-0.16074760367743163,-0.14048928285616816,-0.06522405612084832,0.013136880718069212,0.04274724770270433,-0.013156667659201288,-0.2086516813432639,-0.5049721738957572,-0.5363475489225293,-0.4448704476512531,-0.3607532767123341,-0.2893489540490329,-0.22943004159384164,-0.18920658553170616,-0.20933537090087034,-0.3367821168936643,-0.5491514465085892,-0.7391054310768893,-0.850024746375866,-0.9034210164253474,-0.924702503598366,-0.9240963475476982,-0.9011863612458689,-0.8532776836373638,-0.7908217920354867,-0.7381209701172866,-0.7044667603519016,-0.6674011799959375,-0.5860849112920989,-0.37358628907969765,0.08723170632431833,0.5963411834345352,0.8524280414820532,0.9426284203179962,0.971513865269633,0.9750305407934333,0.9549257788136103,0.8753022627084905,0.6170092287415693,0.19346120160860047,0.01389226692947442,0.08699634898227473,0.21669484855116267,0.30379629644100564,0.3413354802814124,0.33788380324683936,0.28211672476820776,0.13194825168350235,-0.1559666687817707,-0.48587402571974875,-0.694157202346762,-0.7968128430781274,-0.8365388365441918,-0.7727887306868776,-0.4648777238814058,-0.03211093990350493,0.21802271653028005,0.3193937572679152,0.35544318992980145,0.3565004806699848,0.3426356408008984,0.3256988969307701,0.3157476571098289,0.3168201059698743,0.32624349671288166,0.33737457622408923,0.3394527953643963,0.32611867355857327,0.2928185764726099,0.22867221246803984,0.10197144827400272,-0.16305952982516234,-0.5913692586050642,-0.8024676392965941,-0.7638741532196119,-0.691211933348554,-0.638283156071259,-0.6089970885810526,-0.5910491518172832,-0.5628463272183185,-0.505318500211782,-0.4040762915206616,-0.23885388875637226,0.017902712090416894,0.369960460121212,0.6771134798305534,0.7290132325326707,0.5789727618933046,0.36695791218212265,0.14754406414963256,-0.06876458981732708,-0.30039277911023443,-0.5675686620092217,-0.8076591202836614,-0.9215194524949146,-0.9458154105926705,-0.940365812799725,-0.9241036467182145,-0.8993267257136532,-0.8632099366010956,-0.8070182542719889,-0.712065021893927,-0.5556591450922526,-0.338362103349414,-0.1162584782758269,0.0380875914669708,0.1098921668549542,0.12668184786938785,0.12606638380002283,0.13517576061226025,0.17189729728713782,0.23190371358262976,0.30531934787443477,0.38349943018090094,0.4595637547984666,0.5258712342749782,0.5598415787475628,0.5607378707103633,0.5630833489591446,0.6102368243139256,0.7026455134399123,0.7811352634716658,0.8138266301090171,0.8100394632465979,0.7875416095540135,0.7497893792505281,0.6954644293650374,0.6219892310789099,0.5384963849881222,0.45656350839587434,0.3898499338584411,0.35135988693701653,0.3464540669110275,0.38173892720396463,0.46028785329721567,0.5314991857402016,0.5361884771945986,0.5163863114860432,0.5049905644961131,0.5075357575958106,0.5214927937359451,0.5453754760065727,0.5753361678864594,0.6058606949308248,0.6327943151173879,0.6509501519337113,0.6467811788831972,0.5941885660944655,0.45057134777599805,0.18831662958394177,-0.13613608088325543,-0.40205059214715927,-0.5529897809708963,-0.6066789589537273,-0.5880809836795899,-0.5157610159948334,-0.4158049630292407,-0.32429218026364265,-0.264430955712149,-0.23277059510482995,-0.1802008985225354,0.10778079332621486,0.7117809350138268,0.8766773358179565,0.9147261481569829,0.9194496953116448,0.8864170543698653,0.7272857146596425,0.11651703229745543,-0.5099263698140587,-0.7094364034147072,-0.7702203356111118,-0.7879743984104557,-0.7883378009462861,-0.7804229621988303,-0.7711963308068687,-0.7641577906215986,-0.7501816190640614,-0.6999162455940361,-0.5522479630587807,-0.22284387789305443,0.17900140024874772,0.3982270364708976,0.4276334312520664,0.3137474401877743,0.08800531249222854,-0.15131025117606342,-0.2934538157487904,-0.3053854628628303,-0.17962698022624193,0.06346237932309667,0.31651615962477075,0.4564861648459583,0.4415664241904512,0.25109833119846703,-0.07187464262628396,-0.33351627891663543,-0.43284955102837697,-0.37635324204571424,-0.1438409471227267,0.25291108813474855,0.5954661595273457,0.761536801622588,0.8322603311856581,0.8688605331914632,0.8942298038226181,0.9150964978361397,0.9315209493270572,0.9423167332403859,0.9496565794606366,0.9573172851781443,0.9658029692946664,0.9721163883772476,0.9750978845023652,0.9760194689449689,0.9701121456829123,0.9411575526375594,0.8562540032651338,0.6710046546839132,0.368628729440369,0.006738034146128449,-0.3186140449026382,-0.5457455250117164,-0.6634077543514143,-0.6977293900122645,-0.6886233436349601,-0.6598012654235152,-0.6303939984444654,-0.6030972159941405,-0.5730490649335225,-0.5365585652722864,-0.501073221416662,-0.4720352904324297,-0.45422850900891437,-0.45241828466424067,-0.4612434655534706,-0.4767015585873525,-0.5017018885340243,-0.5313709008315651,-0.5655458838566164,-0.6051261801696758,-0.642766108799287,-0.6648564704625172,-0.6687096314195996,-0.6609400061496832,-0.6546221402971641,-0.6550131912019778,-0.6624277595988927,-0.6801183231967386,-0.7074800055785067,-0.7352489432468066,-0.7554976103065658,-0.7605257442533919,-0.7283804196786134,-0.6235452463998407,-0.4208769628324697,-0.14987664661627095,0.10092177578468522,0.2790363461171703,0.39959270281676607,0.49145788178910893,0.5666053365900191,0.619850968064856,0.6432939089157443,0.6329519674119166,0.5914267053368147,0.5202218321938655,0.4003658608038091,0.19324521851379353,-0.11684876824795006,-0.43955097255035086,-0.6559754616034097,-0.764123986698448,-0.8095944237809158,-0.8199132976021133,-0.8073090240719013,-0.7708152960245814,-0.700433939072765,-0.5832743396707285,-0.427395596699437,-0.2663480867179442,-0.12645186060237754,-0.006500531738957733,0.11728421815476785,0.28202241476862694,0.5094751350962892,0.7346472113151801,0.8501526791227038,0.8643198198160293,0.8414268955796893,0.8180032470665705,0.8024160434599218,0.7839332204679367,0.7333744179889482,0.5605632184676498,0.0008204695681918445,-0.6427907000272469,-0.8446668569186055,-0.8916720060499529,-0.8898358539723639,-0.8587927711390274,-0.8003233688827286,-0.717747893829559,-0.622169573105729,-0.5088210743884298,-0.30909671552902296,0.1169646813435282,0.6175929536460111,0.8477914751587516,0.9210609695062401,0.9433534648613767,0.9449780372542516,0.9310243783548356,0.8930656030992744,0.8104185932339194,0.6684903545653066,0.5056336201996623,0.374379732290725,0.28255697690909903,0.19919703227360336,0.10687497459425661,0.04688381035821427,0.13478450463779076,0.43146502050082697,0.730315863104153,0.8701425293171046,0.9172743719926345,0.9202832257857626,0.8667844584772786,0.6054127050090868,-0.13127051425025146,-0.5985443909330215,-0.732005168016616,-0.76927886118387,-0.7834472806923628,-0.7965415212204077,-0.8132166902638076,-0.8298117230161455,-0.8416815773690921,-0.8467295096729682,-0.8444543698012437,-0.8359789928430765,-0.819950387475824,-0.7917628277312911,-0.7416194189538997,-0.645636229698396,-0.43428889794988323,0.030610581993585313,0.6239923185629007,0.9017055700455154,0.9683778191223551,0.9738795682821126,0.9667552577003963,0.9588099880178788,0.9524354804778997,0.9476208939749813,0.9422941517429719,0.9320855780119373,0.9076397621773691,0.8453437613012392,0.695366900676892,0.40221154678359766,-0.0011117128931329697,-0.3990812322269712,-0.7091676313704519,-0.8895728852779952,-0.9639188105593778,-0.987906441259539,-0.9944760680175796,-0.9939889605314216,-0.9856646625158375,-0.9514089312348437,-0.7801953837434378,-0.03210922816026535,0.6347272365542983,0.8468500138402633,0.9364264888360009,0.9617438710923185,0.9174859930687477,0.8389250379948735,0.7769419301047371,0.7483199709893623,0.7531754759906373,0.7771581784850302,0.7979046062595123,0.7996217233530809,0.7691253047147618,0.6870101483081251,0.5361065790964821,0.34101988330708694,0.16448069757464628,0.0352927354402615,-0.043887930355643284,-0.07751486838994523,-0.07082200017716041,-0.029141391403251445,0.035546774821021886,0.09677689401584802,0.10826012637227317,-0.005731312482603081,-0.27373897325898017,-0.5676959780414809,-0.7751751849131129,-0.8861117403471768,-0.9332431296258972,-0.9495348663910628,-0.9541014346153143,-0.9543809519794132,-0.9492004069617169,-0.9327286272259202,-0.8972945140569365,-0.8371734958096577,-0.7437074707275173,-0.606692696083065,-0.44833200006130836,-0.33305086877585205,-0.3052159963371302,-0.3634583539098079,-0.48775401001089763,-0.6418979009425286,-0.7757707103618824,-0.855605226825395,-0.883952939090241,-0.8805895116155756,-0.8608370616806001,-0.832780276462738,-0.7993561827696083,-0.7624242604029556,-0.7248578729245762,-0.6849267151058364,-0.632347591290212,-0.5295715054916325,-0.2600738235967676,0.3272214680036481,0.7778584343595627,0.9196460643430691,0.96296432165836,0.9800130781314326,0.9890560682479992,0.9943978163549061,0.9946502703422377,0.9893756405649654,0.9804731606503982,0.9648122657999126,0.9275009629717023,0.8114707881192308,0.4109839418886478,-0.29297121154219735,-0.6561735309359584,-0.7793173318556592,-0.8263682061604649,-0.8447700643248799,-0.8461218268238172,-0.8233481699345081,-0.7144441144118755,-0.2362664957496183,0.34473898598302355,0.5423816542003289,0.6180971431131174,0.6781643113302476,0.7382774043047855,0.7798911959941,0.7940545937062892,0.7851920428357965,0.7640259346303837,0.7322772117784611,0.6748198222671804,0.5709099264439579,0.4167720482320181,0.23160290096016253,0.02242409434587013,-0.21290299500922918,-0.4489059989904997,-0.6117571978273717,-0.6747434484288075,-0.6820112450646361,-0.6842275557434006,-0.7026882760522067,-0.7252966750530867,-0.7233877854651938,-0.674913558504338,-0.5771114919195675,-0.45543268578232415,-0.3314968115880765,-0.222309320143114,-0.13606334928784986,-0.0686188404033697,-0.016113332315069385,0.012494236335845444,0.004169603022554783,-0.051248962646162854,-0.15144082345009324,-0.2808419748783563,-0.3843644112127309,-0.3918332505857071,-0.2206338687039057,0.1870379898849854,0.5789979234640573,0.7579488687440972,0.8174430458409362,0.8123677614554093,0.7005880677578387,0.03938666323263899,-0.7584467215571434,-0.8332070504109873,-0.7743127680775655,-0.6533466097909046,-0.5078227052634338,-0.40993369695907533,-0.4039659411353733,-0.46110951250525933,-0.521942858784858,-0.554404028506667,-0.5633087028319014,-0.5530638810104069,-0.5122228300720474,-0.4211209418131107,-0.26537610974270887,-0.06307088882260062,0.1279542967471443,0.2645914174090622,0.3405166610873523,0.37417295670757317,0.38662875195412905,0.3932911770403349,0.39871597265456593,0.39519611841255536,0.35929852983023197,0.2794961355699776,0.21378597509304004,0.31805610549383356,0.6654422606886229,0.8989676251081049,0.9621723690640774,0.9773615511110999,0.9763890096514051,0.9593472404075817,0.9071792285952731,0.7721741106410106,0.513721789954677,0.24486370349269312,0.09395592146889156,0.03848492380621608,0.019980136228656395,0.0032360376289433156,-0.024114594710394913,-0.0587362194360134,-0.08469303059337288,-0.08438583305180093,-0.05524497502819424,-0.031041700055642735,-0.08371139525820988,-0.25358898035161503,-0.4909613236368902,-0.6824026404190818,-0.7916718380251677,-0.844621969394626,-0.8654982776485433,-0.8641185354431,-0.8429568802308279,-0.8086594495409851,-0.7732678572404896,-0.7419727838170128,-0.7059284649307414,-0.65626875764748,-0.5860816997918761,-0.5092818654338153,-0.46097363943085606,-0.4607071727028311,-0.5059676134155738,-0.5831784145245245,-0.674130969988329,-0.7645719858915059,-0.8345285450753559,-0.8614066873075449,-0.8340710137486109,-0.7557234906885374,-0.6482735817503751,-0.5487889466141682,-0.47664609151956716,-0.4317840555564342,-0.4108115722322719,-0.40666210336439945,-0.41115125463417784,-0.41298041150029513,-0.3981810620484094,-0.3609736381720691,-0.3106204771772088,-0.26559673473515594,-0.23100803438786302,-0.20629728232962602,-0.17689376834953874,-0.1317809672828154,-0.07646549768267519,-0.02769003627617698,0.0076346126762214216,0.03526912560871474,0.06882670692055304,0.11760334955813771,0.18263806587269812,0.26047092250463366,0.33719710263719993,0.39725961098353574,0.4325409700932311,0.43875286159678883,0.4219688023942643,0.3988486540589483,0.3761246301947702,0.3515078056159523,0.3226378000152844,0.29729664242681114,0.2828156928428707,0.27956470370258013,0.2808062581141341,0.27552086759247685,0.2635235458300337,0.24835731913259682,0.23291808991198576,0.2112083793170279,0.18302317572485505,0.15585532422248985,0.14187881276366887,0.1462952332491519,0.17050313047504495,0.21491304987082271,0.2814537315361217,0.3762658139769086,0.4890076465648867,0.5585856767654993,0.5042438195132486,0.4010425999403515,0.3393805932198552,0.3293550354296132,0.37073511666826525,0.468244426058534,0.6078670133337195,0.7337990846647621,0.8012803522199177,0.8151583693914086,0.7972232932204683,0.7614555706652405,0.7213142344605246,0.6833872750986265,0.6446370600616028,0.5869344430842277,0.4682651823355708,0.17203278098090788,-0.4243246897570054,-0.8431191780088892,-0.9530247180608841,-0.9779426643708623,-0.9840916167765968,-0.9849916831234121,-0.9830999912703339,-0.9777082469385432,-0.9635679257210864,-0.9303381606799722,-0.8693879938145344,-0.7900191546380416,-0.7190799690629627,-0.672469419698239,-0.6516073850143986,-0.6522593814333726,-0.672162379883514,-0.7120117255024029,-0.7697808560130354,-0.8345178764447532,-0.8886144449960932,-0.9223791987054565,-0.9383945106005007,-0.93854729389515,-0.9051667700867208,-0.5930139043625445,0.7812933697618374,0.9541375991904798,0.9766385653006215,0.9823537406550354,0.984452849325907,0.9867831005924058,0.9889928438150031,0.9829662257868811,0.9524252942669337,0.891809540394266,0.8284362885525207,0.796002114659381,0.7977709701115456,0.8196485150815704,0.848193052473013,0.8756131258261167,0.8934852335118307,0.8460660772161924,-0.15099980044314612,-0.7485615624741088,-0.8019290766404843,-0.7866622060670452,-0.7271698600489189,-0.5869072277648401,-0.25788345651530664,0.2804488105778926,0.6637750893675987,0.8116739835210407,0.8564965311302324,0.8450851002323309,0.7426305277035923,0.35292688945054473,-0.36626448610603324,-0.7162178833895577,-0.8179900083611206,-0.843078219524101,-0.8334732888013401,-0.8017253600748707,-0.7502178510804633,-0.6820324709695031,-0.6119974974593997,-0.5636441872207063,-0.546290858724934,-0.5434058211909527,-0.5388458221530138,-0.5148091017220533,-0.4565965341525569,-0.3636281384021857,-0.2509692571003375,-0.14182991244321605,-0.057500547869955475,-0.009646214356741343,-0.01777657451777952,-0.10177450464746846,-0.27459178000340334,-0.5200294268300063,-0.7172155419055901,-0.7191478593510339,-0.5638015561917048,-0.3543548617326178,-0.14848211892358262,0.024391611185980905,0.14872580047756664,0.22092778556959194,0.25217789213550534,0.26311924112733254,0.2658245526035772,0.26948611121804483,0.28058476183490544,0.2915679899348607,0.2907356730496352,0.2577294297505459,0.15110304075989708,-0.1335413611397138,-0.5858902069547374,-0.8125026302554922,-0.707523067820422,0.1310127269979133,0.6824519966796677,0.7938396130974879,0.8062723291935879,0.7579343502545886,0.5850392853481265,0.052187711058543494,-0.6063397463271802,-0.8168231882875457,-0.8494854536614864,-0.8289524227585707,-0.7891057604902411,-0.7470744681919341,-0.7140679809146872,-0.6992487511022881,-0.7057349557826789,-0.7272372268321101,-0.7422547142543069,-0.6619206573958815,0.07924848003503072,0.8481057717135893,0.947067422558251,0.9670561531395686,0.9749610893907579,0.9790057541800778,0.9745633174266565,0.9317994902938977,0.7494046648743932,0.424570046632215,0.2617691049983337,0.2942976360480513,0.40662740149225113,0.5189888710117527,0.6013993728653538,0.6613615543629638,0.7182372850420935,0.7810745749681883,0.8098223220740923,0.7249345757359421,0.5715044663894435,0.4062890153060252,0.18944707294107282,-0.09901350470916617,-0.3836614649001604,-0.5878142628688817,-0.7046302751344343,-0.7609411216948934,-0.7796405270173895,-0.769776110181898,-0.7265370979990481,-0.617898908426448,-0.3377285590720436,0.23190181005799765,0.6105695209235878,0.682127238033871,0.6554164590599808,0.5800758115078432,0.4437674789898829,0.23124357725171368,-0.026925053537549017,-0.24450293744741214,-0.37969758621998023,-0.45025654453212116,-0.4887074865108728,-0.5115595895661817,-0.5159968016721881,-0.4912906763015219,-0.4314051349955047,-0.34084943654872474,-0.22699182939237297,-0.0868667596862261,0.0869165543301458,0.28879852503202524,0.49793766523787986,0.7004996256843135,0.8543180128571455,0.8875922521799163,0.8036449058108479,0.6610348351301256,0.4688865952686832,0.19687712970661408,-0.1404768865276372,-0.44605939175390397,-0.6557555439788354,-0.780419102299055,-0.8523819029953634,-0.8901517591742334,-0.9051679270018845,-0.9072500823854948,-0.9029166703338493,-0.8941716380289386,-0.8791757812752546,-0.8533249079856557,-0.7988950123922713,-0.6663239209940018,-0.41487637127792176,-0.12865437897558502,0.09666303418166672,0.25171385751977005,0.3540363530565748,0.43335267568929514,0.5081780630547413,0.5785274756813186,0.6243202133709183,0.6078278621975746,0.5336242838032554,0.486163779718216,0.5092417012734006,0.5996463724925748,0.6502064648016087,0.6083834711830847,0.5394531693795643,0.3113502196035735,-0.4672472104869986,-0.6887816015701009,-0.7238544784463754,-0.7386699496979496,-0.7472674819310767,-0.7475987418401369,-0.732780225425149,-0.689361477121871,-0.6181518301022991,-0.5597549354912467,-0.5452589977059888,-0.5375788110643994,-0.44826608180468464,-0.14830835134968695,0.348829986128759,0.6771744813441287,0.7980028687883579,0.8304291786514676,0.8246429699320346,0.7989777079180947,0.7668258818436435,0.7397434221546536,0.7252527047742935,0.7252496396310341,0.7421945541112922,0.7783800498164675,0.8260620817851557,0.871210560471512,0.9052624199933464,0.92540645669532,0.9216810552178126,0.8353853397723561,0.46123165276356054,-0.1537632816564023,-0.5074385108584448,-0.6593315120006478,-0.7282720760223294,-0.758025113833062,-0.7661631309476729,-0.763529157311075,-0.7593859309923453,-0.7628370150198825,-0.7846279726176071,-0.8250295651245733,-0.8634005755881123,-0.894580205775696,-0.9208488133405374,-0.9430838015509372,-0.9591967560271624,-0.9674543298903276,-0.9664621972414215,-0.9505946943412186,-0.9007709720211485,-0.7665201192514057,-0.46304547004157903,-0.035867183799765126,0.3343569646363339,0.6247212198701558,0.8106506617877527,0.8918841800438094,0.9216894989214613,0.9316240631019833,0.9308970897652429,0.9198896956206734,0.8914537061812398,0.8117537994480309,0.4525563820461175,-0.6042396125069099,-0.9152140658880749,-0.964889093113876,-0.9751314937086012,-0.9729217014802207,-0.9614286057082054,-0.9368154719491472,-0.886784711750654,-0.792386108808399,-0.6297454168758914,-0.355292201712053,0.06355542170326536,0.44368892421417183,0.5866748745967836,0.6036375131282026,0.6157996853163106,0.656918547791509,0.7054572493389186,0.7351910794348315,0.7308985815246595,0.6851841074624991,0.5961509560300016,0.48006031892342255,0.37341141058023497,0.30308419896767336,0.27316519538564227,0.2676263249501608,0.26260614766401164,0.24447995591128577,0.20356708829036532,0.13152783276443178,0.0009448884850130196,-0.1982075153146429,-0.30669407920851155,-0.3351311020460853,-0.351086162804564,-0.3659152879430871,-0.37838423332751314,-0.38292499813158826,-0.3670153355934473,-0.3139910256551165,-0.21249228663258263,-0.06441498209168055,0.12034830552301813,0.3214180323342642,0.5187055258013171,0.694063434616411,0.8269916936475318,0.9064387987383671,0.9404169227612896,0.9488218786525253,0.9482625377738128,0.9449214065337962,0.9363666268736528,0.9086744186967696,0.7895091045169229,0.16438533126966134,-0.656745018098241,-0.8477041404702216,-0.8895056611376806,-0.8973112824555082,-0.8964439846163536,-0.8941649705865421,-0.8915248378320837,-0.8906443852651489,-0.8965160986081581,-0.9107786421414376,-0.9269446771129207,-0.9284117859105107,-0.8982632133945264,-0.842321043362665,-0.7850127739270902,-0.7334893992256306,-0.6630015980247557,-0.486908751993082,-0.01912658023405227,0.5608111441325893,0.8185557433839512,0.9055798415777515,0.936406341964893,0.9395979948601358,0.9007335782275997,0.7059923204003405,0.17686658134166783,-0.24698161356634665,-0.3912597322878662,-0.4058504856260679,-0.3618245663585463,-0.29505417986323734,-0.22995195857595205,-0.1828730901522874,-0.16514150984148207,-0.1823347668685664,-0.2249290387380286,-0.25210381102340707,-0.20359730098238799,-0.06526419017338392,0.10805500078051487,0.24837081022765323,0.3371073657014539,0.3807626705705538,0.38843020711425685,0.37058098575939136,0.33885603232969924,0.2968070850743824,0.2384233241611611,0.16087736595760838,0.05455542262137613,-0.1016315642272921,-0.305458058899248,-0.49033781891706707,-0.5997842178329796,-0.6398703305725668,-0.6212394771812407,-0.5464518479422596,-0.41903999647956425,-0.2634089226815996,-0.12910269366508004,-0.04671276618612772,0.009001991038499248,0.11215148895294029,0.3080543319506133,0.5303123745991487,0.7064469547209002,0.8188138139011293,0.8819041487261636,0.9146316148396413,0.9313711950449841,0.938627853119475,0.935324473159698,0.8980472357579815,0.6998885463092056,0.03160286550484999,-0.5688843305215819,-0.800382633837609,-0.8918817168637176,-0.9310569026055916,-0.94621419777509,-0.9467232041040765,-0.9343760294315862,-0.9053874224392067,-0.8535684529954283,-0.7811680373813716,-0.7151672007172039,-0.6837584047230241,-0.6809892402776928,-0.682243176984498,-0.6725166858971874,-0.645541893684415,-0.5871643333499695,-0.45154007572727156,-0.21576771772641332,0.00968679981824403,0.17722937806730438,0.3170422348582292,0.4515831312155667,0.5783064886087697,0.6723102927148026,0.7145888798940734,0.7103968991099258,0.6773433916143322,0.63192438426703,0.5852264017264023,0.5413810106625733,0.49312936260932355,0.43456481251887424,0.37778296630591923,0.3352319193353499,0.30701981307211196,0.285363684874168,0.2756519639612264,0.3326763051920668,0.554324165173766,0.7854272243525835,0.8739071087243384,0.906136761620157,0.9213562103280348,0.9278158188755243,0.9257971327252498,0.9094262244727102,0.8585732255293635,0.7280676599877045,0.5124494701796094,0.3200189466316432,0.20414702470876886,0.1362520905717143,0.08752780934934994,0.04372639189166284,0.00413827356718612,-0.010429537695924985,0.020287361369552406,0.06138361333716114,0.08889439831095179,0.09527422540297537,0.07168181076542632,0.012315161132862863,-0.08567437695882558,-0.21072239688283964,-0.32739918009659963,-0.40163746717058746,-0.4296479586938222,-0.4232793002670055,-0.3961435903851336,-0.3592155241134879,-0.3208701903792863,-0.2763810831641164,-0.19731015770044716,-0.06891815510770768,0.06519933352361204,0.19525800568798587,0.33160308138650296,0.47110927121634244,0.5998351809631212,0.6703296957950889,0.6557244818604969,0.6210961512393814,0.5989865623461709,0.5758118421205919,0.522442058078366,0.394176666901006,0.10419791098914317,-0.3660091239186396,-0.7067499159324903,-0.8293875818247247,-0.8631880277247456,-0.8637133602970898,-0.8460700580351251,-0.8153663525980298,-0.779336790271102,-0.7499520654803188,-0.7352339539198084,-0.7277083043180067,-0.7118220910686514,-0.6666563334667567,-0.5708994195578978,-0.41786437589136494,-0.21516494378091536,-0.005949032583218041,0.15383201863530685,0.26539888552807617,0.3519357402051918,0.43248575667940725,0.5009561172408192,0.5419109153820812,0.5391959718115582,0.5056765962536307,0.5041903987692594,0.5418739321020175,0.5659114029589097,0.5507712058598511,0.4953253505713383,0.3946773225261743,0.23962461895199264,0.020574036929303405,-0.24614621852081073,-0.509361369787121,-0.7268919266085466,-0.874104054231479,-0.9501597877257587,-0.9675316974006019,-0.9457106186079683,-0.9048693257133059,-0.8606998339387394,-0.8208853526973554,-0.7876735780726857,-0.7593276118251364,-0.7367139930125421,-0.7164664121009887,-0.6824960794934263,-0.5802960677165903,-0.2140013296653263,0.5025775185787144,0.8052224704483877,0.8812328628540427,0.9067041847125386,0.9152601035049307,0.914798867741172,0.9092496946216093,0.9036815985166888,0.9035023842097488,0.9094812024002754,0.9186005336305446,0.927620624076936,0.9290195591620157,0.9149689535813788,0.8809600512425145,0.815576893097513,0.6691357891635457,0.27725309392117936,-0.38555001890182466,-0.715642500603157,-0.803969037587278,-0.8126357638565533,-0.7500772205421898,-0.550133985417187,-0.2582513970818316,-0.12051182112417394,-0.24593834770656692,-0.514840190788732,-0.7217627748694172,-0.8242197448826291,-0.8643978674496521,-0.8671026188551761,-0.831591468046202,-0.722284345883826,-0.49476432103660345,-0.2174312481299259,-0.05222713562309369,-0.010932438100674789,0.025390294286029062,0.17061185249371452,0.3675501117425078,0.501463720310824,0.550996268344018,0.5109792638351233,0.3405350614660919,-0.035242034166599344,-0.4697374094522873,-0.6870405582111289,-0.7453745558172133,-0.7436928059967016,-0.7163171346700845,-0.6550819471262714,-0.5134952338957905,-0.24638812756432268,0.055385377451566783,0.246202368649191,0.30092020903427824,0.230921135851726,0.04975885553850759,-0.18854338339519175,-0.39717871790415143,-0.5389649664309172,-0.6248548598091976,-0.6797195848607255,-0.7186355527540329,-0.7471464545436867,-0.7634355850469181,-0.7670542813198107,-0.7623271698342909,-0.7523974439932397,-0.7164600030396361,-0.5481220564704901,0.13755766783630027,0.7645531346743837,0.8931163927805261,0.9170862139024402,0.9105963814116239,0.8802409303656309,0.820233081224691,0.7301829405477569,0.6294820305677337,0.5430579655208323,0.4815747467368697,0.42740769916545246,0.25979712355642376,0.011644817240225827,-0.07445052606263328,-0.06690749843301477,-0.010961382726047705,0.07801921594221743,0.19183716150713007,0.3209833925146172,0.4608368183983644,0.6055782971273798,0.7195119056128711,0.5906609325590859,0.1187199452659892,-0.12577255570636348,-0.14268637590027472,-0.06313973711175172,-0.02601411216583481,-0.10337787895000716,-0.2597401933396941,-0.4224723639156993,-0.550430426229875,-0.6346649029506242,-0.6787119133658491,-0.6886622280171579,-0.6663314357251165,-0.6106474343106839,-0.5247129266415531,-0.42223311180048884,-0.3161682665330292,-0.18838848432614194,0.04886755986284666,0.4195637766876328,0.5617401027451635,0.5826077955375315,0.598681952599688,0.6169847124065171,0.6336106977178887,0.6389381302377293,0.6131435758831791,0.5057964831693755,0.19453175387495314,-0.35560812514548634,-0.7190598039335063,-0.8429031725806344,-0.8735684075719737,-0.8590416263117246,-0.7931351162414366,-0.6329264225976533,-0.3273857178856926,0.03504488806212884,0.26096331062788797,0.30700087964113776,0.16001984754638432,-0.23842243061462648,-0.6685314413360216,-0.8583297285513408,-0.9131815797099109,-0.9204450126763906,-0.8948518472078836,-0.7586621210913825,0.16126340240611978,0.8202618294881623,0.9030373630231494,0.9141143418848422,0.9001035603911332,0.8594704580240234,0.7857970243507527,0.7155936857224543,0.7370216422494494,0.8305104487457683,0.9025355235950683,0.9370187232011234,0.9519698140172842,0.9583290988163178,0.9606661649895587,0.960061964783218,0.9560080535336616,0.9446487852601544,0.9082711972936071,0.7344285754262092,-0.1769423085342308,-0.7781845817528655,-0.8894361352330696,-0.9238544437686621,-0.9446214949659872,-0.9640368518749381,-0.9799258975097519,-0.989215349407956,-0.9899975358752027,-0.9509033448728764,-0.21850262727957698,0.6572051921741296,0.6498330113205929,0.22525864330292408,-0.44697327858065183,-0.710558719235172,-0.7807013228273875,-0.7878314223458327,-0.7588490422192053,-0.6946050855333508,-0.592438518803547,-0.4671802548378086,-0.35823027977526417,-0.3076238013597933,-0.3243719675010635,-0.3730537507537439,-0.40580730953298727,-0.4103332680248237,-0.3831432196177224,-0.3403669060403176,-0.29837034871965645,-0.2660789208401645,-0.25393224972420236,-0.2578376444378591,-0.27500517728377194,-0.2657085048206921,-0.16512875140766184,-0.04304045533053467,0.05946460464364744,0.1375944539222136,0.1765289976700227,0.16799290356097688,0.11333971958069737,0.03159125116311081,-0.031134636028212013,-0.011924715588650095,0.1252187467050026,0.3505824642911189,0.5630725299823571,0.6908808495123786,0.7417424456603215,0.7398647140518043,0.689677919257389,0.5783034164435533,0.3690500705375879,-0.05810379261572588,-0.5063461043868052,-0.5387543960599992,-0.5011329688389388,-0.4735138273021935,-0.4585002933452166,-0.4498831788937586,-0.43624161531894057,-0.40779421804615934,-0.3619348276142529,-0.29886633780566396,-0.21441111435585475,-0.11719392872780537,-0.034905601416059424,0.014290244519054647,0.0192409965082778,-0.04411489314373514,-0.20847727362801355,-0.4580343152872012,-0.6869808096558161,-0.823370815582048,-0.8696565982531222,-0.8283345482163652,-0.6955705041020253,-0.4766844812133683,-0.22172440910011879,-0.013110141694732874,0.12107341287216489,0.19209468414284359,0.2199265157110481,0.2219517027063355,0.20050408706687595,0.14825775450936826,0.05687892778593683,-0.06349116683384787,-0.1890754482858939,-0.2742890734558583,-0.29969948013410225,-0.26825810127241195,-0.19277430568101905,-0.1038303310131143,-0.032340290348116515,-0.00562431955673396,-0.029162486125426167,-0.0869200843403506,-0.13916377652617407,-0.14933749498182491,-0.10092227244322115,-0.022336096578757212,0.055926029801274486,0.12333264247208536,0.17413495490818418,0.20478317674898844,0.21335630823141039,0.20403153085551415,0.1867528920012895,0.18036478877546477,0.2086351506976455,0.33042735538097034,0.6301019198912243,0.7350711741564604,0.5876505105915228,0.5060879120333158,0.4925884134213402,0.5269277974073263,0.5773199528295099,0.613596059493064,0.6248589179016603,0.6148498298519982,0.597469643535828,0.5906353334490098,0.603021327937308,0.6301546880470152,0.6517513385488275,0.6426344802011462,0.6040963129359145,0.5575621317925744,0.523247076217057,0.5152158579391438,0.517274261672446,0.47987581150884834,0.3372268512632709,0.042027051365214244,-0.3105144574432883,-0.5475623850932647,-0.6493475394960578,-0.6581276946357852,-0.6086034546423201,-0.5311772953028163,-0.47794791865030706,-0.5488401219738474,-0.6201599567140056,-0.521535576604623,-0.44827180750397905,-0.40119056175714196,-0.38466383089995226,-0.4055368538596967,-0.4520726386705636,-0.4962052125201764,-0.514949026535071,-0.485103339790607,-0.3935266573007419,-0.26075260184743065,-0.1323471547220753,-0.03446045320039762,0.03523236893457306,0.07764641922420987,0.07955927888570095,0.01497008513702596,-0.1378132623951838,-0.3522761716929283,-0.5480535411344138,-0.686538763318128,-0.7758717782430191,-0.8316808230099532,-0.8633026036608819,-0.8756739726444718,-0.8704408370105141,-0.8477330333258031,-0.8043570083892001,-0.7369364606454357,-0.6374651730610353,-0.4936293788326684,-0.2892964302753237,-0.005795999961770402,0.3524370291409683,0.6534110294783675,0.8031937409733091,0.8533953683323556,0.8456447221872258,0.7717221450583768,0.5576421198313436,0.10997106080450936,-0.2988533167322991,-0.46112177140448773,-0.4930939911921256,-0.44420533767807074,-0.27698478012919153,0.08742040493967279,0.5318582596117215,0.7846587430874887,0.8811375269594173,0.916920662172718,0.9360141748855455,0.9554448557615376,0.9722228176851063,0.9809675089860878,0.9847231008837579,0.9863832333896817,0.9873328067925369,0.9872633648694044,0.9817288916604673,0.9351044138223839,0.5533757248355287,-0.19692840011297744,-0.4313221153070638,-0.4674317381957823,-0.46427054948097735,-0.4701754172104939,-0.49756101740247827,-0.5504493808847312,-0.6204675140884519,-0.6777694715688094,-0.6939047650089437,-0.6848312028141543,-0.6810801984429898,-0.697013889696591,-0.7406769189767892,-0.8131454685231361,-0.8868414545341043,-0.8916912460395578,-0.8212564404182675,-0.7385330182281344,-0.6674536636844076,-0.6051106324565291,-0.5502827759866493,-0.5063703243436783,-0.4783606055845421,-0.46330252069782435,-0.4533263857808171,-0.4345570387504591,-0.4045163089638637,-0.37639772431712054,-0.37136498751297586,-0.40771603200113715,-0.4846545770727907,-0.5820007740237094,-0.6629067699696631,-0.7056090085343745,-0.7199955652541107,-0.7367938203882592,-0.7819769618914458,-0.8503639101144357,-0.9136553015326887,-0.9555059637989538,-0.9723950865789354,-0.952123221628949,-0.8246059522985649,-0.12148069239454125,0.7352018758239139,0.8942173216069508,0.9277497457294452,0.9354844072651334,0.932066805063668,0.9120796448122647,0.8305068886326815,0.39080496817413846,-0.47803394573914637,-0.7422645370720843,-0.802903700017926,-0.8155144700290573,-0.8120937238581386,-0.8058823722272058,-0.8050555116532281,-0.8119742021541685,-0.823518451869868,-0.8311946444870523,-0.8224281407989884,-0.7804488588974814,-0.6758998004814364,-0.4631566106912003,-0.09799784130674867,0.37051836321178194,0.6836329632002166,0.7826858528274822,0.8111597002925778,0.8308487773103408,0.8475911822238429,0.855801328268772,0.8532546971349182,0.8434583389864256,0.8321947754475687,0.8255790252942069,0.82771895556065,0.8421095800877167,0.8645875829055558,0.8782525368334908,0.8564030850992227,0.7647743481245548,0.595258588682474,0.38720822155384554,0.19589098487392093,0.06914787449002315,0.04416949022927233,0.11869611873508097,0.25096598693495914,0.35630766899563115,0.39515354310357925,0.386657306271605,0.3674129254648957,0.35922913214224017,0.385043754782613,0.4449236392785747,0.5064300449388943,0.5571448153180284,0.5990990925693659,0.6309661258405398,0.6511122506674379,0.667065338008302,0.6898644397209577,0.7135839741376283,0.7166434174543879,0.6949903446588499,0.6521416835940935,0.5851142356864253,0.49024279185958064,0.3680116547342473,0.21992669049434282,0.07276145502216191,-0.03673163615393893,-0.11977875368858687,-0.20705947220117787,-0.34552498687911654,-0.5610280919096478,-0.7655281811580372,-0.8698311498982164,-0.9073085000525568,-0.9170075100344811,-0.911767119776755,-0.8973312115344863,-0.8780057725516734,-0.8558917367593722,-0.8259632873688704,-0.7713051301016244,-0.6430797594426919,-0.3033310052186945,0.3468942783601811,0.7788076777794064,0.914486546997088,0.9578765934917193,0.9699183298388114,0.9680646266800108,0.9603758140837877,0.946228524642712,0.91838350591433,0.8674329089093261,0.8184576284164902,0.8508477307028207,0.9312405584635246,0.974973030282446,0.9891699889367976,0.992371252531654,0.9927650349531583,0.9925178098051662,0.9918105620672034,0.9905493089939776,0.9887315579153803,0.9850271019667459,0.9727472486003957,0.917138167599727,0.5593948433914278,-0.45294823247206534,-0.8050078317547125,-0.892227613194471,-0.9234263947630053,-0.936372692467701,-0.941814303541159,-0.9433033958916908,-0.9410512012484917,-0.9346866487811815,-0.9238263343688686,-0.9072564482272495,-0.8844464982188407,-0.8563812438251434,-0.8294948589049133,-0.8196235321146165,-0.8298911680146495,-0.8286516627991728,-0.7591699296663628,-0.5469386892757091,-0.18527075668523885,0.14261462629579522,0.32210296988193876,0.37630544108897124,0.32401196599136667,0.14262018941593882,-0.16280260916810493,-0.3922221838024003,-0.4441114253873978,-0.3934699654637247,-0.2858403936748832,-0.1426658467851732,0.002048026931201435,0.0991807101465723,0.10838547692152319,0.005614742676535578,-0.21435389338206412,-0.4859764045617684,-0.6750576537392233,-0.7528312918119686,-0.760163752961677,-0.7225814411813318,-0.6456365676478377,-0.5340091960320904,-0.40849782945516794,-0.2979515313666846,-0.2133392688545774,-0.16146363754692922,-0.13353370106907436,-0.08904439773712881,0.121124960465889,0.6150908452209946,0.8885083539560359,0.9505132733655018,0.9645291168613762,0.9659324620313092,0.9607173767934971,0.947368600119881,0.9172765933563005,0.8413958341173388,0.628611499250876,0.15865165447879703,-0.2541981957664644,-0.3238523887533925,-0.08457583751355051,0.33321614388231213,0.6593317511970181,0.8285269742315285,0.8993282803840156,0.9241643295563596,0.9260373061005825,0.9101875135232711,0.8778489893527666,0.8400069887686041,0.814554040753411,0.8064390024779057,0.7761997584269104,0.6118111275354498,0.205926970824516,-0.16191192308200075,-0.3353646166606315,-0.41035026696566507,-0.4467132693309114,-0.4681596379734868,-0.4766656131219436,-0.46603686223409374,-0.4432087438731735,-0.4503671536201098,-0.5344536465980884,-0.6617269414026797,-0.7410084923622383,-0.7137796872910829,-0.6176560676224736,-0.5168811742650027,-0.44205944981975703,-0.40198453197197614,-0.3983720479062054,-0.43033816535555747,-0.48804028600727106,-0.560658466892447,-0.6324882696727665,-0.68877586289991,-0.7223535401493542,-0.7407830037698244,-0.7637943481789826,-0.8023161540610464,-0.8372409618642459,-0.846205522465015,-0.8380034504379693,-0.8274662357590762,-0.8154287275354439,-0.7887962224762879,-0.7319998008156846,-0.6510262685422746,-0.5606965845255545,-0.44912821109191914,-0.2902058436260784,-0.09135137143308171,0.06745844756743463,0.10760617656420199,0.03800258780095924,-0.05651316132763146,-0.1255072075728305,-0.17533098850854859,-0.21716772634769868,-0.2557273204093631,-0.29217107526013625,-0.3275578271227808,-0.35231747089730087,-0.3233086063292005,-0.2423523685767491,-0.16492830338398387,-0.10336399108751738,-0.045189301205986784,0.01788095964826693,0.09134354333843135,0.17833581477768115,0.28382553374641345,0.41137637693621304,0.5546956433409769,0.6970931352470146,0.8194465155211328,0.9136851869505277,0.9473184907714621,0.8222162477807645,0.5633148292582595,0.3536707261325427,0.22866725841534988,0.14901341434127405,0.08986925972612557,0.043681013304628966,0.01321733391644426,0.0013543674627798951,0.01652685889207749,0.0656335184340365,0.13949876042266357,0.21210043964277042,0.24258547063615166,0.193114326806203,0.06492624356215375,-0.08482778143531491,-0.19718455280573854,-0.2604320619502366,-0.2799045351066129,-0.26520878419097293,-0.22645276145072957,-0.16711086212785536,-0.08025139816766262,0.04760497073721922,0.21999393478545085,0.4045913319459481,0.5475216405431342,0.5998614213356315,0.5317517450234758,0.3365815681123563,0.026996205793817486,-0.29499573399798723,-0.5199973705305194,-0.6403651214583129,-0.6838239470336815,-0.6642136606768783,-0.557157104322516,-0.29769105587275446,0.1379760897959304,0.5252211826359867,0.71642243470961,0.7911543737168409,0.8179484541326373,0.8300780778817888,0.8462039306606884,0.8726903147202727,0.8983604831156369,0.9121348939678694,0.9079132340697086,0.8737892191354576,0.7621901638801835,0.37466862655225225,-0.436475020304273,-0.8355415148216253,-0.9408628303564979,-0.975379528497962,-0.9896096041070248,-0.9960439914678675,-0.9984993299411727,-0.9983603308366953,-0.9961002318873774,-0.9916960403717674,-0.9843639478723009,-0.9704945308719208,-0.9407664766225856,-0.8751009838990625,-0.7290754865186428,-0.4316497287888038,0.0016800039502435252,0.38968534980434705,0.6356592993665495,0.7748917747380918,0.8525640085572213,0.897266627372581,0.9242184610285966,0.9401834521978986,0.9499184173725845,0.9584151113122543,0.9689960573658825,0.9777394013018618,0.976865459638111,0.9618357112121467,0.9290415780775156,0.867167872081351,0.769436181611932,0.6577693170280403,0.6129886870797625,0.6568292292740642,0.7170180968869618,0.744648347771006,0.7255410357048949,0.6063380147491029,0.2750576173271348,-0.1213422375079056,-0.35066466191789597,-0.4890184515020242,-0.5823850523606418,-0.6239427746847375,-0.583915319210133,-0.3854877481986999,0.09641177730610583,0.5995472413796843,0.8149011420372253,0.8917516822963053,0.922045414008829,0.9216528545946427,0.8695563337294664,0.7863078835303011,0.7630873406209743,0.7821065104895834,0.7929187306505187,0.7799840358401191,0.7359269600594952,0.6540742623467084,0.5270365525742124,0.345200447858378,0.0943885696903664,-0.22144013216038225,-0.5252970261312782,-0.7349590258665183,-0.8547443711651938,-0.9238013839368016,-0.9643063843571575,-0.9845777974149729,-0.9897650533471337,-0.9848003036257523,-0.9685863331831946,-0.908723188084734,-0.3786009403140139,0.793328167163429,0.9405500793579028,0.9698369728787782,0.9812678513910778,0.9860108815494386,0.950591504777339,0.6592909092544859,0.26470923501619614,0.18485705006365044,0.27374482607064804,0.422722762138129,0.5806602596608051,0.722165731921561,0.8332612963837923,0.9072680302023021,0.9449565560441913,0.9531180252218527,0.93112221634805,0.8070898319881409,0.09583030364549998,-0.6976945044354118,-0.8812501737192171,-0.935847067715542,-0.959239284534346,-0.9723042328457413,-0.9809102628247913,-0.987011383223666,-0.9889920210302683,-0.9791882331028627,-0.942857458173397,-0.859112012301846,-0.7053149343291778,-0.49520165059338894,-0.3042066225469173,-0.20534967305016327,-0.2173731097831654,-0.3054251896980643,-0.4081407622809183,-0.4783910901720327,-0.4981453068801597,-0.46361338193152735,-0.3556065784883611,-0.12331181708748389,0.25094178391143285,0.5875017555607899,0.7561077177222664,0.8137828416826285,0.8143095990684822,0.7764321981259448,0.7096272071053609,0.6274639505516821,0.5352745376944739,0.4156401444164734,0.295762828453782,0.22695217520423736,0.1918012036437586,0.17279415918853896,0.15867877503065103,0.14099381635768718,0.11686829320716377,0.09206505134018506,0.06595279995611045,0.04274441290387246,0.02287305784931632,0.009149659429402391,0.0035153255759527557,0.0051334367183190135,-0.02023218137091904,-0.12757985674969127,-0.3357471259511663,-0.5366096254395563,-0.6376416720406073,-0.6601424318384815,-0.6480406262080781,-0.6330927462870524,-0.6350457130104619,-0.6677854762031747,-0.736098202317241,-0.6407886409938575,-0.25501182949762147,0.039251903357343215,0.23317021982623604,0.339020772890608,0.35728004049870055,0.32272784946078675,0.28270839289892086,0.2760415379235678,0.31337851358545776,0.39374573736631063,0.49790663283231984,0.570322645648577,0.56560837437797,0.47680595849438806,0.31639196403203734,0.11621933772720462,-0.07616908398839624,-0.2352028570358466,-0.3745820118932063,-0.5265602986532889,-0.7012137125550205,-0.7854045151635966,-0.6074235582583277,-0.29407353251318596,-0.005232426452222331,0.20966614141269047,0.37174566344178755,0.5399761915232575,0.7232328269328667,0.8491783459000624,0.9016442349327366,0.9086686293012358,0.8746532874902074,0.7600064817244483,0.47438235619905406,0.07420571780670897,-0.14622243992364597,-0.16118125787870105,-0.10721372441651536,-0.07467570585639474,-0.0995022872287739,-0.19638350621972012,-0.37111898681457184,-0.5938928294630516,-0.7937484455398939,-0.9151347245302567,-0.9670597597979135,-0.9845723710187025,-0.9885008291871777,-0.9854843686138673,-0.9732914025565246,-0.9310661264107382,-0.7041872558773652,0.36488698592567004,0.8450520372947687,0.9317328900060511,0.9600740017325035,0.9737127125165134,0.9809152397054701,0.9845952555583299,0.9861556271328645,0.9862843992935281,0.9847789013935552,0.9806044587914292,0.9705698766637518,0.9453693368004705,0.8755185046823301,0.6709133316627958,0.2008227381094022,-0.35829493240285676,-0.7632328192021661,-0.907145624561161,-0.8603119851070746,-0.836420259296214,-0.8587408471241729,-0.8964795203946687,-0.9294930138059101,-0.9535619910404872,-0.970576274526455,-0.981776996931689,-0.987832321570886,-0.9886418206770039,-0.9855082802907738,-0.9763371620518518,-0.9542761475767271,-0.9152780565134202,-0.8694446418307823,-0.8337572478245027,-0.8135559953420276,-0.807129681544556,-0.8072866559942,-0.8058022018256048,-0.79914285946849,-0.7891447628019139,-0.7842253054339962,-0.787738267698174,-0.7916588847088667,-0.7853100985091098,-0.7635207656648437,-0.7308584515078151,-0.7004199089636803,-0.6923098924790381,-0.7218562934065337,-0.7720184456851981,-0.7870239477501743,-0.6877971611618524,-0.46207211706657,-0.21588999470389375,-0.0552857377046741,0.021821534769262785,0.05590104738582778,0.06667227639959927,0.057264402707533774,0.027247261487344424,-0.015911513034104884,-0.054648965875624136,-0.05324527803953219,0.026021933932698374,0.14083608942569836,0.24326601196594802,0.33242963473512327,0.4169447989823128,0.499813779725533,0.5815064743292079,0.6591423269285336,0.7229793034203457,0.7659754643498592,0.7870481059020517,0.7872245097114577,0.7647808606667668,0.7080406424313946,0.5854453590284823,0.33400856238843174,-0.07036625152862463,-0.4817581367400112,-0.7551125075344264,-0.8932547163322663,-0.9483293645957644,-0.9600000961008311,-0.9516977034435579,-0.931203779515645,-0.8895413582735407,-0.7776878678374629,-0.37976261312343834,0.4268506172506481,0.7893351104713573,0.8879844729865586,0.9193142602464068,0.9271499927905841,0.9220554506274949,0.9061030653913151,0.8821327687053875,0.8596615219058771,0.8509594461990451,0.84508806615109,0.7714247336938655,-0.30144110290674897,-0.9077110000189414,-0.9340852141823788,-0.936434108846568,-0.9347811285215734,-0.9303626580703223,-0.9234225893059743,-0.9167370122215903,-0.9145258446645511,-0.9150914994840136,-0.9121256454200275,-0.9014342946685335,-0.883799475242761,-0.8673223272116759,-0.863795196307638,-0.875828795704926,-0.8892335260109345,-0.8806027900739223,-0.8180199811456609,-0.652304812556224,-0.4501555612816139,-0.38816547268453194,-0.43389565922377626,-0.4856301665495726,-0.49642790247448193,-0.4501226940881049,-0.33866785554603046,-0.17120728700728047,0.021703110502018327,0.20081863405447903,0.3499778571308902,0.47355047367177755,0.566571789562727,0.6155734458725556,0.6070571011309924,0.5283699027975156,0.3475897136526989,0.044514548472213866,-0.22660241381884386,-0.12830324118463873,0.6640142947897493,0.9520436453489693,0.9768734778231412,0.9746811543975978,0.9623981959896908,0.9254880715962162,0.7682206388715719,0.12098399255828915,-0.5028526092612512,-0.6743435736552591,-0.7124878328277692,-0.7188154188997756,-0.7126067784517472,-0.6970691083925187,-0.6647621836573562,-0.6070509812950692,-0.5172632546260653,-0.40485656988968266,-0.2906741449771945,-0.19041157104371095,-0.1030311219511689,-0.01892942812169137,0.07177790927834941,0.16791744142970014,0.26533060820634913,0.3599418924438791,0.45510228426624344,0.5628872242964251,0.6828783562290623,0.7947256857934737,0.8804651404702141,0.9371824898422028,0.9645464155598675,0.9424671632768272,0.7830860766086256,0.4203614838900705,0.1316556981870062,0.044860698037079996,0.0563047077017053,0.014746625813814394,-0.2597100623967652,-0.5971345259758322,-0.7715708983922072,-0.8682419486253757,-0.9255142520662717,-0.945837551274244,-0.9294508858470558,-0.8768775119817905,-0.7932490401220993,-0.6960910975211532,-0.6080875797202167,-0.5448232403569446,-0.513282866515016,-0.5099954864771672,-0.5239998722584801,-0.5448970832823571,-0.5633610894439751,-0.5720566771030791,-0.562401640005022,-0.5289586414236115,-0.4697638617699569,-0.38713753262430767,-0.27793544190928804,-0.1499340904854941,-0.011299254555178806,0.13495292344117435,0.2862315951557141,0.4342742350338423,0.5665541043437136,0.6642194674758407,0.7190655224630419,0.7337366047282633,0.7056722758819689,0.6298384716524588,0.5081160947706471,0.3731731949796708,0.2942019875168634,0.3104364473952087,0.410234301000011,0.5274467757318907,0.6138530168636273,0.658964599618691,0.6682108379104665,0.6552136670716353,0.6425283761420436,0.6522002249714857,0.6863029743592282,0.7283051385798172,0.7686744153754304,0.8004484226294478,0.8181284927635991,0.8156459225728666,0.7771124997120972,0.6495688455922719,0.37690912485959194,0.045968503264782815,-0.18435775327959755,-0.3207956657402843,-0.4191659378350168,-0.4965255262090124,-0.5497723677176208,-0.5771447451475266,-0.5722395026440089,-0.5307690778888524,-0.4745686893676944,-0.4210154700321388,-0.3702539469132632,-0.31640028691159117,-0.26179138808949004,-0.21807558089575713,-0.19086480433602263,-0.1781542701792504,-0.17070888803424947,-0.166928660868638,-0.16699944267930777,-0.173378188853022,-0.19260544764140342,-0.23135498228955717,-0.2905756283292511,-0.35061335735897176,-0.3624219342363341,-0.3046512936334661,-0.23213131545579963,-0.19294273198027473,-0.19547120370068638,-0.23586202318937216,-0.29919929476728735,-0.3445980173297619,-0.35742272054703034,-0.3446618894348307,-0.32295613717642596,-0.29006077003494,-0.250682959494443,-0.2149648388900215,-0.1784867991053544,-0.12598091005266898,-0.06242909535827528,-0.003628457022473065,0.03342019954451137,0.04530959656654769,0.03371579340917829,0.005606317048157791,-0.031237429858439674,-0.047232740981332046,-0.015132333465826249,-0.010388287783575081,-0.046794893287680925,-0.12205219694895791,-0.22715978860168898,-0.35321380242504463,-0.46498498610509087,-0.528844632160294,-0.5250788396128668,-0.4575135788246027,-0.3474215978156292,-0.2301120119603352,-0.1303304861041114,-0.060994612610219275,-0.019176315365514063,0.01678952938293263,0.08192731361456171,0.19805997119117127,0.3675613994045676,0.556001552002668,0.7126598078268147,0.808945169765832,0.8594417092287299,0.8868834109354925,0.9009065143559636,0.901955800953782,0.8854043413465357,0.8397436263064386,0.7536946191135167,0.6383482277676693,0.5231104912025014,0.4388139298072826,0.39554957139978836,0.35805757000812766,0.29481288369763586,0.2182466686250989,0.150913221374975,0.1112799716891924,0.13061874246570476,0.23502411789335137,0.29810734249898385,0.23153725085422686,0.09301112792214566,-0.03322011749145923,-0.12076550085560098,-0.18119873227289449,-0.2394082886762022,-0.3051024938562823,-0.377311180744231,-0.4511324318841718,-0.5182213510668565,-0.57451692534116,-0.6302251596607583,-0.7016672063939172,-0.7964963338896707,-0.8896502940843247,-0.9245408408484432,-0.9078972932033232,-0.8789257665709796,-0.847088577715733,-0.8089250489173647,-0.7553471568178542,-0.6762702322658739,-0.5756626153527854,-0.4932944155070572,-0.47959135265528785,-0.539281463164332,-0.6256958541324403,-0.6819210778425165,-0.6666917385514378,-0.496700766833749,-0.08287232076745629,0.3206132434990042,0.5709955270132278,0.729118483097649,0.8325261396266082,0.8968857683740992,0.9343443134788799,0.9553535315558392,0.9671722553414135,0.9735331807048104,0.9755306586601509,0.9723255607672755,0.959403099722429,0.9193456885152229,0.7762064855612374,0.23764874517726498,-0.5138283810403421,-0.8045658518896317,-0.9017641249226113,-0.9414900751112495,-0.9580510206814086,-0.9615372865837891,-0.9550324148111675,-0.9378776975905131,-0.9043096733346332,-0.834029315339116,-0.6481841086756608,-0.1397190952337565,0.39472575653322967,0.5160209828676187,0.2906627279352325,-0.38657071413116706,-0.8229754952559035,-0.9348952193536553,-0.9683376605944918,-0.9803233674985815,-0.9778734923601001,-0.7940001739061062,0.8800351088629162,0.9516957642990665,0.9535116061035669,0.9245904233379302,0.7323633995136587,-0.25927171023680634,-0.7561507475390082,-0.8588116394326061,-0.8948474825623918,-0.9114674319743646,-0.9121093847981782,-0.8805080956681385,-0.75895309437246,-0.43772277969880463,-0.06585040923212342,0.0815782906239427,0.09951724129256286,0.1044961182553925,0.12549312944219237,0.15667908575004127,0.2173603237833618,0.3365342299881188,0.5166640665777829,0.6989148147417945,0.825885623755177,0.899949923251531,0.9424536402364005,0.9666740847527061,0.9789141223778371,0.9803205579652056,0.9698193927028564,0.938772904312658,0.8248115876356021,0.3203016838650217,-0.4144550787543779,-0.6774480698177018,-0.756260025198013,-0.7825563658248725,-0.7919991691339074,-0.7985523334875639,-0.8111457856032896,-0.8342356441523648,-0.8626760536092171,-0.8869132875304926,-0.9031566281498676,-0.9116818543414594,-0.9130419745403489,-0.9066599776030525,-0.8898607831182828,-0.8524313097514714,-0.7687120567862601,-0.620264016653146,-0.44315869826989307,-0.2822743596242406,-0.11273575515000789,0.1493669767886391,0.5317449263205557,0.7723375566028042,0.8232764726944953,0.8307827301437026,0.8386206934160506,0.8507998738219141,0.8658063802708977,0.8808504557660947,0.8971631567183856,0.9115202821470464,0.9080952192657291,0.8365777214272158,0.5768594399618239,0.21788607797644108,0.04298509893742011,0.03510774895742607,0.10529666966592206,0.17780416280777034,0.19756591601225,0.14114328746925225,0.09818246726561826,0.2955753070261231,0.6793376286269612,0.8781568376084039,0.9439239148137107,0.9669838297041814,0.9738423612379237,0.9680205746110231,0.9117225292653083,-0.0277727777701134,-0.8924402450661926,-0.9553077550508415,-0.9677994949814418,-0.9702823064100395,-0.9672340830312854,-0.9553860608406692,-0.9203689206882868,-0.8061719137181119,-0.4370530206871364,0.0691318926069844,0.25048816478922215,0.20611845050690322,0.09504641332482516,0.021676071742067433,0.01943461980456846,0.0894741366527144,0.2100090668351339,0.3373485988614335,0.43063705201180774,0.47547158788378246,0.4751953317858419,0.43940212783062477,0.3761456224591806,0.28782693827069983,0.17084114752074683,0.024945078790222158,-0.1417494294599794,-0.3190923551736065,-0.4976166603110244,-0.6626038857006432,-0.765071903146523,-0.7549560379526556,-0.6750993400241883,-0.6027189993676247,-0.5589038802712392,-0.5313822967994611,-0.519741683882298,-0.532424766703527,-0.5728613938732258,-0.6312937717425443,-0.6860787096342239,-0.7189578322747617,-0.7288838471975735,-0.7239062548650597,-0.7126424482144798,-0.6995258680378049,-0.6784960810085988,-0.640297322478359,-0.5624384102878431,-0.3774598561012072,0.03124935569952656,0.4770586740664378,0.6933676765638006,0.7777148868830114,0.806694293319288,0.8026534757585069,0.7719389550537671,0.7204986778926811,0.6514159998027105,0.5645344901837014,0.45962600197665515,0.3451925538464611,0.2371849655479797,0.15685372519841334,0.11377334726590796,0.08709013103236457,0.04318019764680683,-0.029284241590599214,-0.12387511274525671,-0.23468257164109838,-0.3566143973973286,-0.4663205260866867,-0.5419747311740784,-0.5806552267333501,-0.5870164939816477,-0.5668173346958327,-0.5268410317967541,-0.47404201772066956,-0.41597691137258663,-0.35829854881082335,-0.3075860273454657,-0.2730108022395868,-0.2686371427467289,-0.31055419513430305,-0.4012993448317697,-0.5369062773882027,-0.6805483884606986,-0.7693433242390472,-0.7578096137999188,-0.46716523829794865,0.43159840885697814,0.811893895123437,0.8934184955727393,0.9162760481814901,0.9124397953576655,0.8740971698499403,0.7900354813954298,0.699250763457138,0.6553419652273877,0.6585391312307359,0.6705541182479026,0.6141678770601965,0.38755728961714503,0.12416682136458154,-0.05648461750861764,-0.17685390082938424,-0.2518651547975989,-0.3075184688163778,-0.3669970061466227,-0.43325230054745256,-0.4879894483350552,-0.5142908674739923,-0.5034855920492206,-0.45491765713043586,-0.38791633837028566,-0.3413444077707582,-0.3345238201037935,-0.3532238451964627,-0.3746602422292034,-0.3802409182546181,-0.364395371573019,-0.32049880127409613,-0.23060528674574043,-0.05347169552333048,0.23507923904397873,0.49793111532688267,0.6284783034324167,0.6825280103792489,0.7061098060247265,0.7144233904070609,0.7065022466859096,0.6874004052874936,0.67077243685961,0.6663543955604335,0.6707785618228744,0.6744124479575155,0.6700843651621021,0.6542264407860283,0.6231671863262581,0.5772808554972639,0.5245838493317126,0.48011002443132844,0.4645411646523377,0.4744145781357376,0.44964790567916235,0.3053651489030084,0.1274076645133769,0.008100131313663292,-0.04435147707608164,-0.035732930777415316,0.020881251863622066,0.09886861791808753,0.17219550702592415,0.2235385149815332,0.23476732890035934,0.19068403955108176,0.09599610870818272,-0.010338320022501042,-0.0682123595430109,-0.01694111598689281,0.17497422074244617,0.4386424188720837,0.6301300583058179,0.7214795344032321,0.7459403698003104,0.7233442632886294,0.6402251745453675,0.46293027846002754,0.19921018402997004,-0.024713893079253802,-0.16856835960341734,-0.32187843862479054,-0.5029209834759569,-0.6380357993141176,-0.6960703857825496,-0.6977475837838132,-0.6648311950746378,-0.6168387815855616,-0.5654307913696337,-0.513683212956472,-0.4474729190371836,-0.33912158491767347,-0.17212610602271666,0.025023047033180153,0.18838975919849674,0.27070580855715576,0.2693854012985537,0.2164703285263917,0.1597776198963478,0.13375832583587968,0.14467611404972364,0.17493897077388984,0.19824259143963052,0.2000603671459232,0.1814381698630615,0.14703932730828395,0.1151645827566253,0.13262462945537434,0.2839438857104305,0.5590488619777956,0.743516270616207,0.8228827322163141,0.8577631306489484,0.8645637385372126,0.8356792109483905,0.7236848539953983,0.409549233207996,-0.061365524372424915,-0.4183586018125823,-0.6208949942273966,-0.7301922942472729,-0.7897848490602615,-0.8191164375119454,-0.8221308132918245,-0.7910883991170831,-0.6996022979648046,-0.4919382553501566,-0.15678142427559694,0.10878549099230703,0.1484597537040433,-0.031129974184061448,-0.3080001499130436,-0.5189788421143159,-0.6512121694064172,-0.7450008530052571,-0.8080689924849601,-0.8267347575844213,-0.8123648143106189,-0.7812936668841661,-0.7378508329885348,-0.6811269843492138,-0.60728345266665,-0.49941166952313204,-0.33632030133091456,-0.11573054947602701,0.12734907488434885,0.35245425719059087,0.5384682699915238,0.6830537236877304,0.7946158028672331,0.8717176200413145,0.914706483615532,0.9320290205047254,0.9334225503907406,0.9204445795169891,0.8899900236393085,0.8282610944813406,0.7056439404878484,0.46330559223702683,-0.01029877858696801,-0.5685632299197214,-0.7673263558113872,-0.7948127824869997,-0.80463370454564,-0.8182525730847712,-0.812100279384592,-0.7736892815952313,-0.7216918141466502,-0.6801327716457536,-0.6589293208802909,-0.6566019056331401,-0.6679237860049347,-0.6576802906787144,-0.568426859710209,-0.4124562214520431,-0.26102072459675063,-0.09897446154539637,0.14577337390557793,0.48225979141641095,0.772497937936496,0.8413759155489295,0.6634936818116226,0.3129771039662604,-0.04811028049938892,-0.3002170280995573,-0.4002061366631888,-0.294449668805877,0.12647942388352965,0.6263108486662193,0.8405986144655048,0.9033779939339854,0.9039220180890195,0.8413737481498549,0.5736180468154277,-0.28776743264095983,-0.8235935807096427,-0.9097710156155832,-0.7898023204910879,-0.4911879596554864,-0.17877728918801733,0.06996927750827674,0.27842982403860594,0.4550278381172026,0.5811123817510586,0.6400907310785235,0.6103242730381865,0.44460528719730524,0.13091952156082468,-0.16621551544806862,-0.29555460637578057,-0.2480389754615018,-0.008862335241989216,0.366461903262743,0.6558043768294027,0.7898350399523002,0.8284662394768139,0.7871372279289947,0.4445366333853784,-0.6083502748146278,-0.867382698603766,-0.9148396058201196,-0.9343846587355557,-0.9466178613379045,-0.9548807438190361,-0.9603817957050865,-0.9648974617615196,-0.9600651214052104,-0.8633391550729375,-0.4233327964563267,0.11633863902868732,0.3920676320669239,0.5273012222527959,0.6147628610277627,0.6909025829648495,0.7699325437257086,0.849630182883304,0.9113845545283721,0.9463811893142011,0.9600098824698194,0.9593355248281746,0.9439992976453359,0.9016379759224495,0.7969084501827974,0.5419796165549462,0.0738028479492535,-0.34303796987017654,-0.5566547951378016,-0.6668681644999682,-0.7348425035879133,-0.7814004117791993,-0.8177082087052802,-0.8505125867468242,-0.8812020281159005,-0.9099733109551604,-0.9335110470140525,-0.9499737373779484,-0.9593588507195273,-0.9628489541500261,-0.9570553443177189,-0.9113080707110698,-0.4036871228444175,0.8090287890180059,0.9451201077623819,0.9713280201832286,0.9796577837000512,0.9809946454473228,0.9749532274075386,0.9557027607283171,0.9175960712108384,0.8639409772406704,0.8008735464553924,0.7224848233635608,0.6268074161518726,0.5246939824842347,0.42919440428921046,0.3580279301294544,0.3345533282169333,0.36542418146922434,0.4128859811926967,0.43570338111677903,0.4271229705036347,0.38562152357063384,0.32158226855370736,0.25613544128367316,0.2051541166794035,0.16280337900125735,0.10928323071004832,0.026559334196418545,-0.08310030719943413,-0.1996759486087236,-0.2968493114179498,-0.35187878610658846,-0.3792086825800514,-0.41351338025126433,-0.4773995551701221,-0.5731083862231591,-0.6854694010795983,-0.7989157876150442,-0.8963211050952841,-0.9451820598897741,-0.9413375376721869,-0.9230284565743176,-0.9116971567202443,-0.9030000700816655,-0.8805703903720605,-0.813682177046583,-0.6628894625451391,-0.527337128068255,-0.576487715853104,-0.7010394940653819,-0.7839614929683005,-0.8262784044490425,-0.8472003269729894,-0.8579340371988418,-0.8622819606788851,-0.8559785883430947,-0.8263854998700959,-0.7652471251145675,-0.7214071810787005,-0.7759341285076811,-0.8742093308565457,-0.9178797254134801,-0.8924757652752744,-0.7145934761659588,0.03495166006908052,0.746169356606282,0.9155607242551965,0.9612284773878894,0.9774110329311477,0.9836621543189881,0.9851796724977726,0.9813659801746988,0.9524284325102382,0.5421403191209063,-0.6668526439265774,-0.8273680832655698,-0.8446158402858506,-0.8436062187981218,-0.8566169586101043,-0.8770120040020967,-0.8844954214327415,-0.8844063084185968,-0.8860671428296027,-0.8914345484052361,-0.8988621780306822,-0.9051382522646374,-0.9031783342350469,-0.8730821178281952,-0.7868845914470662,-0.6436149231920563,-0.47990742219027854,-0.3273308437435653,-0.1963371853160158,-0.07122780633346672,0.07230359248724097,0.2099789848811218,0.2874266958647278,0.3250088556903928,0.3546487652371106,0.3872357322277024,0.4283499460452604,0.475247317843022,0.523982315847677,0.571466279085532,0.6129508252192543,0.6420751926234155,0.6498786104712886,0.6350638324645898,0.6108988674399635,0.5968258274633754,0.5957539988278046,0.6021638182987079,0.6079652442612486,0.6084048307449216,0.5981401577196763,0.5800883375376591,0.559535620671565,0.537264628048638,0.4995886902788842,0.4347562690151303,0.351851153738938,0.3046591332860849,0.3506792531418424,0.49843516887034334,0.6712112531933434,0.7988732221458661,0.8649685795036317,0.8838618099849838,0.8606188648727419,0.7873499399533915,0.6558847534767621,0.4927541613242196,0.34774189085068785,0.25764545334061734,0.2246446555523394,0.21929363828221626,0.20236556330720665,0.14884761658080115,0.04771771163915904,-0.08417308880714326,-0.21525044414938094,-0.3089600214437232,-0.3557738176832804,-0.3912800197774108,-0.4520550387406592,-0.5530167690923563,-0.6799719175500121,-0.7938654046693455,-0.8690641572827156,-0.9098244157860504,-0.931128057388639,-0.9432536422133816,-0.9509606362696398,-0.9542849557442623,-0.9504889309298554,-0.9306144247453096,-0.8508349579764307,-0.3729030860294582,0.6333256814515631,0.8686206827614139,0.9366512097384555,0.9723142560226846,0.9887805513047151,0.9943931106971831,0.9945467979041395,0.9909480207458295,0.9826390609325699,0.9649344352923662,0.9236277958173245,0.8172046968632932,0.5595619834882634,0.17845532906080533,-0.07928856276781615,-0.11159862970650807,0.10449481450890263,0.5000019869832252,0.7742705613142502,0.8796799574382796,0.9097205947650201,0.8851393838076853,0.511578704329014,-0.8297503459696991,-0.9531449037398205,-0.970387520938009,-0.9753207165358221,-0.9770440090769905,-0.9776016487142176,-0.9776034332200215,-0.9763525248028767,-0.971245150828426,-0.9560022750080427,-0.9123114167704446,-0.7636609700506614,-0.255352467568805,0.3928038764320886,0.6483502919522798,0.719668513640088,0.7293687081557009,0.7079656213891315,0.6547386758458986,0.5650774656400689,0.43938837688162014,0.2875095073931919,0.12794025038264148,-0.014234592179791086,-0.1291578145791562,-0.2232546758256988,-0.29909895917702084,-0.35570892303787777,-0.38472307667260697,-0.38141624772654575,-0.3375619042742938,-0.25454642239389197,-0.1616892934083108,-0.10977539108024406,-0.1436182324756363,-0.2745687646394737,-0.45565867752523415,-0.6175540560355921,-0.7299453915558815,-0.7901493722411269,-0.7967040973263296,-0.7511343253522269,-0.663318325615211,-0.5411263560487838,-0.39247800852731796,-0.23977040650622383,-0.1138551228815154,-0.0331176628856699,0.010095133521699226,0.03926526481695293,0.08565402252334522,0.16652481555645063,0.2663306479311055,0.35075891095579365,0.39194493458172447,0.3669771893607935,0.26377050590281786,0.09135234158281741,-0.12611258695019512,-0.363811792546618,-0.5877714653817789,-0.7308581663501277,-0.763439359886491,-0.7351642304157986,-0.6958436864682819,-0.6781074019818741,-0.7139941405330625,-0.8027977049815989,-0.8085817947029883,-0.5511956804929021,-0.16447889313567773,0.17133295579716953,0.3998716743813141,0.5388301598732403,0.6307583470753328,0.7222835664920956,0.8353450788715118,0.9393825513219515,0.9513748974446007,0.8691275336909786,0.7652950683715293,0.716387986946458,0.8194954739271934,0.973367892353136,0.9944876472791863,0.9832902347356609,0.9766715850671345,0.9741505957219623,0.9728348622496,0.9710854734025586,0.9673223675837929,0.9603574097663441,0.9499720228193682,0.9314337118713186,0.8557769201095617,0.508112805517611,-0.06913998513060485,-0.3769646098109043,-0.505337194751661,-0.5725736401125524,-0.616416350355601,-0.6455044971313287,-0.6598990103132343,-0.6565244968646516,-0.6349917016597274,-0.6044341509986384,-0.5808973465030393,-0.5794186396426773,-0.5948855415106705,-0.602354292358716,-0.5791462239628469,-0.5277229171297392,-0.4754478440511134,-0.4389362863815853,-0.42127514838121627,-0.420360039082918,-0.4321711596381899,-0.4433183147581065,-0.4450888767214989,-0.44435860744108147,-0.4540093565583485,-0.47132005511164055,-0.4652221876351569,-0.38027227076100384,-0.1957793007022202,0.01702665352840469,0.19732673656605626,0.33613279192751183,0.44674296888529236,0.5456898313631208,0.6390946237225102,0.7215071939767791,0.7790474840266985,0.8087013859018783,0.8156396267618212,0.7838236955227299,0.4165295960607556,-0.21551215798302845,-0.47443609652492574,-0.5905495118127004,-0.6694746378821382,-0.7399087484697404,-0.8034449023829762,-0.8533173621146429,-0.8851211909580065,-0.9000582773675825,-0.9011880507398844,-0.8927395265236968,-0.8784624500525614,-0.862400106115515,-0.8219410282724909,-0.6624853653413593,-0.41532697563838844,-0.23458752271035685,-0.1331643689215423,-0.08558118550258931,-0.06898532285492348,-0.06827801977636738,-0.07707300928695242,-0.10535323704582167,-0.1624220275195713,-0.24459126923029642,-0.31997536541864896,-0.3595073108500539,-0.34330715134140893,-0.26093330556004984,-0.10698927522117285
