-0.005867496940741334,-0.005482005400421933,-0.004784842702249805,-0.0037021894759323064,-0.0020043935557290155,0.00011170074250807567,0.00262148721505826,0.004942628993576113,0.006107301212005916,0.005582377638139104,0.003761552976723848,0.0012763727078943712,-0.0011349902149905245,-0.0031116522266366976,-0.0045141792691486765,-0.005342573366874523,-0.005777276808548321,-0.006056140875643142,-0.00643342874544676,-0.0069911568796364,-0.007901571993822612,-0.009107253455265061,-0.010517981131770732,-0.012018928940469418,-0.013511678139522467,-0.014659949089964886,-0.014651745419449103,-0.012732496449238035,-0.009058041553910661,-0.004366545083346528,0.0005053927143863626,0.00468836986498446,0.007493422937834388,0.008272609688988974,0.007083330507707941,0.004983638742675773,0.0031874190197636854,0.0023098140328574714,0.002490256321591557,0.003515495494299919,0.004909821396731191,0.0063451570482621214,0.007870715868508156,0.009609519513463047,0.011044853140645919,0.01179123027060752,0.011783026600091737,0.011118670992677515,0.010347692972908867,0.010897222497452876,0.014309220666716995,0.020600089760862642,0.02871178908338071,0.0366430430806426,0.041588803740668534,0.04157239639963697,0.03660203484980398,0.02830989020202974,0.019074530940616605,0.01124170074606351,0.006410771229777935,0.0047621867048420275,0.005287111290882868,0.0061647167838760975,0.005820233474395311,0.0034580824528648137,-0.0007741061436093686,-0.00558042920313073,-0.009427125753198496,-0.011067510656314741,-0.010001261228419704,-0.0066794831913485975,-0.002119220144686242,0.002465650370914358,0.005902254996942692,0.0075836481308975525,0.007395004195995743,0.0050246484917754325,0.00042337357044795336,-0.005654247055162326,-0.011740064873374596,-0.01674323604440056,-0.020311068527373508,-0.022541986125002227,-0.023444197568672654,-0.022861863483805814,-0.02072936462801574,-0.017317371519621774,-0.013511678139522467,-0.01056719303312513,-0.009804413623002111,-0.012223980216402792,-0.017735667620264003,-0.024953349047887124,-0.03177734032554521,-0.03678871010621681,-0.03993824142767737,-0.042160965476530615,-0.04472816271312433,-0.04824678329474288,-0.05218369491613351,-0.05536607128487812,-0.05642409679877677,-0.05455405466904994,-0.049723125152764364,-0.042497245115495616,-0.03334390737662986,-0.02276343968109702,-0.01142019257544116,-0.0003230007760350652,0.00967513369497886,0.01757358313191792,0.022560346961912323,0.025070133687506012,0.026759730491976656,0.029974886116693338,0.03643799686557937,0.04609986601989083,0.05768096390093275,0.06924571011051475,0.07858772214950323,0.08398458347049423,0.08510824847025945,0.08321361051159573,0.08030188947856001,0.07780849997225758,0.0754463894376883,0.07144379784346988,0.06436556363200463,0.05422798280518077,0.04200710490218092,0.02907267467302291,0.016654964347215927,0.005508559786107508,-0.003923641513766052,-0.010887065331058566,-0.014832185683835129,-0.016062473095954773,-0.015250481784477358,-0.013560890040876865,-0.012601268086206407,-0.013716729415455844,-0.016997494160818184,-0.021377312894398395,-0.025642310605978543,-0.029005096873888265,-0.031572294110481985,-0.03349974169033869,-0.03500069455990752,-0.036296596153542984,-0.03742845976295383,-0.03825685335459266,-0.03887199706065249,-0.039101649226392914,-0.03873256502710508,-0.037198807597213404,-0.03422151286962309,-0.030292794797007944,-0.026126220888136587,-0.022205706486037223,-0.018547653870871268,-0.014963419107736907,-0.01117413306866917,-0.0074422626014716145,-0.004374747235601266,-0.0023078640795880507,-0.0011924037625126453,-0.0007412985467644467,-0.00011795289088469123,0.001292776506316832,0.0036221209431764384,0.006984906704999144,0.011200692515224896,0.01534266047341905,0.017909862770882926,0.017532569840209154,0.014169783572299435,0.008600685657438191,0.002121170097955663,-0.0037431997311189818,-0.008180436060917434,-0.011034701035121759,-0.012182971985564178,-0.01144479852611836,-0.00855772393072105,-0.0035299493394529593,0.002892150142072373,0.00915021012111205,0.013505427964885212,0.014530669161941635,0.011881450402800534,0.006295945146907724,-0.00047883716470065326,-0.006712292812541581,-0.01117413306866917,-0.013117987989557435,-0.012445433772497582,-0.0097387994414863,-0.005916708842095731,-0.0016435089782608442,0.0022688047898448264,0.005172285208012657,0.007042322276869326,0.008395634381504816,0.009904790921589435,0.01181583622128472,0.013800699373011599,0.01544928794664363,0.016523735984184298,0.016983045376535298,0.017220901212791503,0.017967273281882953,0.01943541653025881,0.021313657269631258,0.0227161863364913,0.02247832543936494,0.019845514021255405,0.015080198686485646,0.00915021012111205,0.0032038233242731614,-0.001766537719472809,-0.005358975647035938,-0.007434058930955832,-0.007958982504822642,-0.0072700209467312215,-0.006195572909190553,-0.005227747284004311,-0.004596198767347996,-0.004300929383569669,-0.003907237715343591,-0.002947613736325073,-0.0013072308575568872,0.0006858349525117467,0.002490256321591557,0.0034826878974549974,0.0032038233242731614,0.001694670326797648,-0.0006510774023974038,-0.0029148061394801508,-0.00438294888176899,-0.004538785219825875,-0.0034889400964403143,-0.0021274222969409804,-0.0015450861877260784,-0.0024965080144898587,-0.004875063846616848,-0.008188634670563065,-0.01188770057743779,-0.015430927109733537,-0.018293395754453646,-0.0196877211507979,-0.019261221379639887,-0.01712051885333403,-0.014003797153066449,-0.010780442918704138,-0.007958982504822642,-0.005924907451741364,-0.004522380915316399,-0.0037431997311189818,-0.00362837263607474,-0.003907237715343591,-0.003964651262865712,-0.003300296161538506,-0.002070008749418859,-0.0005444524596079001,0.0010795266207378246,0.002531266070691217,0.0036549285400213605,0.004229062496981523,0.004647360115884801,0.005385535093591664,0.006468186801648117,0.007698474213767763,0.008756519971147018,0.009453685199754222,0.009863777629880669,0.009962201432589466,0.00980636711888064,0.009609519513463047,0.009461883809399853,0.009158413791627835,0.008576079706760994,0.0077804906754449935,0.006984906704999144,0.006542004653679714,0.006402572620132303,0.006427173509939352,0.006353360718777906,0.006181119064037513,0.00554136940730049,0.004245466295403984,0.0023180161851122094,0.0003003448292359887,-0.0016271051798383831,-0.003333103758383428,-0.004309131535824407,-0.0035381519977947125,-0.0005608562580303611,0.003884582224022828,0.00882213415266283,0.013283979469660572,0.016720578528731742,0.018713650411844557,0.019328789057034227,0.01936159867822721,0.019648666415837814,0.020559081530024028,0.022043627058561294,0.02356918587880733,0.02398748197944956,0.022322491125656114,0.018172319496946178,0.012143912189733938,0.005451149275107477,-0.0008151158927090285,-0.005957717072934346,-0.009976655277742507,-0.01304417013752584,-0.01500442733857552,-0.015627774715151126,-0.01507824519060712,-0.01417603374693669,-0.014118623235936661,-0.01577540535834417,-0.019129993016608258,-0.022861863483805814,-0.025010764619757306,-0.024330006732181667,-0.021073842876626375,-0.016144494618502155,-0.010517981131770732,-0.005285157795004341,-0.0016763165751057661,-0.0002081739846430325,-0.00040501986936477294,-0.0014220574465141139,-0.0026933546077334207,-0.004481371672303755,-0.006761504713895979,-0.009230283208651055,-0.011231548640539352,-0.011977920709630802,-0.01145299713576399,-0.010714828737188323,-0.011288959151539381,-0.013724928025101476,-0.017382985701137586,-0.020745766908177157,-0.022090880403167014,-0.01981894951382953,-0.01315899622039605,-0.0031690652680718035,0.006960300754321946,0.013562843536755395,0.014809533229036454,0.01132372226861089,0.005738217012718082,0.0012517672633041872,2.1479684175825456e-05,0.002465650370914358,0.007329384953609779,0.012652428422569181,0.016983045376535298,0.01974709021854661,0.02095277167998906,0.020805135975925863,0.01941901425009739,0.016974841706019515,0.01407136483046079,0.011274510367256494,0.009010778087564638,0.0073868005254799605,0.006328754768100707,0.005508559786107508,0.004794994301686948,0.004081428311179375,0.003367861308497771,0.002506660120014018,0.001711074125220109,0.0011369401682599456,0.0010795266207378246,0.001694670326797648,0.002859342545227451,0.0041962549001366015,0.004983638742675773,0.004647360115884801,0.002908553940494834,1.327776978198453e-05,-0.0035299493394529593,-0.0070485724515065825,-0.010198108833837297,-0.012519246563659027,-0.01370852574494006,-0.013979186141519098,-0.01387256372916467,-0.014028398042873496,-0.014881397585189526,-0.016718630093723364,-0.01921200947828549,-0.02150034264778439,-0.02272242638938825,-0.02232053762977759,-0.02042589461024372,-0.01767004837787804,-0.014897804926221093,-0.01257666213552921,-0.01087066305089715,-0.009648579309293286,-0.008590533551914033,-0.007663716157566406,-0.0070403687809908,-0.006474436976285374,-0.005342573366874523,-0.0029968251315924555,0.0008170653398914342,0.0052296957190126865,0.00832181652947322,0.008379232101343401,0.004983638742675773,-0.0007823077897770915,-0.007220809045376825,-0.01230599667808002,-0.014118623235936661,-0.012223980216402792,-0.007688322108243605,-0.00208641254784132,0.0038927838701905515,0.01014264169697549,0.01677799410060192,0.024192528194512786,0.03214839320332202,0.039882804656036476,0.04658377630204887,0.05096362033997984,0.051849424442618704,0.04879009300987054,0.042253159348082756,0.03341149023663465,0.02373321880216179,0.014858745130390856,0.00791172409934677,0.0036303225893441608,0.0019407278092215773,0.002104766299533202,0.002957765335762217,0.0035565052433995793,0.003302246114807927,0.0023098140328574714,0.0010631228223153637,-0.00015076053833831465,-0.00131543250372461,-0.002168431539953625,-0.0023488738286877105,-0.0019141724113619725,-0.0011759999640901845,-0.0005608562580303611,-0.00022457778306549344,-0.00014255863912708417,-0.00019177013561187003,-0.00039681802076224404,-0.0009135386832437941,-0.0014056536480916528,-0.001979787605051816,-0.003021431082269655,-0.004391151034023727,-0.005637839714130759,-0.00638421684409236,-0.006605665339317,-0.006359610893415162,-0.005842890990064135,-0.005514815021614916,-0.005834687319548351,-0.0070075591597978165,-0.008672550013591261,-0.010444163279739136,-0.011953314758953603,-0.013224610401911864,-0.014249851598968286,-0.014848593024866694,-0.01507824519060712,-0.014988025058414107,-0.014791177452996513,-0.014405690973547264,-0.013856161449003255,-0.013167199890911835,-0.012223980216402792,-0.01109211660699194,-0.010198108833837297,-0.009927443376388108,-0.010222709723644344,-0.010682019115995341,-0.01117413306866917,-0.011666247021342998,-0.012240382496564207,-0.013175403561427618,-0.014471305155063079,-0.015553956863119531,-0.015644176995312543,-0.014258050208613917,-0.011403790295279744,-0.007745732619243635,-0.004136890893258045,-0.0015778937845710003,-0.0007905099420318294,-0.0013236346559793483,-0.00186496101609459,-0.001372846051246731,0.0007596522984563285,0.00438489883503841,0.008649897558792589,0.012709843994439364,0.015892184937092907,0.018106705315430363,0.019779899839739594,0.021444885632662888,0.023503566636421364,0.025939540570853608,0.028047433475966485,0.028925038968959715,0.028154055888320914,0.025898527279144844,0.022978643062554552,0.020148984039027425,0.017836044918851327,0.01586758404728586,0.013242971238821956,0.009256837594336629,0.003925591467035473,-0.0020043935557290155,-0.0077703385699208335,-0.012543852514336228,-0.015734397127505555,-0.017079510622495415,-0.016538184768467187,-0.013888966009326086,-0.009123655735426476,-0.0027015562539011435,0.0040732261589246374,0.009625921793624464,0.012898487929341172,0.014145177621622235,0.014177987242815217,0.01404675887978359,0.014218995473653831,0.014530669161941635,0.01467830486600483,0.014875152471422421,0.015088397296131277,0.015268842621387453,0.015490296177482243,0.015777358854222698,0.01605622798218767,0.015801964804899895,0.013997546978429193,0.009847375349719254,0.003540101444977118,-0.0036529780806649234,-0.009911041096226692,-0.013913571960003285,-0.015357109257701939,-0.0146763513701263,-0.01265868365807659,-0.01032113352635314,-0.008434694177335056,-0.00726182233708559,-0.006564657108478387,-0.00596592074345013,-0.005211339942972745,-0.004046670254978017,-0.0022258450874757456,0.00020192183626641696,0.0027527176024379476,0.004991840388843496,0.006796262770097336,0.007755884724767794,0.007116135068030772,0.003983004508470579,-0.0014138552942593759,-0.00805740630753144,-0.014889601255705308,-0.02122968225120535,-0.026446098246940178,-0.02994831148752716,-0.031383650175580174,-0.03106377281677659,-0.02921834675946727,-0.026241052031876953,-0.022804447911935633,-0.019630305578927722,-0.017194341766235778,-0.015890236502084536,-0.01552935091244233,-0.015471935340572151,-0.015029033289252718,-0.013503479529876836,-0.010509777461254949,-0.006211975189351968,-0.0014466633971913128,0.0027117078533382875,0.0054265433244302785,0.006574809214002545,0.006779860489935921,0.006911088852967548,0.007526232559027371,0.008699109460146988,0.009970405103105248,0.01097103528861432,0.011594382665189928,0.012152115860249722,0.013005110341695601,0.014087767110622205,0.01454707144210305,0.013702275570302805,0.011766624319930322,0.009560307612108649,0.008223397787634576,0.008297215639666173,0.009494693430592836,0.011110472383031884,0.011996276485670745,0.011290912647417908,0.008895952004694428,0.005352725472398682,0.0017356800758973078,-0.0011513940134129854,-0.0027917773982681863,-0.0032182766633391856,-0.002881998542635229,-0.002398085223955093,-0.0027179600523236044,-0.005162128041618346,-0.010239117064675911,-0.017325570129267404,-0.024805713343823928,-0.03094895179477653,-0.03437735224420207,-0.034237915149784505,-0.030538854303779936,-0.024018333043893864,-0.01569338889666694,-0.00643342874544676,0.002670698610325643,0.01041330715442468,0.01599881241031749,0.019238573985711365,0.02096097535050484,0.02252753734071934,0.024947108994990173,0.027990017904096304,0.030360372596142587,0.03006510624888635,0.02564426410185707,0.017532569840209154,0.0076246563617361676,-0.0016024997352481996,-0.00772933033908222,-0.00949273993471431,-0.0075078767829874285,-0.003931843666020791,-0.0011842021163449225,-0.0010939809719778797,-0.0037596035295414426,-0.008155830110240235,-0.013085178368364453,-0.017415790261460416,-0.020384881318534952,-0.021483940367622974,-0.020770372858854354,-0.01883472160848187,-0.01626752437188815,-0.013150792549880268,-0.00869715596426846,-0.0022258450874757456,0.006238529575037542,0.016179257735573663,0.026029760703046623,0.033608332781182096,0.03724178450654101,0.03694651815928477,0.03402662888182433,0.03001589434753195,0.02591493462017641,0.021830377172982286,0.01752436616969337,0.013029721353242952,0.008658096168438222,0.005270703949851302,0.003736947532133665,0.003941995265457934,0.004950831145830851,0.005918657277104107,0.006500991361970947,0.006755254539258722,0.006984906704999144,0.007239164821416767,0.007427808756318575,0.007230966211771135,0.006181119064037513,0.004393100481206133,0.0022934102344350105,0.0005299986144548602,-0.0002819911787615098,-1.1327978460408408e-05,0.0007596522984563285,0.001292776506316832,0.0009811038302030587,-0.000634673603974943,-0.003226478815593924,-0.0060233312544501596,-0.00858232988139825,-0.010936277232412963,-0.013355843825813642,-0.016144494618502155,-0.019277623659801305,-0.022058075842844183,-0.023969121142539466,-0.02487953119585553,-0.024928743097209924,-0.02416596874795706,-0.02249277422364783,-0.019810750904183896,-0.01630032893221098,-0.012388018200627402,-0.008631541782752647,-0.005153929431972714,-0.001758336073305086,0.0016700648822074642,0.005196886097819704,0.008412041722536383,0.010774192744066881,0.011799433941123304,0.011397535059772337,0.009986807383266665,0.008075762083571381,0.005828437144911094,0.0031136016738191035,-0.00019997203482310051,-0.004030266456555556,-0.00817223239040165,-0.012076344512339599,-0.015471935340572151,-0.01844923006816247,-0.021000025024594776,-0.022820850192097047,-0.023559023651542867,-0.023140727550900634,-0.021795614055910777,-0.01974513166179793,-0.017555222295007826,-0.015266889125508927,-0.012256789837595775,-0.007401254370633001,-0.0002655873297303473,0.008526867805406596,0.017220901212791503,0.02417612591435137,0.02875279731421932,0.031123152006265604,0.031680880140455246,0.030532614250882977,0.027817776249355913,0.024077702111642573,0.019894725922609803,0.015596918589836674,0.011577980385028514,0.008600685657438191,0.007526232559027371,0.008879549724533014,0.012504797779376138,0.017565379461402138,0.022954042172747505,0.027842382200033114,0.031164160237104218,0.03163987190961663,0.02858055565947893,0.022486529109880724,0.01465369891532763,0.006550203263325347,-0.00047063526548942283,-0.00527695918535871,-0.0074258603213102,-0.007466868552148813,-0.006613869009832784,-0.005785475418193953,-0.005227747284004311,-0.004784842702249805,-0.00421891089754438,-0.003333103758383428,-0.002299662433420328,-0.0015204802370488795,-0.0012662211084572272,-0.0015450861877260784,-0.002143826095363441,-0.0027917773982681863,-0.003283892363116045,-0.003989256707455896,-0.005178535382649913,-0.007220809045376825,-0.010411358719416303,-0.01437288135235428,-0.018375417277001024,-0.02139372023542996,-0.022943879945483043,-0.023148931221416418,-0.022287728008584605,-0.02050791107192095,-0.017620841537393794,-0.013610101942231265,-0.009033435603233463,-0.004940679040306691,-0.002332470030265249,-0.0018895664606847734,-0.0037596035295414426,-0.007188004485053993,-0.011059306985798958,-0.014061207664066478,-0.015619571044635345,-0.01566878294598974,-0.014577927567417506,-0.013035966467010055,-0.01196972209998517,-0.011772874494567579,-0.01247003466230463,-0.01310158570939602,-0.012683284547883637,-0.011018298754960344,-0.008729965585461442,-0.006507246597478355,-0.004448564075458833,-0.002398085223955093,-0.00039681802076224404,0.0011451423205146836,0.00172747792364257,0.001366593852261414,0.000562806211299782,1.327776978198453e-05,0.00042337357044795336,0.002104766299533202,0.004753985058674304,0.007690270543251981,0.01022466321952287,0.011840442171961918,0.01223413232192695,0.011397535059772337,0.009995011053782447,0.008469452233536415,0.006418974900293719,0.0030971978753966426,-0.0016353073320931211,-0.006728695092702995,-0.010928078622767332,-0.01324101774294343,-0.013634707892908464,-0.012535648843820444,-0.010673815445479557,-0.008533117980043851,-0.005769073138032537,-0.001348240100569532,0.005139475586819674,0.013234767568306174,0.021854983123659487,0.030220940562595174,0.03797995796598683,0.044672725941483436,0.049946562569958594,0.05317810529222623,0.053014082490612076,0.04778125409297554,0.03663484447099697,0.020870755218311828,0.003941995265457934,-0.010575396703640914,-0.02053251702259815,-0.02586376416207334,-0.028422762789021422,-0.030300993406653574,-0.03288459798427887,-0.03603413436660957,-0.03830607031681721,-0.03829786158543128,-0.03528776229751813,-0.02896408864304965,-0.01959750101860489,-0.0077047243884050196,0.006755254539258722,0.0246682398670252,0.04641973831782426,0.07027913979547651,0.09222752633865439,0.1074995623691075,0.11254373164923179,0.10652352295166519,0.0917354073251104,0.07222302002071554,0.05184122583297308,0.033222841240862694,0.01737673552650033,0.004581744922194957,-0.004842256249771926,-0.011051103315283176,-0.01484038935435091,-0.017235349997074392,-0.01913819162625389,-0.02106564426698074,-0.02298489323719181,-0.02461706940892212,-0.02568331883681716,-0.026528119769487556,-0.027979855676831842,-0.030325599357330774,-0.03309785293072802,-0.03575527029951475,-0.03803539979849787,-0.03961836912974394,-0.04019250460496515,-0.039856224966000144,-0.03868335312575068,-0.03702656594247302,-0.035328770528356736,-0.033991860703882666,-0.03266314948905422,-0.030727498238681743,-0.02785682592344585,-0.0243874172431817,-0.02109025021765794,-0.01840822183732386,-0.016308532602726765,-0.014553321616740306,-0.012896534433462645,-0.011288959151539381,-0.010001261228419704,-0.009025231932717679,-0.007852360092468215,-0.005867496940741334,-0.0026277389079565616,0.0016126513346853433,0.005689005111363684,0.008330020199989003,0.00892876162588741,0.007649262312413366,0.005483953835430309,0.0034252748560198915,0.0020391511058433583,0.0013173824569940311,0.0006940365986794696,-0.0003147988768238347,-0.0017173263242054259,-0.0033084978077062284,-0.004957082838729152,-0.006540051157801187,-0.007762139960275202,-0.008516715699882436,-0.008877596228654486,-0.009377913851844099,-0.010206307443482929,-0.011149527117991971,-0.011977920709630802,-0.012445433772497582,-0.012051738561662398,-0.010575396703640914,-0.008155830110240235,-0.0052195436134885274,-0.002463700923731952,-0.0007412985467644467,-0.0005526546118626382,-0.0014876726402039576,-0.0027179600523236044,-0.003718593780441783,-0.004227112543712102,-0.003981055061288173,-0.002832786641280831,-0.0008151158927090285,0.001752083874319769,0.004466917827150714,0.006624021115356943,0.00763286003225195,0.007698474213767763,0.007009512655676343,0.005812029803879528,0.004565341123772496,0.003810764371991231,0.004032216915911992,0.0053199158512056985,0.007395004195995743,0.00980636711888064,0.012357162075312947,0.015244236670710256,0.018721849021490187,0.022494732780396508,0.025824714487983395,0.02814585727867528,0.029105479233345742,0.02864616984099474,0.02686635290433109,0.023921862737063596,0.020288416072574835,0.01680260005127912,0.014030351538752022,0.01179123027060752,0.009363460006691058,0.006361559328423538,0.0027117078533382875,-0.0011513940134129854,-0.0045141792691486765,-0.006843521175573206,-0.00839368594649644,-0.009312299670328284,-0.00946813398403711,-0.008647944062914062,-0.007188004485053993,-0.005334369696358739,-0.0034643341457631155,-0.0018895664606847734,-0.0005690584102850991,0.0009729016779483209,0.0037041399352887427,0.008494058184213612,0.015457486556289262,0.023659406011000344,0.0313199996116832,0.03645439914574079,0.03752885224415161,0.0338461886174383,0.02591493462017641,0.01550669845764366,0.005172285208012657,-0.002824584995113108,-0.006925542698120587,-0.006507246597478355,-0.0019059702591072345,0.0058858476559111245,0.01454707144210305,0.021297249928599694,0.02423354148622155,0.023175490667972146,0.0195338403329676,0.014940766652938236,0.00997860371275088,0.0046801682188167375,-0.0007330963945097086,-0.006203776579706335,-0.011682654362374567,-0.017063108342334,-0.021656182022363368,-0.02461706940892212,-0.024838522965016912,-0.02174640215455638,-0.01590663878224595,-0.008877596228654486,-0.002381681425532632,0.0021457755425458467,0.0038025627258235087,0.0027527176024379476,-6.0539495188674886e-05,-0.0032592864124388462,-0.005646043384646543,-0.0066794831913485975,-0.006777906994057393,-0.006564657108478387,-0.006712292812541581,-0.007753936289759419,-0.010050473129774102,-0.013536284090199668,-0.017407586590944633,-0.020565326643791133,-0.022500977894163613,-0.023362176046125276,-0.023247349963255063,-0.02174640215455638,-0.01876910742696606,-0.014692753650287719,-0.01062460354412516,-0.00800819440617704,-0.007548885013826043,-0.00886119394849307,-0.010829654820058536,-0.012338806299273003,-0.012486442003336198,-0.01076403557767257,-0.006884534467281973,-0.0008315196911314894,0.006533800983163931,0.013849911274365996,0.019779899839739594,0.02340514789458272,0.024561617454670767,0.02429095199722158,0.02388085450622498,0.02390546045690218,0.024118715403351337,0.023528172587098564,0.02137106778063129,0.017466955658693342,0.012184920420572553,0.006509195032486732,0.0018669104632769956,-0.0003312026752462957,0.0007678539446240515,0.004877013799886269,0.01038870120374748,0.014809533229036454,0.015982410130156072,0.01322656389779039,0.007452414706995774,0.00022652758450880986,-0.0070485724515065825,-0.01310158570939602,-0.017202540375881408,-0.019556487726896124,-0.021328106053914147,-0.023993727093216666,-0.028209507842572267,-0.03364737739440188,-0.03918367074894029,-0.0435142775811661,-0.045835420371857984,-0.04567958605814916,-0.043022163628492274,-0.03830607031681721,-0.03222024237686464,-0.02572432706765577,-0.01962210696928209,-0.014725563271480701,-0.01119873901934637,-0.008549520260205267,-0.005703458956516724,-0.0019059702591072345,0.002957765335762217,0.007977338280862585,0.012184920420572553,0.015154016538517242,0.017278311723791535,0.0196076581849992,0.023093474206294914,0.027301056346004885,0.03105753782474979,0.033354069603894324,0.03366574835305228,0.03177110533351841,0.028113047657482296,0.024028490210288175,0.02081333964644165,0.01897610713790781,0.01792626505104434,0.01605622798218767,0.012242335992442734,0.006542004653679714,8.709499426568273e-05,-0.005752670857871122,-0.01013248959145133,-0.01265868365807659,-0.01293754772517141,-0.010682019115995341,-0.006523648877639772,-0.001987989251219539,0.0008744788874135552,0.0008006615414689734,-0.0019059702591072345,-0.005842890990064135,-0.009279490049135301,-0.011026497364605977,-0.010731231017349739,-0.00858232988139825,-0.005358975647035938,-0.0015286823893036175,0.0028675441913951737,0.007345792294641346,0.010823404645421279,0.012422776256828758,0.012029086106863728,0.010405103483908896,0.008567876036245209,0.006927491133128963,0.004926225195153652,0.002104766299533202,-0.0016927208796152424,-0.006138157337320371,-0.0100750790804513,-0.012199374265725592,-0.012010730330823784,-0.009820815903163528,-0.006769708384411762,-0.004120487600922599,-0.0026523443525467458,-0.0024308928208000152,-0.003275690210861307,-0.004784842702249805,-0.006228377469513384,-0.0070731784021837805,-0.0071387925836995944,-0.0062857930413835654,-0.0041779011484447195,-0.0002819911787615098,0.005877649046265493,0.014276411045524013,0.02415151996367417,0.0345433538460455,0.04413140008745521,0.05063552412805001,0.05185762305226433,0.04691185227049809,0.036954716768930404,0.024578019734832184,0.012430979927344543,0.0022359966869128895,-0.0051129212011341,-0.00949273993471431,-0.011428391185086791,-0.011961518429469386,-0.012199374265725592,-0.01299495823617144,-0.014668147699610518,-0.017022100111495384,-0.019704123430959317,-0.022263122057907408,-0.02424798520963429,-0.025494674901915353,-0.026036000755943575,-0.026421492296262977,-0.02672496737490515,-0.026790581556420962,-0.026216446081199753,-0.02455145522740631,-0.021762804434717793,-0.018071942198358854,-0.013675716123747078,-0.008631541782752647,-0.0031362576712268813,0.002194987443900245,0.007075126837192157,0.011709208748060139,0.016736985869763306,0.02219126276262449,0.026981178987201298,0.029737025219566983,0.029425356592149326,0.025947739180499245,0.02032942430341345,0.014161584962653802,0.008699109460146988,0.004204456546304324,0.0008826810396682934,-0.0014466633971913128,-0.0031362576712268813,-0.004013862658133095,-0.0038580258139891935,-0.002562123714266718,-0.00010975094106475924,0.0033924667530879546,0.007542634839188787,0.011659996846705743,0.015186821098840073,0.01744234970801614,0.017860650869528524,0.016130045834219266,0.012668835763600748,0.008313617919827588,0.004565341123772496,0.002129371744123386,0.0008170653398914342,-3.593372164193119e-05,-0.0008725289341441341,-0.00178294151789527,-0.0024719025698996754,-0.0026851524554786827,-0.002455498771477214,-0.0018813648145170505,-0.0012252113593575673,-0.000634673603974943,-0.00014255863912708417,0.0003167486276584496,0.0009400940811033989,0.002088362501110741,0.0037041399352887427,0.005188687488174072,0.005926860947619891,0.005483953835430309,0.00391738982086775,0.0016126513346853433,-0.0011513940134129854,-0.004186102794612442,-0.006925542698120587,-0.008877596228654486,-0.00987823147503371,-0.010255519344837326,-0.010690222786511125,-0.01178107816508336,-0.013577297381908434,-0.015759003078182753,-0.018244183853099248,-0.020909804892401764,-0.02332116781528666,-0.02535524286836794,-0.026601937621519155,-0.026011394805266378,-0.022829053862612834,-0.017268159618267376,-0.010731231017349739,-0.005104717530618316,-0.0018813648145170505,-0.0018075474685724686,-0.004136890893258045,-0.007302830567924205,-0.009673185259970487,-0.01045236695025492,-0.009640375638777503,-0.007876966043145413,-0.0057198612366781395,-0.0036037666853975412,-0.0017747398717275471,-0.0002819911787615098,0.0008334696444009104,0.0014486128443737187,0.001678266528375187,0.0018176990680096128,0.0022277950407451667,0.0033924667530879546,0.005533165736784707,0.008124973984925779,0.010191853598329888,0.010946429337937123,0.010437913105101879,0.009429079249077023,0.008748316300631234,0.009010778087564638,0.010093429795621093,0.011044853140645919,0.010232866890038656,0.006500991361970947,-3.593372164193119e-05,-0.007762139960275202,-0.01459432984757892,-0.01952368316657329,-0.02301769779751464,-0.025511082242946917,-0.026700356363357797,-0.02610161493745939,-0.02378047720763766,-0.02004860167956995,-0.015184867602961546,-0.00874636786562286,-0.00048703906391188374,0.009100998219757652,0.01892689523655341,0.027866988150710308,0.03512568793091234,0.040465138740903316,0.044361052253195636,0.047280941530656075,0.04908535935712678,0.04958568204118654,0.04850302527225994,0.04567336118786266,0.041162303969510525,0.036183738749161753,0.03282095248125203,0.03252568107312564,0.03455155245569114,0.03638878496422498,0.03527332363497554,0.02960579685653535,0.019993149725318602,0.00870730806979262,-0.0010857788197231415,-0.00712239030353818,-0.008902202179331685,-0.007671914767212038,-0.005162128041618346,-0.0030050272838471935,-0.0022832586349978666,-0.003579161240807357,-0.007163398534376793,-0.012584860745174842,-0.018588662101709882,-0.023911705570669285,-0.027610766416673857,-0.02923474903962869,-0.028586800773246036,-0.025986788854589177,-0.022812651582451417,-0.020335674478050708,-0.018949547691352084,-0.01839181955716244,-0.018350811326323827,-0.018523047920194068,-0.01874450147628886,-0.018859327559159072,-0.018621471722902867,-0.01776026851007105,-0.01611168499730917,-0.013446063958006656,-0.009566557786745906,-0.004629006364192919,0.0003659601241432355,0.00399940830689304,0.0052953099005285005,0.004204456546304324,0.0014240073997835348,-0.001766537719472809,-0.004276323938979486,-0.00530976374568154,-0.0047438329531501455,-0.0032182766633391856,-0.0015778937845710003,-0.00039681802076224404,-6.0539495188674886e-05,-0.0005608562580303611,-0.0015286823893036175,-0.0027671714475909874,-0.0039154393615113145,-0.004809448146839989,-0.005260551844327142,-0.005293361465520125,-0.005178535382649913,-0.005235945893649944,-0.005399983877874552,-0.005465603120260518,-0.005260551844327142,-0.004391151034023727,-0.0023898835777873707,0.0005464024128773211,0.0038435724749231685,0.006566610604356913,0.007862512197992375,0.007132542409062338,0.004475119979405453,0.0008334696444009104,-0.0024390949730547533,-0.004333736980414591,-0.004629006364192919,-0.0039154393615113145,-0.0033987189520732716,-0.0040958816502454,-0.0061299587276747395,-0.008647944062914062,-0.01087066305089715,-0.012691488218399419,-0.014044805383905063,-0.014914207206382509,-0.015086448861122901,-0.014159631466775274,-0.01101009508444456,-0.004481371672303755,0.005492157505946092,0.017475159329209126,0.029146487464184353,0.038275229374113214,0.042556629365854776,0.040563567604482265,0.032689719057350256,0.021223437137438246,0.008936960235533043,-0.001733730122627887,-0.009369715242198467,-0.01392997930103485,-0.01613629094798637,-0.017251752277235806,-0.018539455261225635,-0.020237250675341913,-0.021631576071686167,-0.02155775821965457,-0.019236615428962687,-0.014864995305028111,-0.009066240163556293,-0.002758969801423264,0.0031136016738191035,0.007919922708992404,0.011200692515224896,0.01294769983069557,0.013341389980660602,0.012955903501211355,0.012291547893797133,0.011479556582319717,0.01049532867697206,0.009584913562785848,0.008961566186210242,0.008412041722536383,0.007919922708992404,0.00782970257679939,0.008469452233536415,0.009789959777849072,0.011520564813158331,0.013005110341695601,0.013628457718271206,0.013275775799144789,0.012143912189733938,0.010519934627649259,0.008633490217761023,0.0069931103755149285,0.0060580893106515175,0.006074491590812933,0.007567240789865986,0.01063476071051947,0.014342025227039827,0.01685181195263352,0.016687773968408908,0.013587449487432592,0.008510460464375027,0.0031382076244963024,-0.0011842021163449225,-0.004013862658133095,-0.005358975647035938,-0.0058921028914185325,-0.006252983420190582,-0.006695890532380165,-0.007245420056924175,-0.0077867459109524015,-0.007819550471275232,-0.0070075591597978165,-0.005285157795004341,-0.0029722191809152566,-0.00030659692700390275,0.002859342545227451,0.006755254539258722,0.011413942400803904,0.016113638493187702,0.019025319039262207,0.018352764822202355,0.013267572128629007,0.005114869636142476,-0.0036037666853975412,-0.01032113352635314,-0.013675716123747078,-0.013675716123747078,-0.01117413306866917,-0.007417656650794416,-0.0039482474644432514,-0.00208641254784132,-0.0026605465048014833,-0.005728064907193924,-0.010796845198865552,-0.016702222752691797,-0.02216469825519861,-0.026314864823038398,-0.028849257499309285,-0.029784273503302545,-0.02990730325668854,-0.03011235453262192,-0.030317400747685137,-0.02948900715604631,-0.02647890786813316,-0.02081138108969297,-0.012945746334817043,-0.0039482474644432514,0.005549573077816274,0.01558871998019104,0.026193798687271234,0.03657742889912679,0.04544370902212223,0.0509061794637589,0.051226077066043096,0.04623109438292246,0.0374632380626358,0.026202002357787017,0.012808267797148158,-0.0023734797793649094,-0.017522417734684995,-0.030538854303779936,-0.039716792932452734,-0.04419504052961189,-0.04380954898929249,-0.03835527715730146,-0.028307931645281063,-0.015234079504315944,-0.002053604950996398,0.008567876036245209,0.015416478325450648,0.018959704857746396,0.021001983581343458,0.02354457992813013,0.02730926001652067,0.03150043987606922,0.03470739183027012,0.035560391372586146,0.033608332781182096,0.029614000527051133,0.025275184963439386,0.02233889340581753,0.021321860940147045,0.021280847648438277,0.020846144206764478,0.019295984496711396,0.0164991300335071,0.013037919962888582,0.010044222955136847,0.008444846282859214,0.008412041722536383,0.009289647215529613,0.009847375349719254,0.008994375807403225,0.005803831194233896,5.075855388143601e-06,-0.007680118437727821,-0.01599685891443896,-0.023378583387156843,-0.02869342318560046,-0.031457468027611776,-0.03184295956793118,-0.030407625940748306,-0.02829972797476528,-0.02668395408319638,-0.02579814491968737,-0.02572432706765577,-0.02672496737490515,-0.02899689320337248,-0.031957780589931234,-0.03459059706891092,-0.03576346890916039,-0.03509091469210054,-0.03280258152260163,-0.029767871223141135,-0.027061241953,-0.025018963229402936,-0.023452401239188438,-0.022238516107230207,-0.02109025021765794,-0.019376047462510097,-0.016702222752691797,-0.012945746334817043,-0.008705359634784244,-0.005145725761456931,-0.0033084978077062284,-0.0033413054045511505,-0.0042927277374019465,-0.0050883152504569,-0.005178535382649913,-0.004546986865993599,-0.00362837263607474,-0.0032182766633391856,-0.003505343894862775,-0.003981055061288173,-0.0040712762056552155,-0.0035873628869750804,-0.0024390949730547533,-0.0006756833530746028,0.001711074125220109,0.004507927576250375,0.007419610146672942,0.010396904874263264,0.013407009223046567,0.015900388607608694,0.017335727295661713,0.017491561609370543,0.01639250762115267,0.014645500305681998,0.013267572128629007,0.013013314012211384,0.013915525455881811,0.015892184937092907,0.01894330257758498,0.022724384946136933,0.026448056803688856,0.029220305316215955,0.03017172866124078,0.029105479233345742,0.02666950529891349,0.023700414241838955,0.021182423845729482,0.01941081057958161,0.018082099364753166,0.016663168017731707,0.014506063211264434,0.011536972154189898,0.008289011969150387,0.00554136940730049,0.0037943605735687703,0.0030889962292289194,0.003179216867508947,0.0035647073956543178,0.003966601216135133,0.004229062496981523,0.004015812611402516,0.0031300054722415644,0.0014814204412186406,-0.00048703906391188374,-0.0021274222969409804,-0.002832786641280831,-0.0023160662318427883,-0.0006920871514970638,0.0012845748601491092,0.002432842774069436,0.0018587088171092728,-0.0007166925960872476,-0.005071907909425334,-0.010222709723644344,-0.014963419107736907,-0.017743866229909633,-0.017251752277235806,-0.013175403561427618,-0.0064826406468011565,0.0007596522984563285,0.006927491133128963,0.011200692515224896,0.013767889751818616,0.01569534239254547,0.01765559959359515,0.019320590447388597,0.019984946054802815,0.018574213317426994,0.014202593193492418,0.007132542409062338,-0.00043782756742709783,-0.005900301501064165,-0.007876966043145413,-0.00668768686186438,-0.004186102794612442,-0.0028163828428583704,-0.004120487600922599,-0.007827754141791016,-0.011994328050662369,-0.014463101484547294,-0.014069411334582262,-0.010649209494802359,-0.005096513860102532,0.0011041325714150237,0.006402572620132303,0.009519299381270035,0.010011413333943864,0.008231596397280206,0.005262505340205669,0.002153977694800585,-0.00047063526548942283,-0.002406287376209831,-0.004087680004077676,-0.005514815021614916,-0.006499042926962573,-0.006925542698120587,-0.006605665339317,-0.005145725761456931,-0.0023160662318427883,0.0012189591603722501,0.004360293390448226,0.0064517794606165505,0.007075126837192157,0.006517398703002515,0.005377331423075881,0.003745149178301388,0.0016208529808530662,-0.0008807310863988723,-0.0034397287011729318,-0.0054327934990675356,-0.006540051157801187,-0.006835322565927574,-0.006581064449509954,-0.0060233312544501596,-0.00527695918535871,-0.00456339066441606,-0.003751401377286705,-0.002824584995113108,-0.001979787605051816,-0.0015942975829934614,-0.0017501339210503478,-0.002143826095363441,-0.0027671714475909874,-0.003644776434497201,-0.004694621557882762,-0.005908505171579949,-0.007335640189117187,-0.008894003569686053,-0.010370345427707539,-0.011576026889149986,-0.012511047954013395,-0.013413259397683824,-0.014381085022870067,-0.01478297378248073,-0.013880767399680454,-0.011190540409700737,-0.00668768686186438,-0.0011021826181456026,0.004065024512756914,0.007452414706995774,0.00846124856302063,0.007534436229543155,0.005771021573040913,0.004343889592025765,0.0034252748560198915,0.0022359966869128895,-6.0539495188674886e-05,-0.003620170483820002,-0.00811482187940162,-0.012953950005332828,-0.017202540375881408,-0.020253652955503326,-0.02158236417033177,-0.021049241986819327,-0.019253022769994254,-0.016972888210140986,-0.014438495533870097,-0.01131356510221658,-0.00756529235485761,-0.0036693818790873847,-0.0003230007760350652,0.0021457755425458467,0.0038599762733456298,0.005180483817658289,0.006574809214002545,0.008584278316406626,0.011258103026224925,0.01451426688178022,0.018008281512721568,0.021461292973694455,0.024463193651961975,0.026415252243366025,0.026817141002976688,0.025513035738825445,0.02282280874884573,0.0195338403329676,0.016728782199247522,0.014809533229036454,0.01385810988401163,0.013620259108625575,0.013661267339464189,0.013612055438109791,0.013062525913565782,0.012020882436347944,0.010930027057775706,0.010208260939361455,0.010060625235298262,0.01008523118597546,0.009634125464140247,0.007534436229543155,0.0032612363657082673,-0.0024226911746322924,-0.008319868094464843,-0.013437865348361023,-0.017202540375881408,-0.01885112388864329,-0.017842290032618432,-0.014520517056417477,-0.01018170149280573,-0.00585929327022555,-0.0019305762097844336,0.0014486128443737187,0.003991206660725317,0.0057956275237181125,0.007493422937834388,0.009429079249077023,0.011659996846705743,0.013735085191495787,0.014727516767359228,0.014251805094846815,0.01256220829037617,0.010462519055779078,0.00892876162588741,0.008387435771859185,0.008633490217761023,0.00898617213688744,0.008617087937599608,0.0062139236243603435,0.0012435651110494492,-0.005358975647035938,-0.011625238790504384,-0.01577540535834417,-0.017374782030621802,-0.017473205833330598,-0.01725995594775159,-0.017612637866878007,-0.01904797149406088,-0.021311698712882583,-0.02346059984883407,-0.02481391701433971,-0.024945150438241488,-0.023960917472023682,-0.022041673562682766,-0.019097183395415277,-0.015152063042638714,-0.01082145114954275,-0.006950148648797787,-0.004202507099121919,-0.002463700923731952,-0.001372846051246731,-0.0008889327325665951,-0.0010693750213006809,-0.0018157496208272069,-0.0028984023410576903,-0.004030266456555556,-0.004653611808783102,-0.0042927277374019465,-0.0026687486570562214,0.0005135948160323992,0.004778590503264488,0.009552109002463017,0.014333821556524042,0.01859881926810419,0.021854983123659487,0.023913664127417963,0.024692845817702397,0.024012087930126762,0.021789368942143672,0.01845118862491115,0.01481773689955224,0.011397535059772337,0.008805731872501416,0.007140741018707971,0.00600887740929712,0.005008244693352972,0.0038517746271779065,0.002555871515281401,0.0015060263918958395,0.0009811038302030587,0.0009318924349356762,0.0009893054763707818,0.001325584103161754,0.0022359966869128895,0.0034580824528648137,0.004270072246081183,0.004081428311179375,0.0026460926596484436,0.0003249505268696801,-0.002512912318999335,-0.005670649335323742,-0.008910405849847468,-0.011879496906922006,-0.01392997930103485,-0.014495911105740276,-0.01384795777848747,-0.012945746334817043,-0.013035966467010055,-0.014643546809803471,-0.017194341766235778,-0.01945806898505748,-0.020311068527373508,-0.01954828911725049,-0.017719260279232436,-0.015594965093958146,-0.013765941316810242,-0.012125556413693997,-0.010698421396156758,-0.00955015550658449,-0.008278859863626229,-0.006605665339317,-0.004432160277036371,-0.0019387783620391716,0.0008006615414689734,0.003941995265457934,0.007567240789865986,0.011258103026224925,0.013964737357236209,0.014555275112618836,0.012406373976667344,0.007895321819185357,0.002162179340968308,-0.0031362576712268813,-0.006818915224896008,-0.008598732161559665,-0.008688952293752678,-0.007220809045376825,-0.00438294888176899,-0.0005116448627629783,0.0037533513305561257,0.007690270543251981,0.01063476071051947,0.012225933712281319,0.012225933712281319,0.010446116775617662,0.007083330507707941,0.00314640977675104,0.00021012373547764742,-0.0006838849992423258,0.000538200260622583,0.003162813575173501,0.006074491590812933,0.008510460464375027,0.010651162990680887,0.01325116984846759,0.017311121344984515,0.023060664585101934,0.030188130941402193,0.03720077627570239,0.04207271908369673,0.0437049003162972,0.04209732503437393,0.03836544950630622,0.03416606597624189,0.030245546513272374,0.02626761653930283,0.021059394092343486,0.013948335077074795,0.005180483817658289,-0.0038252182171442713,-0.011026497364605977,-0.0146763513701263,-0.014471305155063079,-0.01145299713576399,-0.00726182233708559,-0.003579161240807357,-0.0020043935557290155,-0.0034315265489181933,-0.007712928058920804,-0.01373313169561726,-0.019753335332313715,-0.024239781539118502,-0.02643789963729454,-0.026290258872361198,-0.024133159126764076,-0.020877000332078934,-0.017579828245685023,-0.015340706977540523,-0.014208843368129673,-0.013454267628522438,-0.011961518429469386,-0.008926808130008883,-0.004276323938979486,0.0014814204412186406,0.007239164821416767,0.011906056353477731,0.014899753361229466,0.016130045834219266,0.015793766195254265,0.013964737357236209,0.010848010596098478,0.006361559328423538,0.0004151716206280214,-0.006728695092702995,-0.014241647928452504,-0.021000025024594776,-0.025847356821041768,-0.028283325694603862,-0.028439165069182842,-0.026872598018098194,-0.024206976978795675,-0.021328106053914147,-0.019056175164576663,-0.017940713835327228,-0.01783408636210265,-0.018375417277001024,-0.01959750101860489,-0.021574160499815986,-0.02373126530628326,-0.025043569180080136,-0.024395620913697482,-0.02122968225120535,-0.015783609028859953,-0.008894003569686053,-0.0019059702591072345,0.003679533984611544,0.0064763854112937485,0.006131907162683114,0.0033924667530879546,-0.00014255863912708417,-0.0028984023410576903,-0.003497142248695053,-0.0013646438989919928,0.0029331598911720327,0.008666299838954006,0.015162215148162876,0.02169914374908051,0.027555314462422504,0.03198435521909742,0.03401843027217869,0.03314082477918547,0.030007690677016165,0.02608717121404665,0.022699778995459732,0.021010182190989088,0.02173195337027349,0.024889693423119988,0.029564783564826586,0.034264489778950684,0.037660085668053386,0.03897238954185026,0.037906140113955225,0.0350272691890737,0.031328198221328825,0.02730926001652067,0.02277359684749133,0.017311121344984515,0.010995646300161673,0.004450514028728253,-0.001348240100569532,-0.005605035153807929,-0.008106618208885837,-0.009336905621005483,-0.0101242909818057,-0.010928078622767332,-0.012076344512339599,-0.01398738981203488,-0.017145124804011227,-0.02113946211901234,-0.024928743097209924,-0.027807614022091448,-0.02945620259572348,-0.029931909207365742,-0.02948900715604631,-0.028636007613730276,-0.02812749138089504,-0.028759037367116273,-0.03106377281677659,-0.034721830492812696,-0.03863414122439628,-0.04149660986911639,-0.04237421536210962,-0.040635406656284574,-0.03625558286183422,-0.030136955422428967,-0.023280159584448044,-0.01651357881778999,-0.010198108833837297,-0.004104083802500138,0.002441044926324174,0.009379867347722625,0.01567073644186827,0.020140780368511642,0.02293763483171594,0.02565247283324301,0.03023734284275659,0.036815284735382994,0.043573671953265565,0.047773055483329906,0.0471989200081087,0.04118690992018772,0.0313199996116832,0.020288416072574835,0.010872616546775677,0.004934427347408389,0.003646726387766622,0.006829067330420166,0.012882085649179757,0.019246772595357,0.023470762076098533,0.0245698160643164,0.023200096618649343,0.02041144582596083,0.01663036345740888,0.012250534602088366,0.007977338280862585,0.0043028798429261056,0.0014568149966284567,-0.0007084909499195248,-0.0023406716764329725,-0.003333103758383428,-0.0035135460471175137,-0.002939411584070335,-0.0020289995064062144,-0.0012416151577800284,-0.0007166925960872476,-0.0005526546118626382,-0.0010693750213006809,-0.002250451038152945,-0.0038334203693990094,-0.005703458956516724,-0.0077703385699208335,-0.009845421853840727,-0.011461200806279775,-0.012117352743178211,-0.01188770057743779,-0.011526814987795588,-0.011600632839827185,-0.012601268086206407,-0.014495911105740276,-0.016644812241691766,-0.018613273113257233,-0.019810750904183896,-0.01999119116856992,-0.018982357312545065,-0.016989290490302403,-0.014602533518094705,-0.012338806299273003,-0.010534383411932148,-0.00946813398403711,-0.009008829652556264,-0.009008829652556264,-0.00941072347303708,-0.010091481360612718,-0.010895269001574349,-0.011535018658311372,-0.011535018658311372,-0.01056719303312513,-0.00888579989917027,-0.007155194863861011,-0.005801877698355369,-0.0044075548324461885,-0.002521113965167058,-0.00012615479009592172,0.002432842774069436,0.0045407351730952965,0.005410135983398712,0.004524331374672836,0.0019489299614763155,-0.0016024997352481996,-0.0052195436134885274,-0.007860558702113846,-0.008976020031363281,-0.008246050242433247,-0.005826483649032568,-0.002176633692208363,0.0018259012202643506,0.0052296957190126865,0.007526232559027371,0.008559672365729427,0.008510460464375027,0.007395004195995743,0.005516763456623291,0.003663130186189083,0.00253946771685894,0.002506660120014018,0.003810764371991231,0.0066486270660341415,0.011192488844709112,0.01729471400395295,0.02375782981370914,0.029039865051829927,0.03206637168077465,0.03244366461144842,0.03058182615223738,0.027506107621938256,0.024389375799930377,0.021879589074336684,0.019943937823964204,0.018106705315430363,0.015596918589836674,0.011906056353477731,0.007222762541255351,0.0023098140328574714,-0.0015368840354713404,-0.0031526614696493426,-0.0022094412890532847,0.0008580750889910941,0.004786792655519226,0.008272609688988974,0.01038870120374748,0.010618353369487904,0.009125604170434851,0.006189322734553297,0.002555871515281401,-0.001036567424455759,-0.003562757442384896,-0.0037596035295414426,-0.0013974514958369148,0.0023098140328574714,0.005475755225784677,0.006427173509939352,0.004696572017239198,0.0009564978795258599,-0.0034807379441855763,-0.007204406765215408,-0.009870027804517926,-0.011977920709630802,-0.014069411334582262,-0.016054274486309143,-0.017218942656042825,-0.017005692770463817,-0.01560316876447393,-0.01356909371139265,-0.011510412707634171,-0.009705989820293318,-0.00828705847327186,-0.0074258603213102,-0.007204406765215408,-0.007409452980278632,-0.007696520717889237,-0.007991792126015624,-0.00831166442394906,-0.008770973816300058,-0.009484541325068678,-0.010353943147546122,-0.011108518887153357,-0.0116170351199886,-0.012182971985564178,-0.012724297839592403,-0.012945746334817043,-0.012519246563659027,-0.01144479852611836,-0.009845421853840727,-0.007999990735661258,-0.006006928974288744,-0.004243516342134564,-0.002824584995113108,-0.0018813648145170505,-0.00135644225282427,-0.0009299424816662551,-0.00047883716470065326,-0.00012615479009592172,-0.00012615479009592172,-0.000601866007130021,-0.0011349902149905245,-0.0012252113593575673,-0.0007248947483419857,2.1479684175825456e-05,0.0004397773688704143,2.9681598569666386e-05,-0.0010939809719778797,-0.0022914602811655894,-0.0027425654969137885,-0.0014794709940362347,0.0019653337598987764,0.0068208687207745354,0.01154517076383553,0.014743919047520643,0.016236668246573695,0.016654964347215927,0.016581151556054483,0.015990608739801706,0.014497859540748653,0.01234075979515153,0.01033129069274745,0.009347057726529643,0.009412671908045456,0.009798163448364856,0.010019617004459648,0.009880184970912236,0.009560307612108649,0.00950289710110862,0.009912989531235067,0.010544535517456306,0.010823404645421279,0.010405103483908896,0.009453685199754222,0.00821519411711879,0.007271974442609749,0.00639436894961652,0.005123073306658258,0.0032202271226956223,0.0007432485000338677,-0.0019387783620391716,-0.004587996615093259,-0.007368444749440018,-0.010042269459258318,-0.012051738561662398,-0.013085178368364453,-0.01312619166007322,-0.011830285005567608,-0.009353307901166898,-0.00616276328799757,-0.0025047101667445967,0.0011615461189371445,0.004278273892248907,0.005853043095588294,0.004852408355296085,0.0010631228223153637,-0.0044157564786139105,-0.009533753226423075,-0.01216656464453261,-0.010919874952251548,-0.00610535277699754,0.0006858349525117467,0.007116135068030772,0.010749586793389682,0.009822769399042055,0.004516129728505113,-0.003210075017171463,-0.010854260770735735,-0.016259320701372367,-0.018596865772225666,-0.018080145868874638,-0.01574260079802134,-0.01271609416907662,-0.009894633755195125,-0.007688322108243605,-0.00630219532154498,-0.005678853005839525,-0.005974119353095762,-0.0071387925836995944,-0.008836587997815872,-0.010591798983802329,-0.012092746792501012,-0.013331237875136443,-0.014495911105740276,-0.015365312928217722,-0.015242283174831726,-0.01348707218884527,-0.009952049327065306,-0.005285157795004341,0.0003167486276584496,0.007198156590578152,0.01503919045564703,0.022724384946136933,0.028875827067605317,0.032607697534802874,0.03355912594069785,0.0316070673492938,0.027276450395327684,0.02164173323808048,0.01594960050896309,0.011577980385028514,0.009273239874498046,0.008354626150666202,0.0075836481308975525,0.005976072848974288,0.003171015221341224,-0.0006100676532977439,-0.004538785219825875,-0.007401254370633001,-0.008065609978047221,-0.006006928974288744,-0.0016763165751057661,0.0039009860224452895,0.009740747876494675,0.014670101195489045,0.017507963889531956,0.017507963889531956,0.014842342850229437,0.010667565270842302,0.006788059099581553,0.004967234944253312,0.006689635296872757,0.012611420191730569,0.02137106778063129,0.02938434330044056,0.03282095248125203,0.030114313089370598,0.0226423684844597,0.013324987700499186,0.004786792655519226,-0.0015122785908811567,-0.005801877698355369,-0.008992422311524698,-0.01144479852611836,-0.01310158570939602,-0.01342966167784524,-0.012223980216402792,-0.009845421853840727,-0.006868127126250405,-0.004505977116893939,-0.004497775470726216,-0.0075980969151804405,-0.013085178368364453,-0.019015161872867895,-0.023173532111223468,-0.0243135993911501,-0.02293567627496726,-0.020384881318534952,-0.018326205375646627,-0.017555222295007826,-0.017825887752457015,-0.018153963720906236,-0.01748960811349201,-0.015512948632280917,-0.012568458465013428,-0.009615769688100304,-0.007737534009598003,-0.007319232848085619,-0.008016398076692823,-0.009058041553910661,-0.009788011342840698,-0.010050473129774102,-0.00999305755790392,-0.009952049327065306,-0.010001261228419704,-0.010091481360612718,-0.009870027804517926,-0.008713558244429877,-0.006146361007836155,-0.0017255284764601641,0.004647360115884801,0.012447382207505958,0.020313022023252036,0.026316823379787076,0.029105479233345742,0.028629767560833325,0.0257508966359518,0.021723749699757707,0.017737621116142528,0.014473258650941605,0.011635390896028544,0.008649897558792589,0.005270703949851302,0.0018341028664320734,-0.0013318363021470711,-0.00384982416782147,-0.005588627812776361,-0.006572860778994169,-0.006786110664573177,-0.006277589370867781,-0.005375382988067505,-0.004546986865993599,-0.004005660505878357,-0.003817016570976548,-0.0039154393615113145,-0.004046670254978017,-0.004120487600922599,-0.004005660505878357,-0.0038744301184986695,-0.003981055061288173,-0.004546986865993599,-0.005506611351099132,-0.006654877240671399,-0.00772933033908222,-0.00858232988139825,-0.009369715242198467,-0.010214511113998712,-0.011149527117991971,-0.012461836052658997,-0.014561525287256091,-0.017415790261460416,-0.020548924363629713,-0.023083311979030456,-0.024518650667083475,-0.024428425474020313,-0.022755236010581235,-0.019892767365861125,-0.016234714750695167,-0.012051738561662398,-0.007376648419955801,-0.0023078640795880507,0.0029741691341846777,0.007944528659669603,0.011865048122639117,0.014136979011976603,0.014907957031745252,0.01495716893309965,0.01506379640632423,0.01565433416170685,0.0172701131141459,0.020140780368511642,0.023782435764386337,0.02670231998097663,0.027268251785682054,0.024660041257379566,0.01971428059735363,0.014383033457878442,0.010077027515459677,0.006886482902290348,0.0038271686765007076,-9.33471426422983e-05,-0.005342573366874523,-0.012051738561662398,-0.019564691397411904,-0.026224644690845386,-0.03067008266681156,-0.03211361996451021,-0.030834120651036166,-0.027602567807028227,-0.02306690969886904,-0.0174239939319762,-0.010772239248188353,-0.003521747693285236,0.004032216915911992,0.011364730499449506,0.0185003954653954,0.026366040342011624,0.03546196756987735,0.045050018872157205,0.05370306935305426,0.060379419865779,0.0648084403789733,0.0673920652000792,0.06852392880949004,0.068089250672167,0.06525136773464349,0.05933779157117162,0.05058631728756576,0.040161668723131295,0.02938434330044056,0.019681470976160645,0.011971670534993546,0.006738847198227154,0.00399940830689304,0.003294043962553189,0.0036057171447539775,0.0035565052433995793,0.0019243240107991164,-0.0012252113593575673,-0.005342573366874523,-0.009812617293517897,-0.014208843368129673,-0.0177848795216184,-0.02053251702259815,-0.02290287171464443,-0.025133794373143302,-0.027020233722161384,-0.028111084039863468,-0.028102885430217838,-0.02742212248177205,-0.026601937621519155,-0.026150826838813788,-0.026134424558652374,-0.026364076724392792,-0.0265527206592946,-0.02651171242845599,-0.02642969596677876,-0.026716758643519214,-0.027118657524870183,-0.02729089411874042,-0.026806983836582376,-0.025445463000560952,-0.02323094768309365,-0.020565326643791133,-0.01794891244497286,-0.01577540535834417,-0.01459432984757892,-0.014495911105740276,-0.015193071273477328,-0.016119888667824957,-0.016447964636274175,-0.015275092796024708,-0.012535648843820444,-0.008762770145784273,-0.004866862200449125,-0.0015532878338938012,0.0008334696444009104,0.0023016123866897486,0.0030889962292289194,0.0037943605735687703,0.0046391579636300626,0.005647991819654918,0.006443580850970918,0.006624021115356943,0.006140110833198898,0.005180483817658289,0.004253668447658723,0.003925591467035473,0.004401302633460872,0.005287111290882868,0.006131907162683114,0.00686187695161315,0.007370398245318545,0.007444216097350143,0.006952097083806162,0.006099097541490132,0.005254301669689886,0.005131271916303891,0.005910453606588323,0.007189952920062368,0.00854327008556801,0.00972434559633326,0.010577345138649288,0.010979238959130106,0.010741383122873899,0.010060625235298262,0.009240435314175215,0.008690905789631205,0.008510460464375027,0.008526867805406596,0.008444846282859214,0.008149579935602978,0.007706672823413396,0.007099732787869356,0.006410771229777935,0.005533165736784707,0.004270072246081183,0.00262148721505826,0.0005299986144548602,-0.001979787605051816,-0.004620804211938181,-0.007393050700117217,-0.010509777461254949,-0.014184237417452472,-0.018129357770229036,-0.021565956829300202,-0.02333757515631823,-0.022509181564679397,-0.019253022769994254,-0.015406321159056336,-0.0128227216423012,-0.012609466695852039,-0.0146763513701263,-0.018014531687358826,-0.02141832618610716,-0.023878901010346454,-0.024764705112985317,-0.02340318933783404,-0.018916743131029253,-0.01119873901934637,-0.0015450861877260784,0.007230966211771135,0.012455585878021742,0.01292309388001837,0.009593117233301633,0.004753985058674304,0.0010385173777251798,-0.00021637583324556146,0.0009072864842584771,0.003646726387766622,0.0070587245570307424,0.009929396872266636,0.011553374434351314,0.012094700288379539,0.012529403730053339,0.013677669619625604,0.015613320869998087,0.01795906961136717,0.019960340104125618,0.020837945597118848,0.01997674238428703,0.017368531855984547,0.014194389522976632,0.012184920420572553,0.012972305781372769,0.017335727295661713,0.024930701653958602,0.03437111219130511,0.04331940877597779,0.049700508124056755,0.05289925134687171,0.053325781483250644,0.05136550403872035,0.047576207877912315,0.042253159348082756,0.03496165500755789,0.025496633458664028,0.014497859540748653,0.0033104477609756503,-0.006704089142025796,-0.015053639239929919,-0.022033469892166986,-0.027979855676831842,-0.032712361390408624,-0.035632240546128756,-0.036296596153542984,-0.03461520301958812,-0.03095715040442216,-0.025945780623750563,-0.020516114742436732,-0.015726198517859925,-0.01255205618485201,-0.010772239248188353,-0.009263087768973886,-0.006515445207123988,-0.0011185864165680637,0.007329384953609779,0.018073900755107532,0.029392546970956345,0.03898059321236605,0.044648119990806236,0.04526326875773621,0.040981863705124494,0.03276353690938185,0.021297249928599694,0.007649262312413366,-0.006564657108478387,-0.019121789346092474,-0.028234113793249464,-0.033319301425952665,-0.0347956483448443,-0.0335899618225317,-0.031080180157808158,-0.028980490923211068,-0.028373550887667028,-0.02905430371437251,-0.029784273503302545,-0.029333172842337482,-0.02729089411874042,-0.024354607621988714,-0.02154955454913879,-0.019720530771990884,-0.018949547691352084,-0.018826517937966088,-0.018810115657804674,-0.018621471722902867,-0.018227781572937835,-0.017989925736681626,-0.018153963720906236,-0.01877731109748184,-0.019589297348089105,-0.02004860167956995,-0.01990097103637691,-0.019310433280994282,-0.018760903756450276,-0.01874450147628886,-0.019917373316538322,-0.022377948140777617,-0.025404454769722338,-0.027627173757705424,-0.02769278793922124,-0.025207607164304743,-0.020721160957499957,-0.015135655701607149,-0.009099049784749277,-0.002873796390380491,0.0033924667530879546,0.00942087557856124,0.01498177488377685,0.019632264135676397,0.023282118141196725,0.026439853133173073,0.02990106320379159,0.03407584584404888,0.03833263988511324,0.04115410029899474,0.041613409691345735,0.039882804656036476,0.03663484447099697,0.032337037138223834,0.027481501671261063,0.02263416481394392,0.018278946970170757,0.014809533229036454,0.01239817030615156,0.010749586793389682,0.009314248105336658,0.00785430852747659,0.0062139236243603435,0.004401302633460872,0.0025804774659586,0.0011779499173596056,0.0004315754190504823,0.0004479793186903463,0.0013994014491063359,0.0032038233242731614,0.005738217012718082,0.008748316300631234,0.011249904416579295,0.012463784487667374,0.012250534602088366,0.011044853140645919,0.009355261397045426,0.0075836481308975525,0.005762822963395282,0.0034826878974549974,0.000562806211299782,-0.002521113965167058,-0.00517033171213413,-0.006933746368636371,-0.007852360092468215,-0.00813942783007882,-0.008024596686338457,-0.007909770603468244,-0.008369079995819241,-0.009664981589454702,-0.011403790295279744,-0.012699691888915204,-0.01293754772517141,-0.01216656464453261,-0.010665616835833927,-0.009074443834072079,-0.007876966043145413,-0.007212610435731192,-0.007155194863861011,-0.007581694635019026,-0.008533117980043851,-0.009968451607226722,-0.011403790295279744,-0.01208454818285538,-0.011428391185086791,-0.009279490049135301,-0.005990521633257177,-0.0024472971253094913,0.0004971907645664307,0.0027527176024379476,0.0041880527478818635,0.004565341123772496,0.0037943605735687703,0.0019407278092215773,-0.0003230007760350652,-0.0018403550654173908,-0.0018731626622623127,-0.00046243331566949087,0.0017192762774748472,0.004097831603514821,0.006238529575037542,0.007796892955606408,0.009059989988919038,0.010519934627649259,0.012447382207505958,0.014842342850229437,0.01744234970801614,0.01952563666245182,0.020780530025248666,0.021740157040789274,0.02298684673307034,0.024815875571088393,0.02704679822958726,0.028859424787443903,0.028892229347766734,0.02626761653930283,0.02101838586150487,0.014358427507201243,0.007501626608350172,0.0016290551331078044,-0.0022832586349978666,-0.004341939132669329,-0.00561323376345356,-0.0072700209467312215,-0.00999305755790392,-0.01340505572716804,-0.016398752734919777,-0.01765364609771662,-0.01643976602662854,-0.012814517971785415,-0.007885164652791045,-0.0033249016061286897,-0.0003147988768238347,0.0012353629587947112,0.0019817375583212377,0.0023672275803795924,0.002547669869113678,0.002531266070691217,0.0023754292265473153,0.0021785836454777836,0.002432842774069436,0.003712342087543481,0.005820233474395311,0.00791172409934677,0.008805731872501416,0.007370398245318545,0.0030069767310296,-0.0038744301184986695,-0.01208454818285538,-0.019400653413187297,-0.023739463915928894,-0.024510446996567695,-0.0224353637126478,-0.018859327559159072,-0.01463534313928769,-0.010001261228419704,-0.005030900184673734,-1.9529892854249335e-05,0.004491523777827914,0.007788694345960776,0.00964232913465603,0.010323087022231668,0.010454315385263294,0.010889018826937094,0.011897852682961948,0.013054322243049999,0.013513631635400997,0.01270164032392358,0.010487125006456276,0.006853673281097367,0.002162179340968308,-0.002873796390380491,-0.007548885013826043,-0.011223344970023568,-0.013577297381908434,-0.014750169222157898,-0.014963419107736907,-0.01447950376470871,-0.013454267628522438,-0.01188770057743779,-0.0100996850311285,-0.008647944062914062,-0.007688322108243605,-0.007163398534376793,-0.00673689876321878,-0.006154559617481787,-0.0053015651360359085,-0.00421891089754438,-0.0031854690664942643,-0.0025703253604344406,-0.002545719915844257,-0.0027179600523236044,-0.00267695080931096,-0.0023734797793649094,-0.0023078640795880507,-0.003456132499595393,-0.006474436976285374,-0.011034701035121759,-0.01583282093021435,-0.019343242902187266,-0.020032199399408535,-0.017128722523849813,-0.011223344970023568,-0.004128689247090322,0.002244198839167628,0.006566610604356913,0.00882213415266283,0.009863777629880669,0.010651162990680887,0.011454950631642518,0.012283344223281348,0.013005110341695601,0.01385810988401163,0.015178622489194441,0.016810803721794904,0.017721218835981115,0.016433515851991286,0.011938865974670716,0.004573542769940218,-0.003817016570976548,-0.010723027346833957,-0.013979186141519098,-0.013035966467010055,-0.009353307901166898,-0.00547380172990615,-0.0034315265489181933,-0.003997458859710634,-0.006728695092702995,-0.010600002654318113,-0.014610737188610489,-0.01786689598329563,-0.020081411300762932,-0.021385516564914178,-0.02215649964555298,-0.022427160042132015,-0.022000660270974002,-0.020712962347854323,-0.018063743588713224,-0.013388648386136473,-0.007015762830313599,-0.0001589624375495451,0.005976072848974288,0.010626557040003686,0.013612055438109791,0.01537546503374188,0.016343295719798274,0.0164991300335071,0.014965372603615433,0.011266306696740709,0.005631589539493503,-0.0012088075609351064,-0.008303465814303428,-0.014340071731161298,-0.018285192083937862,-0.019326835561155702,-0.017136926194365593,-0.011904102857599205,-0.004875063846616848,0.0024082373294792526,0.00878932959234
