0.4195637766876328,0.5617401027451635,0.5826077955375315,0.598681952599688,0.6169847124065171,0.6336106977178887,0.6389381302377293,0.6131435758831791,0.5057964831693755,0.19453175387495314,-0.35560812514548634,-0.7190598039335063,-0.8429031725806344,-0.8735684075719737,-0.8590416263117246,-0.7931351162414366,-0.6329264225976533,-0.3273857178856926,0.03504488806212884,0.26096331062788797,0.30700087964113776,0.16001984754638432,-0.23842243061462648,-0.6685314413360216,-0.8583297285513408,-0.9131815797099109,-0.9204450126763906,-0.8948518472078836,-0.7586621210913825,0.16126340240611978,0.8202618294881623,0.9030373630231494,0.9141143418848422,0.9001035603911332,0.8594704580240234,0.7857970243507527,0.7155936857224543,0.7370216422494494,0.8305104487457683,0.9025355235950683,0.9370187232011234,0.9519698140172842,0.9583290988163178,0.9606661649895587,0.960061964783218,0.9560080535336616,0.9446487852601544,0.9082711972936071,0.7344285754262092,-0.1769423085342308,-0.7781845817528655,-0.8894361352330696,-0.9238544437686621,-0.9446214949659872,-0.9640368518749381,-0.9799258975097519,-0.989215349407956,-0.9899975358752027,-0.9509033448728764,-0.21850262727957698,0.6572051921741296,0.6498330113205929,0.22525864330292408,-0.44697327858065183,-0.710558719235172,-0.7807013228273875,-0.7878314223458327,-0.7588490422192053,-0.6946050855333508,-0.592438518803547,-0.4671802548378086,-0.35823027977526417,-0.3076238013597933,-0.3243719675010635,-0.3730537507537439,-0.40580730953298727,-0.4103332680248237,-0.3831432196177224,-0.3403669060403176,-0.29837034871965645,-0.2660789208401645,-0.25393224972420236,-0.2578376444378591,-0.27500517728377194,-0.2657085048206921,-0.16512875140766184,-0.04304045533053467,0.05946460464364744,0.1375944539222136,0.1765289976700227,0.16799290356097688,0.11333971958069737,0.03159125116311081,-0.031134636028212013,-0.011924715588650095,0.1252187467050026,0.3505824642911189,0.5630725299823571,0.6908808495123786,0.7417424456603215,0.7398647140518043,0.689677919257389,0.5783034164435533,0.3690500705375879,-0.05810379261572588,-0.5063461043868052,-0.5387543960599992,-0.5011329688389388,-0.4735138273021935,-0.4585002933452166,-0.4498831788937586,-0.43624161531894057,-0.40779421804615934,-0.3619348276142529,-0.29886633780566396,-0.21441111435585475,-0.11719392872780537,-0.034905601416059424,0.014290244519054647,0.0192409965082778,-0.04411489314373514,-0.20847727362801355,-0.4580343152872012,-0.6869808096558161,-0.823370815582048,-0.8696565982531222,-0.8283345482163652,-0.6955705041020253,-0.4766844812133683,-0.22172440910011879,-0.013110141694732874,0.12107341287216489,0.19209468414284359,0.2199265157110481,0.2219517027063355,0.20050408706687595,0.14825775450936826,0.05687892778593683,-0.06349116683384787,-0.1890754482858939,-0.2742890734558583,-0.29969948013410225,-0.26825810127241195,-0.19277430568101905,-0.1038303310131143,-0.032340290348116515,-0.00562431955673396,-0.029162486125426167,-0.0869200843403506,-0.13916377652617407,-0.14933749498182491,-0.10092227244322115,-0.022336096578757212,0.055926029801274486,0.12333264247208536,0.17413495490818418,0.20478317674898844,0.21335630823141039,0.20403153085551415,0.1867528920012895,0.18036478877546477,0.2086351506976455,0.33042735538097034,0.6301019198912243,0.7350711741564604,0.5876505105915228,0.5060879120333158,0.4925884134213402,0.5269277974073263,0.5773199528295099,0.613596059493064,0.6248589179016603,0.6148498298519982,0.597469643535828,0.5906353334490098,0.603021327937308,0.6301546880470152,0.6517513385488275,0.6426344802011462,0.6040963129359145,0.5575621317925744,0.523247076217057,0.5152158579391438,0.517274261672446,0.47987581150884834,0.3372268512632709,0.042027051365214244,-0.3105144574432883,-0.5475623850932647,-0.6493475394960578,-0.6581276946357852,-0.6086034546423201,-0.5311772953028163,-0.47794791865030706,-0.5488401219738474,-0.6201599567140056,-0.521535576604623,-0.44827180750397905,-0.40119056175714196,-0.38466383089995226,-0.4055368538596967,-0.4520726386705636,-0.4962052125201764,-0.514949026535071,-0.485103339790607,-0.3935266573007419,-0.26075260184743065,-0.1323471547220753,-0.03446045320039762,0.03523236893457306,0.07764641922420987,0.07955927888570095,0.01497008513702596,-0.1378132623951838,-0.3522761716929283,-0.5480535411344138,-0.686538763318128,-0.7758717782430191,-0.8316808230099532,-0.8633026036608819,-0.8756739726444718,-0.8704408370105141,-0.8477330333258031,-0.8043570083892001,-0.7369364606454357,-0.6374651730610353,-0.4936293788326684,-0.2892964302753237,-0.005795999961770402,0.3524370291409683,0.6534110294783675,0.8031937409733091,0.8533953683323556,0.8456447221872258,0.7717221450583768,0.5576421198313436,0.10997106080450936,-0.2988533167322991,-0.46112177140448773,-0.4930939911921256,-0.44420533767807074,-0.27698478012919153,0.08742040493967279,0.5318582596117215,0.7846587430874887,0.8811375269594173,0.916920662172718,0.9360141748855455,0.9554448557615376,0.9722228176851063,0.9809675089860878,0.9847231008837579,0.9863832333896817,0.9873328067925369,0.9872633648694044,0.9817288916604673,0.9351044138223839,0.5533757248355287,-0.19692840011297744,-0.4313221153070638,-0.4674317381957823,-0.46427054948097735,-0.4701754172104939,-0.49756101740247827,-0.5504493808847312,-0.6204675140884519,-0.6777694715688094,-0.6939047650089437,-0.6848312028141543,-0.6810801984429898,-0.697013889696591,-0.7406769189767892,-0.8131454685231361,-0.8868414545341043,-0.8916912460395578,-0.8212564404182675,-0.7385330182281344,-0.6674536636844076,-0.6051106324565291,-0.5502827759866493,-0.5063703243436783,-0.4783606055845421,-0.46330252069782435,-0.4533263857808171,-0.4345570387504591,-0.4045163089638637,-0.37639772431712054,-0.37136498751297586,-0.40771603200113715,-0.4846545770727907,-0.5820007740237094,-0.6629067699696631,-0.7056090085343745,-0.7199955652541107,-0.7367938203882592,-0.7819769618914458,-0.8503639101144357,-0.9136553015326887,-0.9555059637989538,-0.9723950865789354,-0.952123221628949,-0.8246059522985649,-0.12148069239454125,0.7352018758239139,0.8942173216069508,0.9277497457294452,0.9354844072651334,0.932066805063668,0.9120796448122647,0.8305068886326815,0.39080496817413846,-0.47803394573914637,-0.7422645370720843,-0.802903700017926,-0.8155144700290573,-0.8120937238581386,-0.8058823722272058,-0.8050555116532281,-0.8119742021541685,-0.823518451869868,-0.8311946444870523,-0.8224281407989884,-0.7804488588974814,-0.6758998004814364,-0.4631566106912003,-0.09799784130674867,0.37051836321178194,0.6836329632002166,0.7826858528274822,0.8111597002925778,0.8308487773103408,0.8475911822238429,0.855801328268772,0.8532546971349182,0.8434583389864256,0.8321947754475687,0.8255790252942069,0.82771895556065,0.8421095800877167,0.8645875829055558,0.8782525368334908,0.8564030850992227,0.7647743481245548,0.595258588682474,0.38720822155384554,0.19589098487392093,0.06914787449002315,0.04416949022927233,0.11869611873508097,0.25096598693495914,0.35630766899563115,0.39515354310357925,0.386657306271605,0.3674129254648957,0.35922913214224017,0.385043754782613,0.4449236392785747,0.5064300449388943,0.5571448153180284,0.5990990925693659,0.6309661258405398,0.6511122506674379,0.667065338008302,0.6898644397209577,0.7135839741376283,0.7166434174543879,0.6949903446588499,0.6521416835940935,0.5851142356864253,0.49024279185958064,0.3680116547342473,0.21992669049434282,0.07276145502216191,-0.03673163615393893,-0.11977875368858687,-0.20705947220117787,-0.34552498687911654,-0.5610280919096478,-0.7655281811580372,-0.8698311498982164,-0.9073085000525568,-0.9170075100344811,-0.911767119776755,-0.8973312115344863,-0.8780057725516734,-0.8558917367593722,-0.8259632873688704,-0.7713051301016244,-0.6430797594426919,-0.3033310052186945,0.3468942783601811,0.7788076777794064,0.914486546997088,0.9578765934917193,0.9699183298388114,0.9680646266800108,0.9603758140837877,0.946228524642712,0.91838350591433,0.8674329089093261,0.8184576284164902,0.8508477307028207,0.9312405584635246,0.974973030282446,0.9891699889367976,0.992371252531654,0.9927650349531583,0.9925178098051662,0.9918105620672034,0.9905493089939776,0.9887315579153803,0.9850271019667459,0.9727472486003957,0.917138167599727,0.5593948433914278,-0.45294823247206534,-0.8050078317547125,-0.892227613194471,-0.9234263947630053,-0.936372692467701,-0.941814303541159,-0.9433033958916908,-0.9410512012484917,-0.9346866487811815,-0.9238263343688686,-0.9072564482272495,-0.8844464982188407,-0.8563812438251434,-0.8294948589049133,-0.8196235321146165,-0.8298911680146495,-0.8286516627991728,-0.7591699296663628,-0.5469386892757091,-0.18527075668523885,0.14261462629579522,0.32210296988193876,0.37630544108897124,0.32401196599136667,0.14262018941593882,-0.16280260916810493,-0.3922221838024003,-0.4441114253873978,-0.3934699654637247,-0.2858403936748832,-0.1426658467851732,0.002048026931201435,0.0991807101465723,0.10838547692152319,0.005614742676535578,-0.21435389338206412,-0.4859764045617684,-0.6750576537392233,-0.7528312918119686,-0.760163752961677,-0.7225814411813318,-0.6456365676478377,-0.5340091960320904,-0.40849782945516794,-0.2979515313666846,-0.2133392688545774,-0.16146363754692922,-0.13353370106907436,-0.08904439773712881,0.121124960465889,0.6150908452209946,0.8885083539560359,0.9505132733655018,0.9645291168613762,0.9659324620313092,0.9607173767934971,0.947368600119881,0.9172765933563005,0.8413958341173388,0.628611499250876,0.15865165447879703,-0.2541981957664644,-0.3238523887533925,-0.08457583751355051,0.33321614388231213,0.6593317511970181,0.8285269742315285,0.8993282803840156,0.9241643295563596,0.9260373061005825,0.9101875135232711,0.8778489893527666,0.8400069887686041,0.814554040753411,0.8064390024779057,0.7761997584269104,0.6118111275354498,0.205926970824516,-0.16191192308200075,-0.3353646166606315,-0.41035026696566507,-0.4467132693309114,-0.4681596379734868,-0.4766656131219436,-0.46603686223409374,-0.4432087438731735,-0.4503671536201098,-0.5344536465980884,-0.6617269414026797,-0.7410084923622383,-0.7137796872910829,-0.6176560676224736,-0.5168811742650027,-0.44205944981975703,-0.40198453197197614,-0.3983720479062054,-0.43033816535555747,-0.48804028600727106,-0.560658466892447,-0.6324882696727665,-0.68877586289991,-0.7223535401493542,-0.7407830037698244,-0.7637943481789826,-0.8023161540610464,-0.8372409618642459,-0.846205522465015,-0.8380034504379693,-0.8274662357590762,-0.8154287275354439,-0.7887962224762879,-0.7319998008156846,-0.6510262685422746,-0.5606965845255545,-0.44912821109191914,-0.2902058436260784,-0.09135137143308171,0.06745844756743463,0.10760617656420199,0.03800258780095924,-0.05651316132763146,-0.1255072075728305,-0.17533098850854859,-0.21716772634769868,-0.2557273204093631,-0.29217107526013625,-0.3275578271227808,-0.35231747089730087,-0.3233086063292005,-0.2423523685767491,-0.16492830338398387,-0.10336399108751738,-0.045189301205986784,0.01788095964826693,0.09134354333843135,0.17833581477768115,0.28382553374641345,0.41137637693621304,0.5546956433409769,0.6970931352470146,0.8194465155211328,0.9136851869505277,0.9473184907714621,0.8222162477807645,0.5633148292582595,0.3536707261325427,0.22866725841534988,0.14901341434127405,0.08986925972612557,0.043681013304628966,0.01321733391644426,0.0013543674627798951,0.01652685889207749,0.0656335184340365,0.13949876042266357,0.21210043964277042,0.24258547063615166,0.193114326806203,0.06492624356215375,-0.08482778143531491,-0.19718455280573854,-0.2604320619502366,-0.2799045351066129,-0.26520878419097293,-0.22645276145072957,-0.16711086212785536,-0.08025139816766262,0.04760497073721922,0.21999393478545085,0.4045913319459481,0.5475216405431342,0.5998614213356315,0.5317517450234758,0.3365815681123563,0.026996205793817486,-0.29499573399798723,-0.5199973705305194,-0.6403651214583129,-0.6838239470336815,-0.6642136606768783,-0.557157104322516,-0.29769105587275446,0.1379760897959304,0.5252211826359867,0.71642243470961,0.7911543737168409,0.8179484541326373,0.8300780778817888,0.8462039306606884,0.8726903147202727,0.8983604831156369,0.9121348939678694,0.9079132340697086,0.8737892191354576,0.7621901638801835,0.37466862655225225,-0.436475020304273,-0.8355415148216253,-0.9408628303564979,-0.975379528497962,-0.9896096041070248,-0.9960439914678675,-0.9984993299411727,-0.9983603308366953,-0.9961002318873774,-0.9916960403717674,-0.9843639478723009,-0.9704945308719208,-0.9407664766225856,-0.8751009838990625,-0.7290754865186428,-0.4316497287888038,0.0016800039502435252,0.38968534980434705,0.6356592993665495,0.7748917747380918,0.8525640085572213,0.897266627372581,0.9242184610285966,0.9401834521978986,0.9499184173725845,0.9584151113122543,0.9689960573658825,0.9777394013018618,0.976865459638111,0.9618357112121467,0.9290415780775156,0.867167872081351,0.769436181611932,0.6577693170280403,0.6129886870797625,0.6568292292740642,0.7170180968869618,0.744648347771006,0.7255410357048949,0.6063380147491029,0.2750576173271348,-0.1213422375079056,-0.35066466191789597,-0.4890184515020242,-0.5823850523606418,-0.6239427746847375,-0.583915319210133,-0.3854877481986999,0.09641177730610583,0.5995472413796843,0.8149011420372253,0.8917516822963053,0.922045414008829,0.9216528545946427,0.8695563337294664,0.7863078835303011,0.7630873406209743,0.7821065104895834,0.7929187306505187,0.7799840358401191,0.7359269600594952,0.6540742623467084,0.5270365525742124,0.345200447858378,0.0943885696903664,-0.22144013216038225,-0.5252970261312782,-0.7349590258665183,-0.8547443711651938,-0.9238013839368016,-0.9643063843571575,-0.9845777974149729,-0.9897650533471337,-0.9848003036257523,-0.9685863331831946,-0.908723188084734,-0.3786009403140139,0.793328167163429,0.9405500793579028,0.9698369728787782,0.9812678513910778,0.9860108815494386,0.950591504777339,0.6592909092544859,0.26470923501619614,0.18485705006365044,0.27374482607064804,0.422722762138129,0.5806602596608051,0.722165731921561,0.8332612963837923,0.9072680302023021,0.9449565560441913,0.9531180252218527,0.93112221634805,0.8070898319881409,0.09583030364549998,-0.6976945044354118,-0.8812501737192171,-0.935847067715542,-0.959239284534346,-0.9723042328457413,-0.9809102628247913,-0.987011383223666,-0.9889920210302683,-0.9791882331028627,-0.942857458173397,-0.859112012301846,-0.7053149343291778,-0.49520165059338894,-0.3042066225469173,-0.20534967305016327,-0.2173731097831654,-0.3054251896980643,-0.4081407622809183,-0.4783910901720327,-0.4981453068801597,-0.46361338193152735,-0.3556065784883611,-0.12331181708748389,0.25094178391143285,0.5875017555607899,0.7561077177222664,0.8137828416826285,0.8143095990684822,0.7764321981259448,0.7096272071053609,0.6274639505516821,0.5352745376944739,0.4156401444164734,0.295762828453782,0.22695217520423736,0.1918012036437586,0.17279415918853896,0.15867877503065103,0.14099381635768718,0.11686829320716377,0.09206505134018506,0.06595279995611045,0.04274441290387246,0.02287305784931632,0.009149659429402391,0.0035153255759527557,0.0051334367183190135,-0.02023218137091904,-0.12757985674969127,-0.3357471259511663,-0.5366096254395563,-0.6376416720406073,-0.6601424318384815,-0.6480406262080781,-0.6330927462870524,-0.6350457130104619,-0.6677854762031747,-0.736098202317241,-0.6407886409938575,-0.25501182949762147,0.039251903357343215,0.23317021982623604,0.339020772890608,0.35728004049870055,0.32272784946078675,0.28270839289892086,0.2760415379235678,0.31337851358545776,0.39374573736631063,0.49790663283231984,0.570322645648577,0.56560837437797,0.47680595849438806,0.31639196403203734,0.11621933772720462,-0.07616908398839624,-0.2352028570358466,-0.3745820118932063,-0.5265602986532889,-0.7012137125550205,-0.7854045151635966,-0.6074235582583277,-0.29407353251318596,-0.005232426452222331,0.20966614141269047,0.37174566344178755,0.5399761915232575,0.7232328269328667,0.8491783459000624,0.9016442349327366,0.9086686293012358,0.8746532874902074,0.7600064817244483,0.47438235619905406,0.07420571780670897,-0.14622243992364597,-0.16118125787870105,-0.10721372441651536,-0.07467570585639474,-0.0995022872287739,-0.19638350621972012,-0.37111898681457184,-0.5938928294630516,-0.7937484455398939,-0.9151347245302567,-0.9670597597979135,-0.9845723710187025,-0.9885008291871777,-0.9854843686138673,-0.9732914025565246,-0.9310661264107382,-0.7041872558773652,0.36488698592567004,0.8450520372947687,0.9317328900060511,0.9600740017325035,0.9737127125165134,0.9809152397054701,0.9845952555583299,0.9861556271328645,0.9862843992935281,0.9847789013935552,0.9806044587914292,0.9705698766637518,0.9453693368004705,0.8755185046823301,0.6709133316627958,0.2008227381094022,-0.35829493240285676,-0.7632328192021661,-0.907145624561161,-0.8603119851070746,-0.836420259296214,-0.8587408471241729,-0.8964795203946687,-0.9294930138059101,-0.9535619910404872,-0.970576274526455,-0.981776996931689,-0.987832321570886,-0.9886418206770039,-0.9855082802907738,-0.9763371620518518,-0.9542761475767271,-0.9152780565134202,-0.8694446418307823,-0.8337572478245027,-0.8135559953420276,-0.807129681544556,-0.8072866559942,-0.8058022018256048,-0.79914285946849,-0.7891447628019139,-0.7842253054339962,-0.787738267698174,-0.7916588847088667,-0.7853100985091098,-0.7635207656648437,-0.7308584515078151,-0.7004199089636803,-0.6923098924790381,-0.7218562934065337,-0.7720184456851981,-0.7870239477501743,-0.6877971611618524,-0.46207211706657,-0.21588999470389375,-0.0552857377046741,0.021821534769262785,0.05590104738582778,0.06667227639959927,0.057264402707533774,0.027247261487344424,-0.015911513034104884,-0.054648965875624136,-0.05324527803953219,0.026021933932698374,0.14083608942569836,0.24326601196594802,0.33242963473512327,0.4169447989823128,0.499813779725533,0.5815064743292079,0.6591423269285336,0.7229793034203457,0.7659754643498592,0.7870481059020517,0.7872245097114577,0.7647808606667668,0.7080406424313946,0.5854453590284823,0.33400856238843174,-0.07036625152862463,-0.4817581367400112,-0.7551125075344264,-0.8932547163322663,-0.9483293645957644,-0.9600000961008311,-0.9516977034435579,-0.931203779515645,-0.8895413582735407,-0.7776878678374629,-0.37976261312343834,0.4268506172506481,0.7893351104713573,0.8879844729865586,0.9193142602464068,0.9271499927905841,0.9220554506274949,0.9061030653913151,0.8821327687053875,0.8596615219058771,0.8509594461990451,0.84508806615109,0.7714247336938655,-0.30144110290674897,-0.9077110000189414,-0.9340852141823788,-0.936434108846568,-0.9347811285215734,-0.9303626580703223,-0.9234225893059743,-0.9167370122215903,-0.9145258446645511,-0.9150914994840136,-0.9121256454200275,-0.9014342946685335,-0.883799475242761,-0.8673223272116759,-0.863795196307638,-0.875828795704926,-0.8892335260109345,-0.8806027900739223,-0.8180199811456609,-0.652304812556224,-0.4501555612816139,-0.38816547268453194,-0.43389565922377626,-0.4856301665495726,-0.49642790247448193,-0.4501226940881049,-0.33866785554603046,-0.17120728700728047,0.021703110502018327,0.20081863405447903,0.3499778571308902,0.47355047367177755,0.566571789562727,0.6155734458725556,0.6070571011309924,0.5283699027975156,0.3475897136526989,0.044514548472213866,-0.22660241381884386,-0.12830324118463873,0.6640142947897493,0.9520436453489693,0.9768734778231412,0.9746811543975978,0.9623981959896908,0.9254880715962162,0.7682206388715719,0.12098399255828915,-0.5028526092612512,-0.6743435736552591,-0.7124878328277692,-0.7188154188997756,-0.7126067784517472,-0.6970691083925187,-0.6647621836573562,-0.6070509812950692,-0.5172632546260653,-0.40485656988968266,-0.2906741449771945,-0.19041157104371095,-0.1030311219511689,-0.01892942812169137,0.07177790927834941,0.16791744142970014,0.26533060820634913,0.3599418924438791,0.45510228426624344,0.5628872242964251,0.6828783562290623,0.7947256857934737,0.8804651404702141,0.9371824898422028,0.9645464155598675,0.9424671632768272,0.7830860766086256,0.4203614838900705,0.1316556981870062,0.044860698037079996,0.0563047077017053,0.014746625813814394,-0.2597100623967652,-0.5971345259758322,-0.7715708983922072,-0.8682419486253757,-0.9255142520662717,-0.945837551274244,-0.9294508858470558,-0.8768775119817905,-0.7932490401220993,-0.6960910975211532,-0.6080875797202167,-0.5448232403569446,-0.513282866515016,-0.5099954864771672,-0.5239998722584801,-0.5448970832823571,-0.5633610894439751,-0.5720566771030791,-0.562401640005022,-0.5289586414236115,-0.4697638617699569,-0.38713753262430767,-0.27793544190928804,-0.1499340904854941,-0.011299254555178806,0.13495292344117435,0.2862315951557141,0.4342742350338423,0.5665541043437136,0.6642194674758407,0.7190655224630419,0.7337366047282633,0.7056722758819689,0.6298384716524588,0.5081160947706471,0.3731731949796708,0.2942019875168634,0.3104364473952087,0.410234301000011,0.5274467757318907,0.6138530168636273,0.658964599618691,0.6682108379104665,0.6552136670716353,0.6425283761420436,0.6522002249714857,0.6863029743592282,0.7283051385798172,0.7686744153754304,0.8004484226294478,0.8181284927635991,0.8156459225728666,0.7771124997120972,0.6495688455922719,0.37690912485959194,0.045968503264782815,-0.18435775327959755,-0.3207956657402843,-0.4191659378350168,-0.4965255262090124,-0.5497723677176208,-0.5771447451475266,-0.5722395026440089,-0.5307690778888524,-0.4745686893676944,-0.4210154700321388,-0.3702539469132632,-0.31640028691159117,-0.26179138808949004,-0.21807558089575713,-0.19086480433602263,-0.1781542701792504,-0.17070888803424947,-0.166928660868638,-0.16699944267930777,-0.173378188853022,-0.19260544764140342,-0.23135498228955717,-0.2905756283292511,-0.35061335735897176,-0.3624219342363341,-0.3046512936334661,-0.23213131545579963,-0.19294273198027473,-0.19547120370068638,-0.23586202318937216,-0.29919929476728735,-0.3445980173297619,-0.35742272054703034,-0.3446618894348307,-0.32295613717642596,-0.29006077003494,-0.250682959494443,-0.2149648388900215,-0.1784867991053544,-0.12598091005266898,-0.06242909535827528,-0.003628457022473065,0.03342019954451137,0.04530959656654769,0.03371579340917829,0.005606317048157791,-0.031237429858439674,-0.047232740981332046,-0.015132333465826249,-0.010388287783575081,-0.046794893287680925,-0.12205219694895791,-0.22715978860168898,-0.35321380242504463,-0.46498498610509087,-0.528844632160294,-0.5250788396128668,-0.4575135788246027,-0.3474215978156292,-0.2301120119603352,-0.1303304861041114,-0.060994612610219275,-0.019176315365514063,0.01678952938293263,0.08192731361456171,0.19805997119117127,0.3675613994045676,0.556001552002668,0.7126598078268147,0.808945169765832,0.8594417092287299,0.8868834109354925,0.9009065143559636,0.901955800953782,0.8854043413465357,0.8397436263064386,0.7536946191135167,0.6383482277676693,0.5231104912025014,0.4388139298072826,0.39554957139978836,0.35805757000812766,0.29481288369763586,0.2182466686250989,0.150913221374975,0.1112799716891924,0.13061874246570476,0.23502411789335137,0.29810734249898385,0.23153725085422686,0.09301112792214566,-0.03322011749145923,-0.12076550085560098,-0.18119873227289449,-0.2394082886762022,-0.3051024938562823,-0.377311180744231,-0.4511324318841718,-0.5182213510668565,-0.57451692534116,-0.6302251596607583,-0.7016672063939172,-0.7964963338896707,-0.8896502940843247,-0.9245408408484432,-0.9078972932033232,-0.8789257665709796,-0.847088577715733,-0.8089250489173647,-0.7553471568178542,-0.6762702322658739,-0.5756626153527854,-0.4932944155070572,-0.47959135265528785,-0.539281463164332,-0.6256958541324403,-0.6819210778425165,-0.6666917385514378,-0.496700766833749,-0.08287232076745629,0.3206132434990042,0.5709955270132278,0.729118483097649,0.8325261396266082,0.8968857683740992,0.9343443134788799,0.9553535315558392,0.9671722553414135,0.9735331807048104,0.9755306586601509,0.9723255607672755,0.959403099722429,0.9193456885152229,0.7762064855612374,0.23764874517726498,-0.5138283810403421,-0.8045658518896317,-0.9017641249226113,-0.9414900751112495,-0.9580510206814086,-0.9615372865837891,-0.9550324148111675,-0.9378776975905131,-0.9043096733346332,-0.834029315339116,-0.6481841086756608,-0.1397190952337565,0.39472575653322967,0.5160209828676187,0.2906627279352325,-0.38657071413116706,-0.8229754952559035,-0.9348952193536553,-0.9683376605944918,-0.9803233674985815,-0.9778734923601001,-0.7940001739061062,0.8800351088629162,0.9516957642990665,0.9535116061035669,0.9245904233379302,0.7323633995136587,-0.25927171023680634,-0.7561507475390082,-0.8588116394326061,-0.8948474825623918,-0.9114674319743646,-0.9121093847981782,-0.8805080956681385,-0.75895309437246,-0.43772277969880463,-0.06585040923212342,0.0815782906239427,0.09951724129256286,0.1044961182553925,0.12549312944219237,0.15667908575004127,0.2173603237833618,0.3365342299881188,0.5166640665777829,0.6989148147417945,0.825885623755177,0.899949923251531,0.9424536402364005,0.9666740847527061,0.9789141223778371,0.9803205579652056,0.9698193927028564,0.938772904312658,0.8248115876356021,0.3203016838650217,-0.4144550787543779,-0.6774480698177018,-0.756260025198013,-0.7825563658248725,-0.7919991691339074,-0.7985523334875639,-0.8111457856032896,-0.8342356441523648,-0.8626760536092171,-0.8869132875304926,-0.9031566281498676,-0.9116818543414594,-0.9130419745403489,-0.9066599776030525,-0.8898607831182828,-0.8524313097514714,-0.7687120567862601,-0.620264016653146,-0.44315869826989307,-0.2822743596242406,-0.11273575515000789,0.1493669767886391,0.5317449263205557,0.7723375566028042,0.8232764726944953,0.8307827301437026,0.8386206934160506,0.8507998738219141,0.8658063802708977,0.8808504557660947,0.8971631567183856,0.9115202821470464,0.9080952192657291,0.8365777214272158,0.5768594399618239,0.21788607797644108,0.04298509893742011,0.03510774895742607,0.10529666966592206,0.17780416280777034,0.19756591601225,0.14114328746925225,0.09818246726561826,0.2955753070261231,0.6793376286269612,0.8781568376084039,0.9439239148137107,0.9669838297041814,0.9738423612379237,0.9680205746110231,0.9117225292653083,-0.0277727777701134,-0.8924402450661926,-0.9553077550508415,-0.9677994949814418,-0.9702823064100395,-0.9672340830312854,-0.9553860608406692,-0.9203689206882868,-0.8061719137181119,-0.4370530206871364,0.0691318926069844,0.25048816478922215,0.20611845050690322,0.09504641332482516,0.021676071742067433,0.01943461980456846,0.0894741366527144,0.2100090668351339,0.3373485988614335,0.43063705201180774,0.47547158788378246,0.4751953317858419,0.43940212783062477,0.3761456224591806,0.28782693827069983,0.17084114752074683,0.024945078790222158,-0.1417494294599794,-0.3190923551736065,-0.4976166603110244,-0.6626038857006432,-0.765071903146523,-0.7549560379526556,-0.6750993400241883,-0.6027189993676247,-0.5589038802712392,-0.5313822967994611,-0.519741683882298,-0.532424766703527,-0.5728613938732258,-0.6312937717425443,-0.6860787096342239,-0.7189578322747617,-0.7288838471975735,-0.7239062548650597,-0.7126424482144798,-0.6995258680378049,-0.6784960810085988,-0.640297322478359,-0.5624384102878431,-0.3774598561012072,0.03124935569952656,0.4770586740664378,0.6933676765638006,0.7777148868830114,0.806694293319288,0.8026534757585069,0.7719389550537671,0.7204986778926811,0.6514159998027105,0.5645344901837014,0.45962600197665515,0.3451925538464611,0.2371849655479797,0.15685372519841334,0.11377334726590796,0.08709013103236457,0.04318019764680683,-0.029284241590599214,-0.12387511274525671,-0.23468257164109838,-0.3566143973973286,-0.4663205260866867,-0.5419747311740784,-0.5806552267333501,-0.5870164939816477,-0.5668173346958327,-0.5268410317967541,-0.47404201772066956,-0.41597691137258663,-0.35829854881082335,-0.3075860273454657,-0.2730108022395868,-0.2686371427467289,-0.31055419513430305,-0.4012993448317697,-0.5369062773882027,-0.6805483884606986,-0.7693433242390472,-0.7578096137999188,-0.46716523829794865,0.43159840885697814,0.811893895123437,0.8934184955727393,0.9162760481814901,0.9124397953576655,0.8740971698499403,0.7900354813954298,0.699250763457138,0.6553419652273877,0.6585391312307359,0.6705541182479026,0.6141678770601965,0.38755728961714503,0.12416682136458154,-0.05648461750861764,-0.17685390082938424,-0.2518651547975989,-0.3075184688163778,-0.3669970061466227,-0.43325230054745256,-0.4879894483350552,-0.5142908674739923,-0.5034855920492206,-0.45491765713043586,-0.38791633837028566,-0.3413444077707582,-0.3345238201037935,-0.3532238451964627,-0.3746602422292034,-0.3802409182546181,-0.364395371573019,-0.32049880127409613,-0.23060528674574043,-0.05347169552333048,0.23507923904397873,0.49793111532688267,0.6284783034324167,0.6825280103792489,0.7061098060247265,0.7144233904070609,0.7065022466859096,0.6874004052874936,0.67077243685961,0.6663543955604335,0.6707785618228744,0.6744124479575155,0.6700843651621021,0.6542264407860283,0.6231671863262581,0.5772808554972639,0.5245838493317126,0.48011002443132844,0.4645411646523377,0.4744145781357376,0.44964790567916235,0.3053651489030084,0.1274076645133769,0.008100131313663292,-0.04435147707608164,-0.035732930777415316,0.020881251863622066,0.09886861791808753,0.17219550702592415,0.2235385149815332,0.23476732890035934,0.19068403955108176,0.09599610870818272,-0.010338320022501042,-0.0682123595430109,-0.01694111598689281,0.17497422074244617,0.4386424188720837,0.6301300583058179,0.7214795344032321,0.7459403698003104,0.7233442632886294,0.6402251745453675,0.46293027846002754,0.19921018402997004,-0.024713893079253802,-0.16856835960341734,-0.32187843862479054,-0.5029209834759569,-0.6380357993141176,-0.6960703857825496,-0.6977475837838132,-0.6648311950746378,-0.6168387815855616,-0.5654307913696337,-0.513683212956472,-0.4474729190371836,-0.33912158491767347,-0.17212610602271666,0.025023047033180153,0.18838975919849674,0.27070580855715576,0.2693854012985537,0.2164703285263917,0.1597776198963478,0.13375832583587968,0.14467611404972364,0.17493897077388984,0.19824259143963052,0.2000603671459232,0.1814381698630615,0.14703932730828395,0.1151645827566253,0.13262462945537434,0.2839438857104305,0.5590488619777956,0.743516270616207,0.8228827322163141,0.8577631306489484,0.8645637385372126,0.8356792109483905,0.7236848539953983,0.409549233207996,-0.061365524372424915,-0.4183586018125823,-0.6208949942273966,-0.7301922942472729,-0.7897848490602615,-0.8191164375119454,-0.8221308132918245,-0.7910883991170831,-0.6996022979648046,-0.4919382553501566,-0.15678142427559694,0.10878549099230703,0.1484597537040433,-0.031129974184061448,-0.3080001499130436,-0.5189788421143159,-0.6512121694064172,-0.7450008530052571,-0.8080689924849601,-0.8267347575844213,-0.8123648143106189,-0.7812936668841661,-0.7378508329885348,-0.6811269843492138,-0.60728345266665,-0.49941166952313204,-0.33632030133091456,-0.11573054947602701,0.12734907488434885,0.35245425719059087,0.5384682699915238,0.6830537236877304,0.7946158028672331,0.8717176200413145,0.914706483615532,0.9320290205047254,0.9334225503907406,0.9204445795169891,0.8899900236393085,0.8282610944813406,0.7056439404878484,0.46330559223702683,-0.01029877858696801,-0.5685632299197214,-0.7673263558113872,-0.7948127824869997,-0.80463370454564,-0.8182525730847712,-0.812100279384592,-0.7736892815952313,-0.7216918141466502,-0.6801327716457536,-0.6589293208802909,-0.6566019056331401,-0.6679237860049347,-0.6576802906787144,-0.568426859710209,-0.4124562214520431,-0.26102072459675063,-0.09897446154539637,0.14577337390557793,0.48225979141641095,0.772497937936496,0.8413759155489295,0.6634936818116226,0.3129771039662604,-0.04811028049938892,-0.3002170280995573,-0.4002061366631888,-0.294449668805877,0.12647942388352965,0.6263108486662193,0.8405986144655048,0.9033779939339854,0.9039220180890195,0.8413737481498549,0.5736180468154277,-0.28776743264095983,-0.8235935807096427,-0.9097710156155832,-0.7898023204910879,-0.4911879596554864,-0.17877728918801733,0.06996927750827674,0.27842982403860594,0.4550278381172026,0.5811123817510586,0.6400907310785235,0.6103242730381865,0.44460528719730524,0.13091952156082468,-0.16621551544806862,-0.29555460637578057,-0.2480389754615018,-0.008862335241989216,0.366461903262743,0.6558043768294027,0.7898350399523002,0.8284662394768139,0.7871372279289947,0.4445366333853784,-0.6083502748146278,-0.867382698603766,-0.9148396058201196,-0.9343846587355557,-0.9466178613379045,-0.9548807438190361,-0.9603817957050865,-0.9648974617615196,-0.9600651214052104,-0.8633391550729375,-0.4233327964563267,0.11633863902868732,0.3920676320669239,0.5273012222527959,0.6147628610277627,0.6909025829648495,0.7699325437257086,0.849630182883304,0.9113845545283721,0.9463811893142011,0.9600098824698194,0.9593355248281746,0.9439992976453359,0.9016379759224495,0.7969084501827974,0.5419796165549462,0.0738028479492535,-0.34303796987017654,-0.5566547951378016,-0.6668681644999682,-0.7348425035879133,-0.7814004117791993,-0.8177082087052802,-0.8505125867468242,-0.8812020281159005,-0.9099733109551604,-0.9335110470140525,-0.9499737373779484,-0.9593588507195273,-0.9628489541500261,-0.9570553443177189,-0.9113080707110698,-0.4036871228444175,0.8090287890180059,0.9451201077623819,0.9713280201832286,0.9796577837000512,0.9809946454473228,0.9749532274075386,0.9557027607283171,0.9175960712108384,0.8639409772406704,0.8008735464553924,0.7224848233635608,0.6268074161518726,0.5246939824842347,0.42919440428921046,0.3580279301294544,0.3345533282169333,0.36542418146922434,0.4128859811926967,0.43570338111677903,0.4271229705036347,0.38562152357063384,0.32158226855370736,0.25613544128367316,0.2051541166794035,0.16280337900125735,0.10928323071004832,0.026559334196418545,-0.08310030719943413,-0.1996759486087236,-0.2968493114179498,-0.35187878610658846,-0.3792086825800514,-0.41351338025126433,-0.4773995551701221,-0.5731083862231591,-0.6854694010795983,-0.7989157876150442,-0.8963211050952841,-0.9451820598897741,-0.9413375376721869,-0.9230284565743176,-0.9116971567202443,-0.9030000700816655,-0.8805703903720605,-0.813682177046583,-0.6628894625451391,-0.527337128068255,-0.576487715853104,-0.7010394940653819,-0.7839614929683005,-0.8262784044490425,-0.8472003269729894,-0.8579340371988418,-0.8622819606788851,-0.8559785883430947,-0.8263854998700959,-0.7652471251145675,-0.7214071810787005,-0.7759341285076811,-0.8742093308565457,-0.9178797254134801,-0.8924757652752744,-0.7145934761659588,0.03495166006908052,0.746169356606282,0.9155607242551965,0.9612284773878894,0.9774110329311477,0.9836621543189881,0.9851796724977726,0.9813659801746988,0.9524284325102382,0.5421403191209063,-0.6668526439265774,-0.8273680832655698,-0.8446158402858506,-0.8436062187981218,-0.8566169586101043,-0.8770120040020967,-0.8844954214327415,-0.8844063084185968,-0.8860671428296027,-0.8914345484052361,-0.8988621780306822,-0.9051382522646374,-0.9031783342350469,-0.8730821178281952,-0.7868845914470662,-0.6436149231920563,-0.47990742219027854,-0.3273308437435653,-0.1963371853160158,-0.07122780633346672,0.07230359248724097,0.2099789848811218,0.2874266958647278,0.3250088556903928,0.3546487652371106,0.3872357322277024,0.4283499460452604,0.475247317843022,0.523982315847677,0.571466279085532,0.6129508252192543,0.6420751926234155,0.6498786104712886,0.6350638324645898,0.6108988674399635,0.5968258274633754,0.5957539988278046,0.6021638182987079,0.6079652442612486,0.6084048307449216,0.5981401577196763,0.5800883375376591,0.559535620671565,0.537264628048638,0.4995886902788842,0.4347562690151303,0.351851153738938,0.3046591332860849,0.3506792531418424,0.49843516887034334,0.6712112531933434,0.7988732221458661,0.8649685795036317,0.8838618099849838,0.8606188648727419,0.7873499399533915,0.6558847534767621,0.4927541613242196,0.34774189085068785,0.25764545334061734,0.2246446555523394,0.21929363828221626,0.20236556330720665,0.14884761658080115,0.04771771163915904,-0.08417308880714326,-0.21525044414938094,-0.3089600214437232,-0.3557738176832804,-0.3912800197774108,-0.4520550387406592,-0.5530167690923563,-0.6799719175500121,-0.7938654046693455,-0.8690641572827156,-0.9098244157860504,-0.931128057388639,-0.9432536422133816,-0.9509606362696398,-0.9542849557442623,-0.9504889309298554,-0.9306144247453096,-0.8508349579764307,-0.3729030860294582,0.6333256814515631,0.8686206827614139,0.9366512097384555,0.9723142560226846,0.9887805513047151,0.9943931106971831,0.9945467979041395,0.9909480207458295,0.9826390609325699,0.9649344352923662,0.9236277958173245,0.8172046968632932,0.5595619834882634,0.17845532906080533,-0.07928856276781615,-0.11159862970650807,0.10449481450890263,0.5000019869832252,0.7742705613142502,0.8796799574382796,0.9097205947650201,0.8851393838076853,0.511578704329014,-0.8297503459696991,-0.9531449037398205,-0.970387520938009,-0.9753207165358221,-0.9770440090769905,-0.9776016487142176,-0.9776034332200215,-0.9763525248028767,-0.971245150828426,-0.9560022750080427,-0.9123114167704446,-0.7636609700506614,-0.255352467568805,0.3928038764320886,0.6483502919522798,0.719668513640088,0.7293687081557009,0.7079656213891315,0.6547386758458986,0.5650774656400689,0.43938837688162014,0.2875095073931919,0.12794025038264148,-0.014234592179791086,-0.1291578145791562,-0.2232546758256988,-0.29909895917702084,-0.35570892303787777,-0.38472307667260697,-0.38141624772654575,-0.3375619042742938,-0.25454642239389197,-0.1616892934083108,-0.10977539108024406,-0.1436182324756363,-0.2745687646394737,-0.45565867752523415,-0.6175540560355921,-0.7299453915558815,-0.7901493722411269,-0.7967040973263296,-0.7511343253522269,-0.663318325615211,-0.5411263560487838,-0.39247800852731796,-0.23977040650622383,-0.1138551228815154,-0.0331176628856699,0.010095133521699226,0.03926526481695293,0.08565402252334522,0.16652481555645063,0.2663306479311055,0.35075891095579365,0.39194493458172447,0.3669771893607935,0.26377050590281786,0.09135234158281741,-0.12611258695019512,-0.363811792546618,-0.5877714653817789,-0.7308581663501277,-0.763439359886491,-0.7351642304157986,-0.6958436864682819,-0.6781074019818741,-0.7139941405330625,-0.8027977049815989,-0.8085817947029883,-0.5511956804929021,-0.16447889313567773,0.17133295579716953,0.3998716743813141,0.5388301598732403,0.6307583470753328,0.7222835664920956,0.8353450788715118,0.9393825513219515,0.9513748974446007,0.8691275336909786,0.7652950683715293,0.716387986946458,0.8194954739271934,0.973367892353136,0.9944876472791863,0.9832902347356609,0.9766715850671345,0.9741505957219623,0.9728348622496,0.9710854734025586,0.9673223675837929,0.9603574097663441,0.9499720228193682,0.9314337118713186,0.8557769201095617,0.508112805517611,-0.06913998513060485,-0.3769646098109043,-0.505337194751661,-0.5725736401125524,-0.616416350355601,-0.6455044971313287,-0.6598990103132343,-0.6565244968646516,-0.6349917016597274,-0.6044341509986384,-0.5808973465030393,-0.5794186396426773,-0.5948855415106705,-0.602354292358716,-0.5791462239628469,-0.5277229171297392,-0.4754478440511134,-0.4389362863815853,-0.42127514838121627,-0.420360039082918,-0.4321711596381899,-0.4433183147581065,-0.4450888767214989,-0.44435860744108147,-0.4540093565583485,-0.47132005511164055,-0.4652221876351569,-0.38027227076100384,-0.1957793007022202,0.01702665352840469,0.19732673656605626,0.33613279192751183,0.44674296888529236,0.5456898313631208,0.6390946237225102,0.7215071939767791,0.7790474840266985,0.8087013859018783,0.8156396267618212,0.7838236955227299,0.4165295960607556,-0.21551215798302845,-0.47443609652492574,-0.5905495118127004,-0.6694746378821382,-0.7399087484697404,-0.8034449023829762,-0.8533173621146429,-0.8851211909580065,-0.9000582773675825,-0.9011880507398844,-0.8927395265236968,-0.8784624500525614,-0.862400106115515,-0.8219410282724909,-0.6624853653413593,-0.41532697563838844,-0.23458752271035685,-0.1331643689215423,-0.08558118550258931,-0.06898532285492348,-0.06827801977636738,-0.07707300928695242,-0.10535323704582167,-0.1624220275195713,-0.24459126923029642,-0.31997536541864896,-0.3595073108500539,-0.34330715134140893,-0.26093330556004984,-0.10698927522117285,0.11063546498173747,0.3543927829687334,0.5758877302618803,0.7515547533360343,0.8654598858213776,0.9061075544258606,0.8961963015268206,0.8603552783355762,0.8068322374998682,0.738152457430973,0.6479283677985906,0.5384396695382411,0.43906637763226536,0.38052808899039053,0.3700469998948225,0.4011497203138303,0.4511966021021823,0.493550257006453,0.5088298471400707,0.5027967443604898,0.5000434216036722,0.523906423073449,0.5906876073806175,0.6867902134880877,0.7546920586703655,0.751043674561589,0.6615436336467905,0.4436776542199699,0.04071449943109118,-0.4019063613428937,-0.6796284270349024,-0.8152076298353492,-0.8781138705913399,-0.9075858716269428,-0.918105811691358,-0.9075557367914973,-0.8617295576992527,-0.7565561548946341,-0.5506524229487654,-0.18167985553442656,0.30264919461811335,0.6411475808999583,0.785225572967676,0.8414037501463957,0.8680054232417267,0.8845209975517231,0.895060642801557,0.89946413044058,0.8987120580217012,0.895450156071857,0.8931366203495235,0.8948034033480231,0.9005639718430871,0.906417882289434,0.9029215299954377,0.8584364070872965,0.4919858525585122,-0.575148343906851,-0.8091481287035508,-0.8507851165481007,-0.8614051736392913,-0.8688240833482883,-0.8825787204560522,-0.8951366687798602,-0.8899265298223769,-0.8739498149625371,-0.8660557846689424,-0.8710204891745956,-0.8804535728667495,-0.8834424110245083,-0.876220491337219,-0.8631774604044282,-0.8556542772983788,-0.8601477421141841,-0.8737467272681233,-0.8857476720676257,-0.8828556985091047,-0.8646171753203584,-0.8406179241438849,-0.8185744952093582,-0.7997143151751627,-0.7816323116726276,-0.7644013833512362,-0.7497160566740475,-0.736387039550057,-0.7211000914216557,-0.684781164899603,-0.31683037682606685,0.617304310690719,0.8138404040599767,0.86489212075118,0.8707605989281719,0.8300396055939927,0.7001188492861282,0.4356276467790101,0.1347945642235902,-0.05449285034163621,-0.12604322146350314,-0.1287606555785555,-0.08690404568117231,0.010068235875011778,0.17713350206964643,0.3972323503666316,0.6088218676942891,0.7579617968257517,0.8355070627349955,0.8481017304282594,0.7690536840014542,0.503476792324625,0.030069840702691534,-0.3826173125328564,-0.5781103166289528,-0.5978534590104975,-0.44945855961889675,-0.11784207835695808,0.2846276491725148,0.5870257636175011,0.7293106560450116,0.7573975028027374,0.73905366150427,0.6911420204323607,0.5896996909282322,0.3941425727367357,0.08361287144077394,-0.26184348564840676,-0.5288543877976815,-0.6998180016898915,-0.7999583018631287,-0.8464297573770281,-0.852991925637912,-0.8346714667503823,-0.8090426440708951,-0.7881981967380015,-0.7694354924943306,-0.7451544840080309,-0.7104763480685082,-0.6479081986297096,-0.5029728347454171,-0.14269629139388806,0.45273769116055623,0.8018245383349256,0.9120673058400441,0.9450099115013634,0.9404432033272581,0.8752878212918447,0.6786076333241895,0.37605973572260026,0.1527217585676271,0.06108089263800395,0.0550676683445243,0.08895133383163782,0.1473051092374982,0.2541693294935245,0.43375091907966756,0.6262459180562653,0.7564153634717453,0.8245382999395906,0.8357300519688421,0.7515361114517363,0.4551680954549412,-0.10362317729634234,-0.5568162116444251,-0.7666256739010026,-0.8483069727746928,-0.8659012019633172,-0.8157441607133248,-0.5593194006692919,0.21214049840519808,0.7121214967751905,0.8460284775034471,0.8770203565360034,0.858433317829962,0.7988945709607391,0.7052067090259206,0.5868366547409678,0.45089570569589915,0.3078233837546422,0.18330888470526804,0.09185525029913087,0.03253976047246966,-0.0011012710254399878,-0.011190807001811921,-0.006351831239176971,0.007629961770754103,0.02662526697222062,0.049995519314227375,0.07450148956167446,0.09317204552443197,0.10693327492494265,0.1237135385756569,0.1510244304230402,0.193226947133422,0.2341863269487117,0.2560106070329194,0.26137149664338205,0.2674605460553792,0.31344019816761276,0.4541515784384963,0.5911389268067553,0.5916282046844944,0.569225379283197,0.5612478100925186,0.5456443893800879,0.5199239494465495,0.49379540428569285,0.4648729420897189,0.43091504713942513,0.38446809213336797,0.3033476772783688,0.14130105964972775,-0.16357645862570278,-0.5408713840977476,-0.7724502408543259,-0.8350495708752851,-0.8178005929128074,-0.7863100964059757,-0.7829010628042549,-0.8014845775722766,-0.8158918677684136,-0.8127811798805816,-0.7961332491307251,-0.7688484324736172,-0.7184063298020343,-0.5876902220180928,-0.21730592940872281,0.3906178074314241,0.7443300689829764,0.8815683693291787,0.9478300733535975,0.8856048701908313,0.12876683742698283,-0.3573528519011892,-0.48288635246507805,-0.5073457882031004,-0.4940679059672516,-0.4661246194279311,-0.435447676901521,-0.4065252293066029,-0.3753252208528055,-0.33224633737490983,-0.2542095081397798,-0.1039997897551229,0.13583970222134964,0.3874846440118383,0.5500637477763557,0.6252921695167747,0.6534360949275615,0.6570488323487145,0.6419799802461307,0.6056242137860258,0.5534558293279428,0.508242143059897,0.5007530374155661,0.5156750568391777,0.49860557734287275,0.41766942829510423,0.2858366460995223,0.1421676881314986,0.03429704378262488,0.004731495391656961,0.07629634256748828,0.22091731972826378,0.3384583198834554,0.35851441244059085,0.28694667852641503,0.13611308548012907,-0.06865268630699312,-0.24438179727699227,-0.31784926529350294,-0.2973293878430993,-0.22128829613785386,-0.11956058439015094,-0.0332247421855548,-0.010487230535886195,-0.06760695541808771,-0.1746534114936535,-0.2768933368700143,-0.3435072088288362,-0.37327004550784876,-0.3845700495346941,-0.39129742621902547,-0.3982059348903007,-0.3905780582421557,-0.3303135674631036,-0.15461399971398457,0.10270710864686974,0.277798839147289,0.2912051432649605,0.15552991319746085,0.015553067829289636,0.05552156155702542,0.21872940888541134,0.3370705201574034,0.30843533056781897,0.032487399149176345,-0.4734523882848378,-0.7877175253014522,-0.8870659970866726,-0.9097869731936523,-0.8992261371306893,-0.8585789277480871,-0.7810059041773544,-0.6536802577802239,-0.4688579624334787,-0.23815162529583592,0.016286522457061955,0.3029622945405218,0.6242268854290891,0.8422454835641304,0.9212690661650973,0.938514440459313,0.9318022911545806,0.9015214649926099,0.806912261689284,0.44069946067931387,-0.44950105697326903,-0.8537900726112003,-0.9483869451109859,-0.9666571484847833,-0.939331877664806,-0.8498499737042302,-0.6526790102150786,-0.2836842849020108,0.17235539814568993,0.48137022648711875,0.637817521382505,0.7322925968090512,0.8097717591961997,0.8709945506227116,0.9088800471824192,0.9276372811587166,0.9358172312838855,0.9402977931756352,0.9439334527162577,0.9464694131434106,0.9460198682490842,0.9390126393759232,0.9189811538135171,0.8760470313665255,0.7926047281600693,0.6588917394372183,0.5130139857897115,0.3557192533864087,0.10416306536169019,-0.2923495156746704,-0.6299515123897729,-0.778485505800516,-0.8153833459841509,-0.7873217667601005,-0.7034662963979811,-0.6126981548498569,-0.6492893632261056,-0.8300031959799551,-0.9590063322420469,-0.989062187635334,-0.9851688464797399,-0.9753669149743933,-0.9645433219932716,-0.9492570891423775,-0.9165015474304182,-0.8174369321738317,-0.4473817003396303,0.18073081261600318,0.3577301083603721,0.15566770071513647,-0.21882334773677822,-0.49575717454263446,-0.6297506106564805,-0.6846614131218438,-0.6997041969777126,-0.6899382589585068,-0.6586495700258151,-0.5978634990506061,-0.5011554863231218,-0.3547945599797448,-0.11940636109763815,0.23490771886891654,0.5542845021819828,0.6721413602066306,0.6990750243585959,0.7194581179706926,0.7508721221736637,0.7922683684004074,0.8340181018381582,0.8682056758805883,0.8926575446364423,0.9096985858930957,0.9221296943007454,0.931466985462246,0.938560660570388,0.9443408114030273,0.9454220196337053,0.933352956179647,0.9031650111126848,0.8447243063009389,0.7383265039638865,0.5541414812807436,0.2992223525924759,0.045972848757373,-0.13581672514081508,-0.23485401268478048,-0.2807212011351346,-0.30352029640058714,-0.33111452893159754,-0.41616327046002005,-0.6413495399831437,-0.8982332746836786,-0.9603949694726579,-0.9471114858704008,-0.8932717104137271,-0.6406007513955478,0.2583270267738524,0.7286794037358885,0.8279015028155629,0.8446746797840251,0.8292853605944256,0.7930212953956082,0.7478668622475311,0.7278134312093025,0.7753220672248097,0.8621930851377063,0.9213387421731171,0.9460944884395919,0.9534748511978967,0.9528032009706866,0.9469875008838702,0.9369829937073108,0.9237628154517871,0.9070441699540657,0.8818609259981784,0.8266889154118251,0.6842478313275929,0.41304236642134273,0.1141596961362391,-0.09850544027661474,-0.24356699489447647,-0.3571717780324219,-0.436440172914749,-0.4605570906276547,-0.4030814814536288,-0.230239859895201,0.06531192766337938,0.37108246474148526,0.5636779570837444,0.639820797191652,0.6171711252754833,0.4162705195968176,-0.2517341582106306,-0.8087763403103481,-0.9307401704049962,-0.9627755441417639,-0.9719667477508288,-0.9693266666778135,-0.9629157271059964,-0.9613034190928632,-0.9658305307850076,-0.971729030331229,-0.975549233129597,-0.9765832887856607,-0.9744466460726603,-0.9681188507775446,-0.9568942986144161,-0.9426769114330031,-0.9292454523951393,-0.9183706922039054,-0.9077090706902247,-0.8937803860821616,-0.8750656490389105,-0.8481478522421053,-0.8052616785781922,-0.7133377640291787,-0.4089274459823257,0.3915464620962007,0.8089280015826559,0.8950136914245227,0.9204006068035266,0.9374810219027823,0.9533344317940561,0.9651882677695621,0.9707165149873499,0.9686057115650997,0.9506100007385928,0.8887130314434314,0.7376589548223136,0.5164244153612405,0.30157053829491054,0.11999950782558169,-0.044333648874446505,-0.20305004503895857,-0.3545481942808179,-0.48733397579008736,-0.5878294626581382,-0.6526139335017539,-0.6815059047677177,-0.6674616494477241,-0.5983447010112389,-0.48402141984640706,-0.3546755291329153,-0.2299840544575133,-0.1199034289646323,-0.02083721358369675,0.0981009554227847,0.31647551691946824,0.5727973581292665,0.6691328877773893,0.7279096546344402,0.782557652733479,0.8260365745970619,0.8601665577235446,0.8842464683134705,0.8923728163720769,0.8637057311340228,0.5429894685614653,-0.5814422379003172,-0.7347561416574869,-0.7212897813776876,-0.646492391016296,-0.5055549461293604,-0.32723539368624094,-0.1948795679823729,-0.15107738002944698,-0.1577608224486232,-0.15284424899332746,-0.07501030885553449,0.11024142188117797,0.34718737554267765,0.5214949818769347,0.5801215328779725,0.5056967304274718,0.2877949873038547,0.019690166137245425,-0.16941893535596142,-0.25994653265534745,-0.2780645388697991,-0.24176821901942389,-0.15193110080465272,-0.009099705028665583,0.15916008079792593,0.29311966576442217,0.3731347658950563,0.4217303404213511,0.46090048818058166,0.4973195045361909,0.5296703326609208,0.5516667155288161,0.5612226985985033,0.5652162592118425,0.5668509136542919,0.5640771243307809,0.546691061165785,0.5033815468556461,0.4325856757004052,0.35669907181316046,0.2948704462307594,0.2431360290706523,0.18957144589835678,0.11912642482395873,0.029371796831191406,-0.07021905782945721,-0.1619630845155242,-0.22551750196788078,-0.24709889852198041,-0.22181400606046092,-0.1510561128234478,-0.03319747846412845,0.14241646829551527,0.3835114599440684,0.5987462404743726,0.7182337370219876,0.7718755056488013,0.7788181337314217,0.7461405183575832,0.6810776325492771,0.5913974478432187,0.48788680274796026,0.38413443174590345,0.2902774434158825,0.2092888653334519,0.13432751053906233,0.06089680073027184,-0.007501566088407819,-0.0652041719686892,-0.11215863836886865,-0.15469385003647004,-0.20239741002834027,-0.2648699572322574,-0.34906710236742344,-0.4551988633217114,-0.5740224976327989,-0.6841572130231818,-0.7497278799373511,-0.7435023020236268,-0.6974644804938079,-0.7129255009320798,-0.8049477658033755,-0.886492293123403,-0.9287396253131138,-0.9433355631504047,-0.9406153109574599,-0.9238021507842343,-0.8929194697945221,-0.8441445289002156,-0.7555054666109557,-0.5599926147525537,-0.16018808808091803,0.3230250050998124,0.6356658784058214,0.7920784115081476,0.8647097667218553,0.8946796669341174,0.8991692322344955,0.8827367787731475,0.8395634667978494,0.751875090847553,0.5912330154135285,0.34154822581159466,0.05273656476639099,-0.18063334572319564,-0.3172979713046817,-0.38262844651905475,-0.41417828818165414,-0.4230553304353522,-0.40942886796444755,-0.3819130274763261,-0.3674003762946918,-0.39371078024708245,-0.45599156885487946,-0.52230642543167,-0.565215219863896,-0.5684926781384602,-0.5241836250855223,-0.4166628957336325,-0.24135363690693923,-0.03928169592588151,0.12665536865913105,0.21641671899127676,0.21137470251161733,0.09423643707068023,-0.11077382569064961,-0.3461349131534022,-0.5307070454423256,-0.5712971513415799,-0.47410562544418466,-0.25486819612520645,0.12491487447808301,0.5221747957346371,0.7199235815216762,0.782304031430404,0.7920562508231107,0.7745752499796562,0.720742591177762,0.5945140719177544,0.368809017187355,0.13137641419650842,-0.017783845157730287,-0.09081606661166265,-0.11779694052617352,-0.11413700084854418,-0.09392906209311253,-0.07318338453342153,-0.0671341948081272,-0.09375479576440635,-0.16418787468633048,-0.26847807338618845,-0.35952705388056044,-0.341144506380029,-0.013267288200586556,0.6072287791677887,0.8688000297447144,0.9290716745068168,0.9370758263421586,0.9062337250905942,0.5677761825422588,-0.7276354270205452,-0.8662890861226841,-0.8746560268956154,-0.8620320105106911,-0.8423451388292083,-0.8223762869995845,-0.8080291785174523,-0.8037668008515477,-0.8097507824453348,-0.8198922352921181,-0.827486019322836,-0.8132429024807287,-0.7116023558407123,-0.20786375848396302,0.6175692690263322,0.8605096084341027,0.9196821323970039,0.9347132871549123,0.9274909328675763,0.8895474151656558,0.7698172702053119,0.3876570095449783,-0.28916909174154226,-0.6786671391281854,-0.8233220702991755,-0.8786153892859435,-0.8883661581707859,-0.8254560184871863,-0.24678736855311276,0.7849716025579956,0.8979880303587611,0.8894228121037566,0.8260337594926184,0.6886870740931704,0.4700271124883646,0.23421481349082815,0.07186710686914573,-0.000452141564612473,-0.021994465727071595,-0.039767932179255755,-0.0867411745186442,-0.17014447054392795,-0.2665747573490692,-0.3383090736653134,-0.3565885361995726,-0.30640065364690794,-0.2015532071096177,-0.08261386575033723,0.01495945441851294,0.10091827692015833,0.21304301541624743,0.3485906072693552,0.42716989493854834,0.4081346586073285,0.3207095699519968,0.21732772775012202,0.13099955116594994,0.06711670705051795,0.02787810872294081,0.0297709550288393,0.14283931615809603,0.5197961501786351,0.6468387564649358,0.5753060446116322,0.5295791726129675,0.5008430625669514,0.47797289662074033,0.4450815723408759,0.38763759939943887,0.3020134329765354,0.19965626271214912,0.09522924495075602,0.009897270607346685,-0.05201421659385347,-0.09414896957175414,-0.11896250874619914,-0.1305775812271108,-0.13803424511109108,-0.14806421831956476,-0.15996398052013,-0.16233351522851827,-0.14198369575742867,-0.09381381258252344,-0.033416377687558056,0.017529210950555044,0.04710016623116118,0.05607663860470111,0.04875489063102349,0.032922719363926406,0.022004803104738287,0.025907673161503667,0.04186765510893025,0.057895419685663016,0.062356114026546235,0.048816791296338424,0.020802464855389325,-0.01124731251037181,-0.040396988269979395,-0.06236114453839887,-0.06931918649856864,-0.05467928292610153,-0.020228540377730617,0.01768902928112032,0.037224023935611174,0.011125303835888578,-0.06802978971599229,-0.1848235286235247,-0.2932291088553772,-0.36693785197932716,-0.40301109892192816,-0.39288483933930174,-0.3164473482018729,-0.18639868133983684,-0.06260255482648273,0.04776550604277632,0.14720249574126926,0.2120677800765714,0.20388617223131278,0.09378374862560346,-0.11888251529173349,-0.37029563102969576,-0.5805528251636108,-0.7244134165822488,-0.8041078437869296,-0.8098484279600203,-0.7192022672660203,-0.525857494763926,-0.23612377131399145,0.10825962721643806,0.40602698695565914,0.5988234218105497,0.707037714751624,0.7625961408294799,0.7868059715742127,0.7872546398228878,0.7583592165761383,0.6612030528397506,0.3903940394248969,-0.01612490891667745,-0.24117740500421955,-0.29446345402516017,-0.2788780687561326,-0.2466367470111969,-0.22510650451515193,-0.22509646201389372,-0.24776638736991516,-0.28288423503847576,-0.30211271280050295,-0.2612106493019358,-0.11498056919163867,0.14896347928015577,0.4504097257024648,0.6629834560029751,0.7396000875323063,0.6984934804036534,0.5718957596258947,0.38900910046548304,0.18795983158070328,0.007182106510554701,-0.15449380721600545,-0.3347596446000868,-0.5244118515433243,-0.6664460015329363,-0.7514861007117165,-0.8036435910064643,-0.8301236567619502,-0.8225520322619481,-0.734202692662778,-0.3448197741207978,0.41119948771899284,0.7277751706133345,0.7980229854872322,0.7837660376428324,0.6836966860671818,0.3588161118886106,-0.40746387556702607,-0.860199065034114,-0.948497121940793,-0.9472955763058964,-0.9234660867051893,-0.9038169209855458,-0.9017820750706314,-0.9066093996512906,-0.8874878571450109,-0.8356118857499066,-0.7685799479714246,-0.7056218365013498,-0.6597859841324983,-0.6374988754020956,-0.6433087303793745,-0.6781046806257577,-0.7301883280206152,-0.7693321580173855,-0.7459218555641299,-0.3366577122933413,0.8802114714149489,0.985651115515629,0.9937293827055674,0.9950195792949699,0.9953856174020875,0.9946711315061437,0.9905744396231677,0.974030982459078,0.9120733613812256,0.735588867976599,0.501294405768232,0.409611395634392,0.4744937783406715,0.595090152076167,0.6894330214700175,0.7316578828857012,0.7322170696784028,0.7085353717249911,0.6755511006517935,0.6426458711538893,0.6101286667847851,0.5667784647621005,0.4975884002940752,0.38204005774573796,0.19623933778693778,-0.0419150464426327,-0.24465140916612066,-0.3649297671910023,-0.4111571881475626,-0.4165732218246646,-0.451553027819528,-0.6051991349803674,-0.81095766533246,-0.9239037385087102,-0.9635566672829848,-0.9751472085164601,-0.9765129541845197,-0.9734897717544917,-0.9666671269038538,-0.9542078513083899,-0.9342434665490432,-0.9123234900780489,-0.9008428261650024,-0.9020253934483736,-0.9067210000738124,-0.9057134993125652,-0.8867857953328245,-0.7811495384177567,0.16665370796572565,0.9070147978654199,0.9661510512853164,0.9762242725099024,0.9771712083095396,0.9674247990402838,0.9109684353202963,0.6325531677555494,-0.00674552177224022,-0.4171831658799236,-0.5728954695894269,-0.6298964899253708,-0.6475443476708032,-0.6593961941677992,-0.7070924795523286,-0.7873391624046449,-0.7395419111942126,-0.6624671480884228,-0.5990539789372663,-0.5062334172407259,-0.378347856124378,-0.2618624892388528,-0.1940719403917132,-0.17494368495683987,-0.20470206310032943,-0.2920972312728689,-0.432977688606404,-0.5777346212527297,-0.6863601247329157,-0.7509416977869923,-0.7734940126319456,-0.7553149391873634,-0.6987623794949808,-0.6449448333145573,-0.6576146852932921,-0.7267131463821225,-0.7803093789414242,-0.7867276869112912,-0.7319249332490757,-0.5849183077219744,-0.4486682721331949,-0.7300492867003351,-0.9578217815009233,-0.9852432068576484,-0.9880580197465866,-0.9861799581108293,-0.9800070910662012,-0.9628425118150814,-0.9068404593886407,-0.6852483333767299,0.01789730914158418,0.6057971341452022,0.8017474515070013,0.8749342716262666,0.9093565065611751,0.9283688959768418,0.9387294717818274,0.943322003396546,0.9433078253140514,0.9409451174142291,0.9397014895873355,0.9419175916628464,0.9456809431164039,0.9465144954571244,0.9420291862255786,0.9299509457713813,0.9053240538405507,0.8588262193148858,0.7878216660340747,0.741094208655912,0.7837291235544956,0.8642335100417204,0.9184027856344839,0.9421090856421395,0.9448298783512848,0.9252563500520863,0.8456041848476855,0.5451178071174014,-0.07062390198058646,-0.4471954923090377,-0.5744348950693403,-0.6055836002580264,-0.5974762983314418,-0.5862241549417774,-0.5919764438370758,-0.6145895321781036,-0.644286708556837,-0.6793816696334151,-0.7194271738178339,-0.748372829400066,-0.7259726554045679,-0.6360390395809525,-0.5337407435291094,-0.4544431626021025,-0.3891656291965582,-0.3397750538205014,-0.31469097450734923,-0.3250708423514744,-0.3837711913380708,-0.5080683617515204,-0.6939910624766186,-0.8378460425765052,-0.8225974279871127,-0.744983766111299,-0.6911056745763967,-0.6620786886980355,-0.6391087721758067,-0.5970124911076632,-0.483033825948307,-0.22889366616448067,0.09845320464493533,0.3310731956079911,0.42442745918006247,0.4222128207204447,0.3878611316396468,0.3792012345671802,0.4110326681023374,0.4546141176102547,0.4679667686485615,0.40235546472616085,0.17699259626400962,-0.2559192616119347,-0.6370856337878157,-0.8143623947136439,-0.8909881125526268,-0.9308582187501938,-0.9556493129649982,-0.9710389268856303,-0.976227089604641,-0.9627190675180323,-0.8465690254197025,0.10560511255996054,0.7310029396768757,0.822558665898044,0.8431798060809332,0.8544466483933781,0.8575553630879628,0.8434550973958294,0.8018927623228327,0.7205227335025638,0.5864037066473844,0.41542976200585985,0.2724623376771156,0.22364396759408642,0.2869245293138281,0.4065943155559067,0.5109070746084869,0.5735700049433357,0.6043594438130983,0.623024656029567,0.6445702301880061,0.6735198682763875,0.70188481535479,0.7201149622732668,0.7173655463703614,0.6778068219703184,0.5727030755796928,0.3465407269532847,-0.033124241201465954,-0.40974856430068485,-0.6153337689684637,-0.6835263236318183,-0.6777301923291966,-0.6397229892526799,-0.61251108316585,-0.6222219989271224,-0.6620620993249995,-0.7151109715155486,-0.7789465774519199,-0.848335062751958,-0.9038754544851071,-0.925015131993002,-0.9100751638830861,-0.8663820029339225,-0.7823403552329263,-0.5491809524978747,0.16765202071455276,0.7896683007866767,0.935261274792841,0.9697226462204902,0.9795889204192175,0.9813686617515517,0.9791053196648184,0.9745270698869142,0.9669128013070569,0.9467161892931917,0.8930225539001316,0.7995268699849604,0.6893987337054829,0.5722409502076687,0.41981350877085216,0.19848658984859718,-0.09276453517644377,-0.41395896432154755,-0.6751287770502044,-0.8261624033942782,-0.892538681780195,-0.9138267621101077,-0.9072372580565853,-0.855395936476953,-0.6254377247416573,0.08758862491789626,0.52784803001345,0.5239206171198166,0.2002851023167193,-0.2724095111994614,-0.5349115930234625,-0.6199335646050028,-0.6267602702686724,-0.6125775740195476,-0.6169975669207893,-0.6553423754005863,-0.7134384023047808,-0.7719794586164855,-0.8217627643839173,-0.8599607414951261,-0.8883748675549178,-0.9079681601706338,-0.918215437931489,-0.9154381623928718,-0.8888557128134362,-0.8102624781733069,-0.6181411453082195,-0.29468070481317793,-0.000664567148378359,0.15909485131581433,0.20596459324259936,0.1860989436009883,0.15092407903728763,0.16314999035996663,0.25169844884179626,0.3924689623921874,0.5463489648835212,0.6468440817804159,0.6711740464929377,0.6605003140596346,0.6509048526223763,0.6517734211983298,0.6545934855953551,0.6524217730693964,0.6351012044561846,0.6044835029249939,0.5800831264416546,0.5718402231912861,0.5429225482408632,0.4494416621586013,0.3308692376183107,0.21871601108820649,0.10769368879618213,-0.008533972582666072,-0.11823365150342857,-0.18072856714516405,-0.14728365189115658,0.014034684953560075,0.2795265101718718,0.5142563625986567,0.5985890272841154,0.4777523260962036,0.08868724175177264,-0.3298856481985706,-0.5364325711430115,-0.5840130781818933,-0.5373186380736255,-0.44273147590991485,-0.3319847853729376,-0.21592287019024045,-0.06265254047290705,0.18766443268924715,0.5005929502497786,0.7290974777833887,0.8385180116098632,0.8740798738240277,0.8545909082529592,0.729759009132888,0.33763141842734123,-0.17207979353523253,-0.4118833183751863,-0.4682059323519651,-0.43438371290156275,-0.3532181297179424,-0.26001910182716664,-0.19142984277829736,-0.1929492273294175,-0.20974122601103998,-0.16841175362006347,-0.13934927502928385,-0.10719165390471792,-0.06428306133603974,-0.007615293056542193,0.057612196434736924,0.12258436840306182,0.17636620689355514,0.20499099979522872,0.19882417294339363,0.15718026854158837,0.08993684585546796,0.015548098990298714,-0.04081864835194148,-0.02019872284601669,0.1899411009427087,0.5687917583253744,0.815127213042911,0.9017167347624925,0.925585819594629,0.9186461273403159,0.8776545209797575,0.7737122068303826,0.5646475963089561,0.2590711980234867,-0.05469350368628474,-0.2998730368315375,-0.4562927886430296,-0.5358607864167443,-0.56039210360588,-0.5441380784644476,-0.497797162250928,-0.43692508013147097,-0.39223858110226256,-0.39624834856930785,-0.4491656884347714,-0.5189457698419737,-0.5916201330447995,-0.6725819487973034,-0.7591714249113192,-0.8372104861948919,-0.8903917794538175,-0.9136898135710068,-0.9089770220155537,-0.8764032136684625,-0.8279221313455506,-0.7874027480359631,-0.7682636814449584,-0.7723292395036074,-0.794121718416734,-0.8275402336380646,-0.8622493982288809,-0.8798453114158319,-0.8396275609242966,-0.6904342001750744,-0.45294286871729234,-0.21042663465724917,-0.01643340439554331,0.10723106662702969,0.16489154777913034,0.17823446107526064,0.17087123959242415,0.1632103487411003,0.17698312718742323,0.2372906621075004,0.34785261012837365,0.46350670817953016,0.5444029782199291,0.5961538095541355,0.6502392383923634,0.735243812017344,0.8453134153554867,0.8993961328334943,0.8329983395547721,0.6802569273737595,0.49395595512320767,0.3324240515822319,0.23519250722189775,0.20094194592940684,0.21425793317107955,0.2536702460119319,0.2974891980894008,0.33614756607939894,0.37294661993413075,0.4081157760201313,0.44257335181941315,0.4710954865198847,0.4908266078113756,0.5145894538042866,0.5420726922483702,0.5528505475791802,0.5437766952373637,0.5141773716584632,0.4606812498652621,0.3619111529858759,0.16805995453942224,-0.14324783875214053,-0.48055306152084465,-0.7225563838783523,-0.8453364123916295,-0.8786625333136865,-0.7880251884105822,-0.3221341002752584,0.26449530836107266,0.4324361191293477,0.34501960651202945,0.05536390126877693,-0.3204318750317641,-0.5858112690690255,-0.7253270987766737,-0.7976891910353701,-0.8407238334212482,-0.8728466575961807,-0.9005898363689374,-0.921199605998578,-0.9305967237053516,-0.9218156512339268,-0.8587171315689885,-0.6895077442968308,-0.42267013217706045,-0.11397700355505794,0.19440818265497184,0.4525250403888456,0.6266960041567567,0.7226960130182664,0.763856759100004,0.7636501514929092,0.7074126090230909,0.5410049878954114,0.19408966677016234,-0.2268801231544302,-0.5023532589182356,-0.6335373845436191,-0.6838994832730112,-0.6678353884173046,-0.5914327544943668,-0.5224260947771114,-0.4933366177844033,-0.47149608848014,-0.4285631703219769,-0.35347506427149517,-0.24700417682020626,-0.12059760519489264,0.0004047406008684276,0.0849000852882907,0.10973318788460665,0.06614167923627798,-0.029209220012643877,-0.1248584319567882,-0.16546236946047221,-0.13170001620178123,-0.045656344149096584,0.034473356583786946,0.05020323956447076,-0.0344407626362173,-0.20861221116308082,-0.4029881700184004,-0.544012256253276,-0.613827051090802,-0.6246084811764709,-0.5795989605246558,-0.45241216361205794,-0.21366651467915496,0.11810512976977758,0.3810815724567426,0.42023622306509373,0.20234290485830636,-0.0734619618826362,-0.1985543465115056,-0.21172368216937112,-0.1647025952125057,-0.07934875091923749,0.026634014668826166,0.11053083556366627,0.1655319412141622,0.24592221686147894,0.4127958511849869,0.6296499676774604,0.802754796098791,0.9025206028247776,0.95202996833905,0.9730635572737465,0.9805594311289513,0.982796138753053,0.9829335082279124,0.9819888427929927,0.9802125131409255,0.9760304733317469,0.9654473895431083,0.9338175273970758,0.7631502652308141,-0.21279117438101033,-0.6384215312081578,-0.4979877415360643,0.08598386874170011,0.5731606664025132,0.7168768197621896,0.7232011103607693,0.6316593918903354,0.3297314717383444,-0.3495921815191863,-0.7980828234961339,-0.9134406245265578,-0.9400808066039563,-0.9394854166415295,-0.9282056676557177,-0.9182179417726283,-0.9177481806956993,-0.922948722543715,-0.9239135053266412,-0.9112398631023686,-0.8777848014706101,-0.8353345552639981,-0.7969366458805313,-0.7722710540152544,-0.7598471500984925,-0.7457195999978941,-0.7179870336022495,-0.6832186878817074,-0.6521532388131906,-0.6319866485660018,-0.6250784491227521,-0.6305566920823035,-0.648288922907846,-0.6760580842747499,-0.7127878468525818,-0.7426969044248576,-0.7393320873538239,-0.6834503264161244,-0.5885592722900905,-0.4814312901095308,-0.37245642201618046,-0.26857474317343155,-0.17415440891995404,-0.0923770766047043,-0.03339684671423943,-0.002888115047949842,0.006154706010434825,0.0059697964554539535,0.008026925180928299,0.02977645102215637,0.088243422578506,0.20286283459841703,0.3690840972115024,0.5495555673335009,0.7056231022420111,0.7815284550421775,0.7527168407919776,0.6728605157939964,0.5963434998510639,0.5366994873327519,0.4943567977353264,0.46424627593825585,0.44367326352518466,0.429260194208774,0.4132397515154323,0.39044024504488856,0.36376203972311644,0.3423771130489297,0.33383147969623517,0.34749398913379953,0.3710668727901244,0.32883674807459,0.18498074018916957,0.035194308949627454,-0.10577328267794045,-0.24457814677280973,-0.3668098370657108,-0.4606275254260101,-0.5254110286897061,-0.581640729176118,-0.6491875543696572,-0.7278658367942453,-0.801721723242235,-0.8531632722819199,-0.8605626877533277,-0.8098474123004868,-0.710088692366035,-0.5765947595981569,-0.417963682359317,-0.24927486394384143,-0.0976446804594575,0.02071966915822762,0.11053264071774001,0.19106096459693986,0.28365371629401653,0.400298711901093,0.5307794570448272,0.6542172876897279,0.750793528657491,0.8119992440900701,0.8394073583932119,0.8379049190240099,0.8184565374597328,0.8019972601470938,0.8129726683169066,0.8470597405877371,0.8788677434842077,0.8951265171447184,0.8933547493698156,0.8694830249422981,0.8054964118102463,0.6585201993806191,0.37045390737929573,-0.007327542756802035,-0.30717701162468675,-0.5005538395983781,-0.6369918979201736,-0.7409383708643825,-0.8145233372593168,-0.8591095943710132,-0.8819366435206275,-0.8891893210154813,-0.8832579516269837,-0.8594757165043889,-0.7946197654143486,-0.5908989097189163,0.006085673584080158,0.5704501830990032,0.7256925785509283,0.6914232351495226,0.353646520638366,-0.5831504499213944,-0.9254672988258926,-0.9782759628658204,-0.9869391662866928,-0.9852114114554655,-0.9797420531017842,-0.9706255168739003,-0.9534512708280869,-0.9205686320744095,-0.8675445524860699,-0.8033366559799056,-0.7433718387163879,-0.6803077587197713,-0.5567661715724362,-0.23697455330537273,0.3374822119762285,0.7241542099046382,0.8627977492657238,0.9118029593613062,0.9314501336462128,0.940688490206828,0.9435951794692874,0.9373722111025625,0.9063368270049347,0.7807093733546322,0.37118625508208336,0.12666798748779784,0.24665432379041569,0.4147679623343479,0.5259289803116457,0.5978916514963734,0.6591203770130203,0.7241111350489884,0.7883850983368077,0.8434186144336397,0.887071280013326,0.9213197458588505,0.94647847114703,0.958585226750192,0.960821539186678,0.9567432296311591,0.9449450342025951,0.9181292434281055,0.8517604197110367,0.6391146208456882,-0.004130877447913867,-0.5838833413485034,-0.7642107433578732,-0.8121820594565788,-0.8118478747295172,-0.779320668168462,-0.7175000715262096,-0.638785028501699,-0.5601925664254329,-0.48682155719900744,-0.40006636794540845,-0.2513241820781944,0.01334433566436193,0.30690511856871866,0.528038744181646,0.6488031791091596,0.6908238268852223,0.6755449272265512,0.594416208570479,0.4169295476987874,0.12841817389372953,-0.17031323370811732,-0.3549483359857247,-0.4155096869041846,-0.38824030593348996,-0.310550403598161,-0.21473867561808302,-0.13410401645402364,-0.08735289589740938,-0.07864372234691443,-0.09402692025913971,-0.10299407995398546,-0.07973604341915841,-0.03801289321853494,-0.027631400887079542,-0.059860308939056216,-0.08591174294850593,-0.04950679385682266,0.08353786070622042,0.30371363271447666,0.5388291147828241,0.7173489828360237,0.8369220267495461,0.918644642831942,0.9694503555924087,0.9911481373625236,0.9908824937313404,0.9774209767558127,0.946102829702505,0.8277240003581138,0.1510396748560085,-0.6589067165231814,-0.8344436250686523,-0.8709184732892895,-0.8647060488001015,-0.8282456105491228,-0.7628132947753193,-0.6812798159928314,-0.605912295080596,-0.546984349365892,-0.5012235036200333,-0.4490207100978603,-0.34612892660252853,-0.11404497347720774,0.2743212337257703,0.6255607279729002,0.8109625009083439,0.894200033240354,0.9306863187744859,0.9396503798081159,0.9027829734385139,0.5998247139504248,-0.48733025854580625,-0.8051081980771867,-0.8600297155256484,-0.880520846550339,-0.8983695358569096,-0.9158071522347219,-0.9296197727831208,-0.9383936746293245,-0.943951184518343,-0.9474865261730756,-0.939718166842799,-0.8974539489866278,-0.8133858635237312,-0.7034441864467857,-0.5809097462104634,-0.4582904000852522,-0.3570513033522739,-0.29813079522797276,-0.2830297569187449,-0.2873098222736399,-0.25990031016943643,-0.11625133392370453,0.2504103219695422,0.678473461665839,0.878205287271084,0.9428041062896703,0.9641009014578505,0.9695451637831956,0.9627260326612355,0.9315732782063556,0.8340941067936547,0.6033635200172041,0.3152329632105932,0.15728240074142208,0.15312314427762955,0.24052502838007805,0.35122364692071634,0.44532661514221744,0.5212535873903255,0.586317173989768,0.642116286098318,0.6782802627181785,0.6760552717721349,0.6008652040206639,0.3765722940488807,-0.04355457752617427,-0.4266173512863511,-0.6133513711125077,-0.6730174547117831,-0.644440269599045,-0.498477437054509,-0.22392806327458178,-0.025680257080721112,-0.03901208620068246,-0.20666823206946425,-0.4305173183287065,-0.6193778907326218,-0.7457044141974974,-0.8208530684711978,-0.857284203596424,-0.8410457384748973,-0.7394853419183407,-0.5602008908623204,-0.3651824960394321,-0.2096580491013751,-0.13810921317935437,-0.1742988801030999,-0.26485974593305717,-0.32331475740780097,-0.3032239332398498,-0.2095022962866791,-0.08516056956535202,0.0011991697705922518,-0.0022144540393602245,-0.10234379445369388,-0.25576801384109155,-0.4127423710843234,-0.542166051040387,-0.6324915431561638,-0.6891444161655823,-0.7217987233742694,-0.7424732314750992,-0.7602421064063274,-0.7830493600830766,-0.8115078309374416,-0.841171946268209,-0.865599800682911,-0.8750137385327192,-0.8261731883128597,-0.7110525524774717,-0.6101411331556665,-0.5477900821678429,-0.4839933487752551,-0.4024555800243689,-0.3374885199562558,-0.34706286959544913,-0.4707656266000253,-0.6664670862046016,-0.8024621597928271,-0.846406115088394,-0.8311187399441541,-0.7658311892717294,-0.634453671659603,-0.4288855188687445,-0.1793751496662427,0.08228125792668685,0.3753278032081617,0.7112384957533834,0.9423891981554513,0.9375171187474347,0.8627706047056032,0.834476552817954,0.8415998300158537,0.8512077334500353,0.8430859794996688,0.8057955977340285,0.7294926307324715,0.611257863242544,0.47128348260897573,0.34476817076719374,0.2510747925858697,0.18564103108268568,0.1120529640716992,-0.10666496487251492,-0.3251829016671864,-0.4183433211446296,-0.4830709875466032,-0.5201575743383547,-0.5196550867966182,-0.47029879451123746,-0.36972420080593305,-0.23673533507350095,-0.09806731472424184,0.029183156812921447,0.14298258895217497,0.24725152540504436,0.3499390564143817,0.4545416670676963,0.5554827019068689,0.6403965849280943,0.6881382145155375,0.6457719668459505,0.4539912891186826,0.20087593999973377,0.02931479185633455,-0.03416769816618817,-0.01811538715561194,0.045611725705500455,0.12667796901101822,0.19707715648359034,0.23293569136045653,0.21624125344445785,0.129305826025736,-0.031882093426560745,-0.20169744034113968,-0.2878961314548655,-0.2903464726909073,-0.25490398782578855,-0.21871603274268608,-0.2019360652859617,-0.20959022186340948,-0.23269153583240476,-0.2533318883069351,-0.2542738811524012,-0.2172107142932083,-0.13267120449720818,-0.008105129354828385,0.12440163465699575,0.2306660656302525,0.2956540092382614,0.32254329913758323,0.31655827304730333,0.2871193090826352,0.23749390893452685,0.17052735233613237,0.09119473249146061,-0.009812882759391768,-0.17616654592186726,-0.4454542452043051,-0.6962780526817599,-0.8073847422496803,-0.8432146392081017,-0.8603468870874805,-0.8733913987722963,-0.883957342845608,-0.8904890746131815,-0.8901852350693721,-0.8776443778715473,-0.8453066116800956,-0.7760086282239329,-0.6299161474902404,-0.33510182077796713,0.10384615468138048,0.4780492899392859,0.6908024418675232,0.7945268855161841,0.8373290468846812,0.8422521053254448,0.8172960570016579,0.7738406379469519,0.735983230918251,0.7311606229275313,0.7617357846758114,0.8076867471916808,0.8444241316901419,0.8513873455819694,0.8194824344763894,0.7372084117302986,0.5962576369639768,0.4272813765886671,0.2800174582461722,0.17800825124614686,0.1275464231041594,0.12553087227729307,0.15641260002447005,0.19756611786509992,0.22321646017549768,0.21655115451603116,0.17413895649954808,0.11242750811863514,0.05345409851503363,0.014341201352370802,-0.012470882541987268,-0.016493906205733166,-0.00265422980856717,0.018930796846103305,0.037216619380734665,0.05316634692764547,0.05822387622511921,0.04738325531663312,0.00790271249837345,-0.06789422925910625,-0.1884133297191177,-0.344052600523475,-0.5067910134790312,-0.6448388931073549,-0.7369185956723338,-0.7727747221213013,-0.7503472560324767,-0.6531589964622826,-0.4600272149719251,-0.21171947196839916,0.05106379468159482,0.27959733002574283,0.4087107350307913,0.438786148739712,0.3988398034495739,0.29343320951944424,0.15610065745268384,0.036759203660379,-0.036387022432124085,-0.059612100880933626,-0.045094720483954354,-0.023908783000834665,-0.020436383805270304,-0.05925336084692019,-0.1388749561037276,-0.24891231671168965,-0.36457748092719267,-0.47250973303120775,-0.5574474045251865,-0.6093361678594617,-0.625798614669008,-0.6162855842520212,-0.5938433838456706,-0.5804237101313787,-0.597906503009813,-0.637118389690747,-0.6522228787070751,-0.6141577292831938,-0.5248135507056831,-0.3948856130425149,-0.23453982153956324,-0.023841545896158584,0.2709687000611757,0.5718825199057658,0.7597681966742642,0.8366813785370135,0.848621060393635,0.8202342168068973,0.7538946283001742,0.6331870185642156,0.42028233287449346,0.047874026005461943,-0.4494311011226901,-0.7888909652768256,-0.9184223634171483,-0.9381825252098566,-0.8381330753521865,-0.42942053908650163,0.15594345990385372,0.4601830995305003,0.5653324060707802,0.5641861587155494,0.47053863114192,0.2723795624387905,0.014416938878577184,-0.17708269246573152,-0.24085539935674824,-0.21683536507877377,-0.1887455029508905,-0.2448125137499224,-0.44154337067400173,-0.6973100744554656,-0.8482080169314562,-0.8985385298391035,-0.8904728747305132,-0.7948509588756417,-0.45387412495852436,0.10948163805059367,0.3749989835151663,0.2630083026677636,-0.21915103939372438,-0.5951180051847097,-0.714786660338397,-0.7388685861203975,-0.7188772905434163,-0.6373536278952813,-0.3794359257345825,0.2594408577611976,0.7347270566406395,0.8650571575827203,0.8949370578318464,0.8938903726381296,0.8739730036476716,0.8288476555234728,0.74455894102332,0.6363933701184108,0.5508166927946287,0.4872005439901861,0.40104159261843625,0.22331746582788894,-0.14076535701855025,-0.5906966858657496,-0.836464326448199,-0.925516930398199,-0.9589981944117987,-0.9732418649572318,-0.9791310998073596,-0.980315914985339,-0.9776795927688917,-0.9710124245733764,-0.9588590921288568,-0.9364121683136937,-0.8810226036299851,-0.6828178062330635,-0.13676450012354163,0.301055757517168,0.4292787222550092,0.4240375343046392,0.3703352976900882,0.3330578408837018,0.37538578718286486,0.5079589165529699,0.6605310160211236,0.7655637279808983,0.8205921499970694,0.8492651254791032,0.8691657508105728,0.8888315657438254,0.9099770173408345
