0.2292772409947551,0.48213118707777547,0.6667689774910311,0.7768406339851961,0.834324999484515,0.8574324143663624,0.8564601631848695,0.8329418602306328,0.7813308934529645,0.6977232816865427,0.5787906660339522,0.40303481345629194,0.027140743417944542,-0.7494395561217999,-0.9120363147486977,-0.8598212627358811,-0.8131780383715909,-0.778392688816628,-0.7591391808633563,-0.7606868223067461,-0.757103542304225,-0.6132364587796251,0.09270461428753217,0.7265684970178399,0.8836953635872429,0.9275590976847558,0.9382965812625309,0.9276673869081262,0.8793856959447813,0.714375998070173,0.2360630420419098,-0.33921911795148096,-0.6090074980726535,-0.705646946601205,-0.7326315445081918,-0.7256476431368759,-0.698652396739837,-0.6592506273816358,-0.6133918597888371,-0.563405704761551,-0.5111389496364716,-0.4682140070299903,-0.4522280415802385,-0.476877458478527,-0.5378516376484944,-0.6108648079629969,-0.6692277103273453,-0.6954327125534056,-0.6826258599618562,-0.6262792253544972,-0.5099801622752533,-0.3101929398036367,-0.067930069361427,0.11276190768724437,0.2227167081891818,0.31057337071518326,0.403022525081252,0.4968373567189778,0.5685007914799799,0.6133720502510802,0.6217495670388156,0.5693662246141278,0.3634650483498467,-0.10439009936327814,-0.5312532570100501,-0.7132063989698862,-0.7832420501613985,-0.8088799752118907,-0.8132893430727947,-0.8068335049165252,-0.7971902461610059,-0.7967320235553511,-0.8166533956178844,-0.8501512059947675,-0.8763501336795139,-0.8770922485618013,-0.8397759594246723,-0.7496676690997264,-0.5911453420541355,-0.3819613496710787,-0.16540848648052178,0.04022809603529576,0.22278142935612055,0.2534114246498798,0.2115658368901819,0.18752547661133318,0.1898396015025541,0.21071731958543027,0.23509319599587994,0.24650307840974583,0.2232914864790642,0.12683236316303156,-0.08399649932257999,-0.3659034454517161,-0.5815499864070326,-0.6795183349780399,-0.6852448728541888,-0.6133603619238728,-0.4691858466508225,-0.28332570959909575,-0.12465299479831578,-0.025155122168177398,0.07148155906599983,0.2568298709080831,0.5478057751442343,0.7972599546248519,0.9158987759700215,0.9598348084098627,0.9756693129364902,0.9815719534540946,0.9823275312863269,0.9742342310841925,0.9422972333599164,0.8777396060807124,0.8149826756288346,0.7888853991679218,0.7541248717597825,0.5012743082843947,-0.19951415544886483,-0.6793659643790616,-0.8534272983932475,-0.9239933990979572,-0.9577039944822753,-0.9753395303883998,-0.9840327416902455,-0.9889287554288095,-0.9891690827750137,-0.9848377221256832,-0.9828614458642054,-0.9871682342035714,-0.9912592425030834,-0.9308617362135421,-0.4814662052251711,0.17217332937755975,0.5317270405342196,0.784089924017837,0.920610345734204,0.96882867191646,0.983731767590263,0.9877941572181438,0.9874853569311879,0.9828846404723703,0.9606034060338771,-0.15246235952122836,-0.9889609069011926,-0.9957317151686038,-0.9933996180950126,-0.9871665501388024,-0.9735859357017574,-0.9442052007754181,-0.8839189852254794,-0.7754712460310877,-0.6226021929519387,-0.4681279484492411,-0.3578764654611723,-0.2976984834010099,-0.25961056214743433,-0.2108042582276483,-0.1448431819560261,-0.0891626695751695,-0.10081473275081519,-0.23324377755695086,-0.4489145709773884,-0.6236326730458718,-0.701152709403636,-0.725901552083265,-0.7318320094938807,-0.727062419921798,-0.7122289238276056,-0.6893716030296505,-0.6630770278102671,-0.6355323368030383,-0.6090551147955123,-0.5819770230982594,-0.5592695295376261,-0.5527853105118502,-0.5724127958443644,-0.6049610881018422,-0.6174045844850895,-0.5767761372791185,-0.4929930565655931,-0.40285257831710547,-0.3507547698418669,-0.34918522747171654,-0.3770235961082675,-0.3728392269458668,-0.3283433334711374,-0.2712927315503827,-0.21769974863832262,-0.13294772683070094,0.035054828953657434,0.3093769814654681,0.6047200055120461,0.7849354267947702,0.8596597364211477,0.8793418048010494,0.8606295536381027,0.7895682958648778,0.6335865304679783,0.4315225438026677,0.27685089301143073,0.1918918486210125,0.14845314898715029,0.1394403517309035,0.15147113829380976,0.15770014973709076,0.13015104502494299,0.040655861316177294,-0.11035352143558777,-0.2777526741326675,-0.40462454182099766,-0.5109356186890291,-0.6128446559772341,-0.6823192868653211,-0.7239596388411272,-0.7475355983875461,-0.7429343689783454,-0.6966291052006215,-0.585559345558142,-0.3849024569809745,-0.12447967996172307,0.06642039092316486,0.013980859076291511,-0.20066045928285098,-0.35208807905361894,-0.4082290821354793,-0.3893467032548763,-0.30677985173865596,-0.16295931685506113,-0.011834760486725085,0.048262312182390854,-0.0848157453422495,-0.3187441272662651,-0.41526911284550894,-0.45131288703920436,-0.49160333445630794,-0.5688885882573839,-0.6749751091514771,-0.7516793619139457,-0.7589113317078549,-0.6847580260861276,-0.4821051847196588,-0.11860329908514212,0.22882577887233663,0.4290043184220126,0.5404760531665591,0.624949967843735,0.711550892964239,0.7964240874685674,0.8594507379244941,0.8948836614568946,0.9052863131902359,0.9014599395313608,0.8945047985570462,0.8911894770032293,0.8947967173405286,0.9071490375999178,0.9271286063131933,0.9445244481143673,0.9468739240889263,0.9250974415100602,0.8903283713437055,0.8660951421303977,0.8474165715378066,0.789472131942168,0.6574928632337039,0.5027206062844166,0.39021087183883907,0.3387312831085893,0.3408414083837619,0.3726313275890295,0.4026050234057735,0.427125824217604,0.4578663517339663,0.5096606476059901,0.5407027785815706,0.43596098297091407,0.26225016326788986,0.14470476760917617,0.08468708550688964,0.052190245821418936,0.013228853166901467,-0.0726978337563725,-0.24270776684805762,-0.4957094205325751,-0.7230912856532603,-0.8358391091217887,-0.8639000336627588,-0.8505113073077282,-0.8151499714975569,-0.7617419217017788,-0.6690926978310915,-0.4732327516282396,-0.11700466790078093,0.2561213963664399,0.4684274226243728,0.543505182423634,0.5459933475256538,0.5347692851369232,0.5655392431286456,0.6423169808511394,0.7204826162986062,0.7733454823700943,0.7993000338334896,0.8027696927499928,0.7858794047432641,0.7504406257103772,0.7079612384733918,0.6760153122666975,0.6423303375644323,0.5372427120916128,0.24343766680898268,-0.25482201121264614,-0.6585877304465488,-0.8411358281327626,-0.9106440601655218,-0.9351198187065173,-0.9376237858443588,-0.9251135132261185,-0.9053936251627783,-0.8939580480985764,-0.9011590182730671,-0.9213761232958295,-0.9363415989443119,-0.9204677608674604,-0.8422243464494532,-0.7145439660915254,-0.6528759326271449,-0.7163021192439172,-0.8013691531648777,-0.8249849233917089,-0.7849174351573507,-0.6803347757930683,-0.5124102156258343,-0.33099308423775864,-0.22010351208024503,-0.21698859492422798,-0.3072544008063024,-0.4458456362927192,-0.5697070384382833,-0.6316054912657263,-0.6073015216886033,-0.46453758830782566,-0.18491473443127493,0.13774616128109926,0.37464994393353823,0.523519249552115,0.6248365438199365,0.6816714050600968,0.6819971224805975,0.6568996862549757,0.6281966808679207,0.5854362231658036,0.5147379465583158,0.4063426673039743,0.23355148606956327,-0.052653614525772066,-0.45584789420354926,-0.7777887394183894,-0.8974119172693886,-0.9269961355997095,-0.9386167330382977,-0.9466114287117984,-0.9448151720710315,-0.9044282664033153,-0.4026612146254852,0.8430938799622107,0.9476076712144275,0.9630983789027651,0.9666498594143755,0.9678734211561201,0.9695699187767775,0.9719192815070039,0.9715476266607349,0.9607427491333926,0.9298138301796519,0.8740102343706829,0.7949257587389499,0.6974734612048179,0.5827383245253197,0.4524084635662966,0.32722407788603475,0.23423000238755534,0.19283751120397705,0.20452182090566523,0.2730628561290977,0.40721778248949525,0.6029024484076603,0.7928157418336372,0.8413170712338323,0.7406026277556346,0.509065365354336,-0.23948586467333832,-0.7766868987994341,-0.8172632247060474,-0.8021647722512357,-0.7754212790270408,-0.7364783500638946,-0.6889696114057589,-0.6475678822662261,-0.6198653994722895,-0.6038416747054695,-0.5931607873613586,-0.5862173414793562,-0.5796186492251881,-0.5743462062747483,-0.5740945971467027,-0.5926479146762288,-0.6592801325871434,-0.7931116174680662,-0.9315285077005803,-0.9545213472333977,-0.922310758600549,-0.9069239355413562,-0.909504040071173,-0.9183674330461593,-0.9236931487633294,-0.9030552115679501,-0.7391960882293228,0.46982818868983767,0.933203845134405,0.979278952420932,0.9898215732707071,0.9932089203199531,0.9912354425431206,0.969231506128533,0.8546362284349609,0.4897015702356947,-0.002916827424905023,-0.4103797434894099,-0.7081958586117129,-0.8585531584679273,-0.9062107990775744,-0.8903694625391624,-0.66692848606895,0.6131089435817497,0.921296155675809,0.9569068179684018,0.9622420188875999,0.9583937325633878,0.9478945733665203,0.928253348283792,0.8934753194493718,0.8335893268625814,0.744387910424235,0.6402580312617924,0.5144550018159557,0.3086648089118372,-0.016277959480233434,-0.3741088178439465,-0.6263012646203301,-0.7572745289315763,-0.8101655790781995,-0.8284166086117584,-0.845113936451175,-0.8676514333437158,-0.8904806069388204,-0.9001795965295061,-0.9002271865217905,-0.8990001704048869,-0.9030334078223908,-0.9111072223487483,-0.92388301815965,-0.9453537034789009,-0.9697763781801072,-0.9771717925824508,-0.9580332142623312,-0.9205604990194004,-0.8748723173598455,-0.8255611877898869,-0.7746759235016936,-0.7258963139855076,-0.6872917308953199,-0.6666891945997232,-0.6700277441598065,-0.6960711212098825,-0.741260907952919,-0.789469209682452,-0.8087798329053224,-0.7643190642827303,-0.6635367607304534,-0.5555309339450004,-0.47333677174464345,-0.4156052001214434,-0.371439643664003,-0.32945920698070097,-0.2846911356449704,-0.23893843896624342,-0.19559731674923958,-0.15851453874573035,-0.1245978566544854,-0.089236893396009,-0.047517985243931624,0.004350283237273067,0.07090893737319696,0.16962741673231288,0.2814361323860762,0.370458266431168,0.4171087047996775,0.4405373348729938,0.4644905571428457,0.4979742403179538,0.5331562139383417,0.5491278074746107,0.5302977657964623,0.4804863184232998,0.4293818167492196,0.40375879052757013,0.41807825078216176,0.45856772737521023,0.4680359124562598,0.4280440880296968,0.38076811741003774,0.33514996016529325,0.29402926209914704,0.2600880216174278,0.23918645351275195,0.23919341908583494,0.27037319093528467,0.3337514994276657,0.4108439985992825,0.48523215190790925,0.5457900652696135,0.5869797679552524,0.6025513954541417,0.5837444957808915,0.5300321591416273,0.46161023897422626,0.3976258062261019,0.36352975825921585,0.3630226629592364,0.3824559554409901,0.4078877328256991,0.4210780109659208,0.41294996374321213,0.3748460791548192,0.31521571553446004,0.25721229669812323,0.19172888999407514,0.09584391330148476,-0.03463597855475252,-0.16715963947854554,-0.2735809894444683,-0.3712347393695513,-0.4800628834736299,-0.5644705347611706,-0.607802433569995,-0.629111589250842,-0.6412168742792372,-0.645318639198824,-0.6500759792011288,-0.6616747392493861,-0.6884697839157512,-0.7326341109049931,-0.7905761996936209,-0.8448150000457411,-0.876801001588116,-0.8891087518491141,-0.8957255486303399,-0.9064596306647492,-0.9222120313122453,-0.9357475544245396,-0.9424070558992153,-0.9413050051298806,-0.9284702190968125,-0.8893634825086323,-0.7656753402550764,-0.3236917666099072,0.46433018576206536,0.7986302497850913,0.8901098811921581,0.920494798880574,0.9288952673250425,0.9209672075083357,0.892796808958291,0.8468318590755811,0.8035153287771376,0.7776386803574192,0.7654408971064969,0.7541503177601678,0.7195381503340992,0.602803740429416,0.15698140099454458,-0.6640912518707682,-0.8944050995218873,-0.9326715383424404,-0.940596007178753,-0.9343176841647465,-0.911583797079492,-0.8701930501250451,-0.8103764814288299,-0.7284903861720778,-0.6222127327326566,-0.4856626827830868,-0.27270605156764927,0.22886617216871719,0.8422844422712719,0.9761391000719314,0.992351462147465,0.9941446937622189,0.9933141920061026,0.9910528915907568,0.9859455099702541,0.9717814909734682,0.9081853743454679,0.1809818187573846,-0.8490483829424079,-0.9481301403524112,-0.9655556625058737,-0.9604892455842277,-0.9104502623597727,-0.5734742417140449,0.40673893053186516,0.7377281830174905,0.7931774020814232,0.74356147882846,0.4533293502292516,-0.31869162702473136,-0.7159605215856575,-0.8261552245232355,-0.8768949272870928,-0.9090691580402411,-0.9244348698787339,-0.9190873842686362,-0.8933414032062179,-0.8531527798297694,-0.8096920867824938,-0.769956409409687,-0.731853482929074,-0.6923054698923234,-0.6599906021851591,-0.6454428518361595,-0.6607849563234351,-0.7123080227420037,-0.7895165295611682,-0.8649037764237159,-0.9171555951811118,-0.9432815737407684,-0.9493434826782141,-0.9390238276954125,-0.9060042867820268,-0.8204344772102744,-0.6100482063053869,-0.22851762336248063,0.20371241985806549,0.5609831516610299,0.75703057784681,0.7824954097782464,0.7547898572221933,0.7159589313644306,0.6630556142447797,0.592614011846322,0.5120304290465891,0.4228395909546913,0.32045820333203556,0.19514961694626817,0.08139941317346587,0.08158933632229916,0.3486260112636825,0.7639440539695181,0.9192595289655158,0.943724988384547,0.9357559661466478,0.908520193076647,0.8504799566262867,0.7573826769288711,0.6547980230306975,0.5824324063036794,0.565857175854406,0.596265324073456,0.6505407938748002,0.706884411501178,0.7521458660474918,0.7846542321444744,0.8078132628294267,0.8273124177836844,0.8613986949067739,0.9177732617078118,0.9616239518255532,0.9693713385505507,0.9577832869537465,0.9388129142841447,0.9048484062439734,0.8343763895670171,0.7123193634171012,0.5606986827393241,0.4192495700593676,0.30657232553600783,0.21873546081114748,0.14068853823989508,0.04732657415576944,-0.08601186228765426,-0.27964574932853103,-0.4649207691930853,-0.5214648146798623,-0.48153326148856734,-0.41503821861332263,-0.3415633263723966,-0.2574415552943629,-0.16864299580057684,-0.12630764400226,-0.1412091912841892,-0.19948322704198257,-0.2873303777364807,-0.3915190859138618,-0.502450873305644,-0.6122564328715154,-0.7206352260625514,-0.8279437043752919,-0.9129158641417521,-0.9289666852292165,-0.7847728826071967,-0.1630095148516387,0.4997852095751488,0.7096720608295033,0.7481384375111151,0.706413933127805,0.588882322185517,0.38774002930323115,0.13471086318226058,-0.0956026116074163,-0.25681928133140486,-0.3519372395474139,-0.39918204168966775,-0.4117809127325832,-0.39948319062248894,-0.3669419648314769,-0.3116076356354344,-0.2367521172495773,-0.1697931167222349,-0.12692749202987302,-0.09790684670365331,-0.06481976555987298,-0.019481791236075678,0.03734865825077939,0.09112301264771418,0.12345917129098004,0.12516866814191932,0.10274504617638748,0.06731895324737866,0.028492932266008193,-0.0037535713486150806,-0.017191591845138313,-0.010376775272979482,0.009844959088377158,0.02432185767730402,0.0016918255183262197,-0.06193700435622578,-0.13956467066001146,-0.1490162404758047,0.04067665453768729,0.47597652126942297,0.8060596811792466,0.9125771572970796,0.9380719447316287,0.9440425710048848,0.9442271618298954,0.9383580162689753,0.9213826892305411,0.8839541898026013,0.7983243360008893,0.5626577640471386,-0.0068648395028534205,-0.5274770570055202,-0.754019620329451,-0.8553492128254904,-0.911051558975187,-0.9462126842223494,-0.9665737717643701,-0.972192910349176,-0.9662864657482377,-0.9568757821182953,-0.9499553286718302,-0.9456892526117816,-0.9293297815143323,-0.8514225359691079,-0.5630334323933565,-0.017277862699632874,0.34770519455405663,0.4982524369155589,0.5793405668481778,0.6633321781097008,0.7531544040199497,0.8222297884947041,0.8619360164052354,0.8800674654875855,0.8860360744246696,0.889618111544856,0.8977772639166407,0.9086090698322254,0.9151979393614816,0.9137109252178663,0.8999733397519998,0.8594045698863764,0.7224917231217074,0.06021293303416305,-0.7863501225057798,-0.910643032549958,-0.9158333550964056,-0.9056014915832518,-0.8973124374305037,-0.8888034723444738,-0.8627912515616041,-0.762109799398161,-0.32104167669877426,0.46568252585185027,0.7252071572610479,0.7451526193378597,0.6432462047985736,0.41144338601250713,0.14720723483936543,0.0062528941692804535,0.00842017411403737,0.08879782855636835,0.17509009975538706,0.22256637583759697,0.22674073880198328,0.19669910243569863,0.10435579864268692,-0.060740730802309274,-0.20345145000269416,-0.2878230442533279,-0.30276454100961975,-0.2416984648866472,-0.15271248668775503,-0.08482182272222479,-0.051680192078791994,-0.04552149155390309,-0.06741105078480418,-0.12196414455205176,-0.19525484489281342,-0.25613717646271283,-0.277932312431691,-0.2510842201853328,-0.17769598639313405,-0.08753680257701613,-0.019725098982216426,-0.018669336475079006,-0.10367016838934733,-0.24314228703645804,-0.37315830434933545,-0.4613877065578943,-0.5080382752317711,-0.5237795871519247,-0.521168141193164,-0.513451061467376,-0.5132118515518745,-0.5264692163594279,-0.553291782617287,-0.5840252126632742,-0.6122979730862035,-0.6356845297002353,-0.6558527487559912,-0.6733750384441951,-0.6851295210402432,-0.6700781721812408,-0.5473100076841645,-0.19387443316394504,0.16556237240416777,0.3274853991255419,0.38071887548209166,0.3908876264816496,0.37596123924358765,0.3362758482037268,0.25992679940845825,0.1418806918446131,-0.013237775129501904,-0.19832459922276321,-0.40441517230539614,-0.6180607625838019,-0.7935835758812863,-0.8879282767682456,-0.8920402507049041,-0.8011580433255706,-0.6132279955367798,-0.4072709204685058,-0.2676442350519885,-0.19100944223122202,-0.15297872167515927,-0.15063590962845377,-0.18945737836178975,-0.26786637385683915,-0.35219785577385365,-0.3814025207860955,-0.28494750404258684,0.00824015736541993,0.39180215820687675,0.6373356432733888,0.7213443087849877,0.7114164815834209,0.6527258894441236,0.590308035848481,0.5597595826014299,0.581815766221245,0.6634318288910364,0.7736772735864437,0.8607948090261646,0.9085989426330013,0.9286159490166859,0.9333782660472643,0.9307442848406238,0.9269940276030069,0.9254536491032458,0.9213726156440625,0.8976392626240328,0.818848534366332,0.630272144432664,0.3302083621483602,0.03424231980490963,-0.1807198701684647,-0.30642685974567146,-0.3422245140442864,-0.27892013404625193,-0.11194604214803353,0.12127213699700184,0.3290495284266649,0.44656283399592206,0.46170140681436495,0.3915518864524687,0.26505872129682057,0.12369852593983188,-0.003227485749970404,-0.114498212450089,-0.23702756017935966,-0.3739621000110055,-0.4865358564156809,-0.5411800411390868,-0.5362445049961482,-0.48986688855010585,-0.39631349468767074,-0.3493272310766165,-0.4034996666466152,-0.5350053237250887,-0.6762067070123599,-0.7494299164071626,-0.720650470405427,-0.6383424987450718,-0.5531245841299314,-0.4875316216184704,-0.47622294024667977,-0.5920044212766447,-0.822680538667163,-0.7912112021832766,-0.6944391182894797,-0.6592050217574444,-0.660767053136899,-0.6839594270271301,-0.7140737492565059,-0.7310390997886299,-0.7270852469504266,-0.7019074327645987,-0.6573102487008183,-0.5968119413170201,-0.5212200107992403,-0.43368669310588753,-0.34427305815504256,-0.2818683158264251,-0.2840310126170985,-0.3355112367716808,-0.3953358248147114,-0.43382957726015076,-0.4427818145641293,-0.43709533249063637,-0.44331115368112506,-0.502536129287336,-0.6509625645469721,-0.7968265455423285,-0.828362255165012,-0.7652973995246246,-0.5416603769695897,0.04788271006184126,0.589755747017383,0.7759503494472466,0.8248773771854188,0.8224642899175065,0.782233020866464,0.6846044449918577,0.42796743106993546,-0.2727925909547899,-0.793082950091675,-0.7205709853850285,0.11265155242433579,0.8115255897188748,0.9311147592174345,0.9576487939232692,0.9583922978816054,0.9422018459558384,0.9060483518798851,0.8333533684757469,0.6932441090011511,0.47763274116317245,0.2535438829845617,0.1001461346082565,0.04804450984551527,0.08948831714000915,0.1722316733227632,0.2329451514971844,0.26060748325572936,0.2527371045805816,0.18943124181201823,0.003307811389847278,-0.370783525795595,-0.7064260082510488,-0.8410956064318774,-0.883297098379415,-0.8985487733351034,-0.9050097128914639,-0.9049419431856197,-0.8993053620113609,-0.8883649574332191,-0.8722588441179604,-0.8483426438109043,-0.8101966260927201,-0.7453539306939004,-0.630366244483109,-0.42316891067777646,-0.05454360329398788,0.4993461749632566,0.8760775471749642,0.8596795590278312,0.6976667422029402,0.5234361912868043,0.3912021351955551,0.32803621989718235,0.32318677022634223,0.3348735459955548,0.3257723384857207,0.26120949496330853,0.09672646867296032,-0.2054136793502421,-0.5726924871945881,-0.8273485290938378,-0.9419802829885053,-0.9800654542988401,-0.9810172458055907,-0.9597982864789062,-0.9212038699331856,-0.8654314424065197,-0.7878705636169243,-0.6701318929634348,-0.453188539557587,0.023068810919035444,0.6066071685850052,0.8435514664082938,0.908746330489046,0.9292658327355122,0.9386631425441065,0.9464726343723479,0.9537226000964164,0.9574469128178336,0.9549030619853692,0.9422874012465006,0.9162036330030865,0.890769368479752,0.8934212812600004,0.9024520779127392,0.8845065281413269,0.8324624924206273,0.7378338277202683,0.6005936089082914,0.43927383571270917,0.2716813830334558,0.09552584948150547,-0.0789281171765333,-0.20999888750108825,-0.2551313854646432,-0.20018705880997145,-0.06787891409443626,0.07203095766856253,0.14991668402909167,0.13224411136648806,0.010110937248729262,-0.20017524875169104,-0.4327676469963777,-0.5846654732298409,-0.5888364886567499,-0.44389925550744574,-0.24076286628543672,-0.10065598959568672,-0.06239856205351849,-0.10165106964870471,-0.17968868416959302,-0.25995889064030786,-0.31764987586942517,-0.3473304177843309,-0.35501509536835374,-0.35070668523669013,-0.3434227628399754,-0.3350780522125669,-0.32631711389191503,-0.32202838403200473,-0.3257467116799736,-0.33368549362764555,-0.34232954081661326,-0.35302472870530194,-0.37019708276899016,-0.39547210979667835,-0.4219666127456197,-0.4452943227500614,-0.47066405157042274,-0.5070851310803853,-0.5585079163138175,-0.6191838747376205,-0.6625928755268706,-0.6624439131912602,-0.6267209808104184,-0.5721303090696106,-0.5084465735489303,-0.4420151554151274,-0.3737034058286059,-0.3016696751113131,-0.2284474304168068,-0.15022807363212082,-0.06836116472464074,0.01875117764343117,0.11741647303835721,0.23274040314306985,0.35842160495050085,0.4844055416452289,0.6020018207568842,0.7041768744276433,0.7830302523344872,0.8305447946124934,0.8467148051904625,0.8470352817529254,0.8410388099838018,0.8225341961117872,0.7663440790452685,0.5870682200090184,0.04480582815576933,-0.5772503473375727,-0.783031977210331,-0.8423638815404846,-0.8702570287895025,-0.8952825704262025,-0.9243699230636261,-0.9509862014560617,-0.9622354104124208,-0.9545683915677001,-0.9348479445011153,-0.9093982536416211,-0.8750818883341288,-0.8160335058732395,-0.6984581178155111,-0.4120389923450863,0.2526033839832247,0.7497310496661413,0.8899050972972572,0.9277184479531876,0.9230595577433706,0.8427339930117564,0.5846449606831035,0.7905983947479664,0.9564093726723873,0.977128901162915,0.9792210857870205,0.9760156933647686,0.9664614222122037,0.9409441867115292,0.8608322312478732,0.5662723068368042,-0.11045765725584407,-0.5712720011985527,-0.745000176394045,-0.7891573865161983,-0.6885223798068898,-0.2827327875903817,0.19292263565860046,0.34181076430957497,0.25956572587432714,0.01979489116286437,-0.2552023996118369,-0.41236733019518024,-0.4243418155150845,-0.27918145562968477,0.05164077758880803,0.40917255898119914,0.5932798421790432,0.6559196148494478,0.6949858039503679,0.7594265203803823,0.8277687988681526,0.8740109926742331,0.8999643646011297,0.9121495421285836,0.9126532865354996,0.899221825279855,0.864035340484695,0.790798568966012,0.6521846565354612,0.40729603531333264,0.06772290159954583,-0.12843567436677103,0.12879012888644537,0.3455813905965928,0.40876273788944467,0.36268582293981555,0.2053360774329578,-0.062385511364402776,-0.35639005124430495,-0.5727108520850871,-0.6980139475604327,-0.7695695216491634,-0.8170586614711844,-0.8555721626810237,-0.8885541666824932,-0.9171202181346004,-0.9359695626028399,-0.9345137910296795,-0.903307611517473,-0.8433737568578634,-0.7750624534949767,-0.7281030070713523,-0.7159494032777709,-0.7307754144108006,-0.7475531920018325,-0.7349168001108418,-0.6722296634398246,-0.6009459634440963,-0.5805000980938805,-0.6019076103235644,-0.6269961327779898,-0.6177418867494845,-0.54943159835146,-0.3840722086406228,-0.14616128872370368,0.05170254096216453,0.14050688862555,0.13818173920019597,0.07515786561738066,-0.02114169956737678,-0.14735423798988478,-0.21358465308185776,-0.17691546970317784,-0.13308489807960583,-0.08624916071104079,-0.03185894599191815,0.012546754065825345,0.02665251565258317,-0.006578436936198248,-0.09330579852566731,-0.20780247068583604,-0.27332453353371133,-0.22834491292016415,-0.08391127422549569,0.11384391807857147,0.30353927628508115,0.4377386076100304,0.4769471324719167,0.3768500558820841,0.10616350184712704,-0.22441454983885797,-0.38001953138789346,-0.11090245212569277,0.6017516618436964,0.8819322544842189,0.9395261504715597,0.9478048690589369,0.9294090236638564,0.8496524381182955,0.5208209967147979,-0.21705695407739958,-0.5983999091948455,-0.5178389692683925,-0.11203054265777011,0.14993280511140866,0.1737801297767506,-0.06495616455806417,-0.5193700746478297,-0.8098269003648823,-0.9042564730574545,-0.9322706464143816,-0.94403024977956,-0.9542427979998735,-0.9622582721429321,-0.9511778200762984,-0.8916707920083449,-0.7829438193846288,-0.6701003421082649,-0.5655159570175856,-0.43918707371656934,-0.2725389349739998,-0.0870745359585773,0.09047635799337521,0.2719599371235692,0.47774673061794026,0.6822339412500549,0.8175452512716969,0.8784520886105439,0.9086276797811127,0.9329836096778896,0.9515737671180893,0.9604787315826591,0.9524297609070592,0.9036197437055716,0.766900496204877,0.6298806222555088,0.6354767047686436,0.7071057124447618,0.7650221767620661,0.7874948122377303,0.7692236871608563,0.668012146470468,0.34142294629013376,-0.16164188275934477,-0.43115866683935733,-0.5069364303392527,-0.4803960757997991,-0.36942611087563393,-0.16768850412948758,0.08854395408307665,0.3216307914722046,0.48677476449646506,0.5825483465250371,0.6242462896945803,0.612777116514765,0.516111114941671,0.21123490895026215,-0.4305344573584522,-0.8688414006680799,-0.9686203342742126,-0.9699397049274973,-0.9374195194325348,-0.8906593243230263,-0.8417254230421425,-0.7987521159240225,-0.7651068551134403,-0.7455655203149079,-0.7328993176394363,-0.6825938594848785,-0.3548290267565182,0.45026961262153864,0.7609282352360738,0.86181838244753,0.9050917562706605,0.9120580192040952,0.8894788165489327,0.8489794862955496,0.8057083149838257,0.7697879046624132,0.7437368025734783,0.7206671061876377,0.6806038181366524,0.5369687640281068,-0.02902076179625683,-0.5598124577626616,-0.7382855484558833,-0.8291366633626434,-0.8868833604169494,-0.9247720808845403,-0.9500828173629997,-0.9656548128089889,-0.9745490305851165,-0.9795799288746909,-0.9826686048599703,-0.9846672095007117,-0.9845249541954015,-0.9735255599143483,-0.702846284561331,0.898654007543247,0.9654420160310969,0.9761313827337392,0.9791195909001491,0.9794396916434179,0.9782100429124012,0.9759201066087857,0.972892247734354,0.9691767088739226,0.9642795584440756,0.9575795114306103,0.9519418067061497,0.9517897503108542,0.9502964357803029,0.9315996507719293,0.8609396054145544,0.6281509684820642,0.10212106538117333,-0.3462982194140297,-0.5214656925605384,-0.5816435350301843,-0.6036990438009179,-0.6275867574403654,-0.6885531182457013,-0.8072943946163865,-0.9200851987611468,-0.9317086220327627,-0.8850552012084917,-0.8419189410010783,-0.8214800678943758,-0.8280389250464943,-0.8594881213287063,-0.9028617735662129,-0.9367941721249943,-0.9486894187336852,-0.9446219020531994,-0.9333750699828142,-0.9177320439353702,-0.8967874687724077,-0.872681172066186,-0.853804732082519,-0.8471165917076776,-0.8556435835820013,-0.8783173613443689,-0.9053997338150653,-0.9210339107331588,-0.9280366818339042,-0.9500565782015394,-0.9717598117750957,-0.953452858346865,-0.9157073933138116,-0.8881506770838166,-0.875832049765706,-0.8756032095986122,-0.8794427611775018,-0.8776297435102277,-0.8638114710087497,-0.8385583958931696,-0.791930071986236,-0.6421899681572057,-0.3260143339655549,-0.08447292072180632,0.028319272826664108,0.08110425847829345,0.11156748381227298,0.13072323139522737,0.1342582112850675,0.10789068712705166,0.03220552897838902,-0.1218480457111597,-0.3837343853569477,-0.6746793073168013,-0.8409526577251875,-0.8976381659436647,-0.9134873011436371,-0.9167001180402358,-0.9118786342649824,-0.8953434672620526,-0.8630525314722493,-0.8126133880496109,-0.733774940600723,-0.579881361114662,-0.182763278210012,0.47392054181178,0.7996511402856458,0.8941118428403183,0.9232881086398532,0.931180898857226,0.928657420849501,0.9165734489557243,0.8924309874871821,0.8525715387811783,0.8008122281698671,0.7532958290954185,0.7148371107158954,0.6701335148117274,0.6031443971311324,0.5004452402859003,0.3478408661388609,0.1514662669883792,-0.041124660154173424,-0.15563730153169616,-0.18829550290325778,-0.17362935163320645,-0.15874984898006314,-0.15965306789807548,-0.14358732148897335,-0.08881520493131077,0.0024768687352183095,0.13038799600478831,0.2893322900554795,0.24663801271714686,0.09141822213590443,-0.03783513392269539,-0.16470953889398923,-0.28633815313319083,-0.3952323657674067,-0.48167235449381146,-0.5357762083748887,-0.5478873542067064,-0.5065915675735252,-0.4109829095749963,-0.2862554562072719,-0.17624781128682834,-0.11256515344022822,-0.11061834813514061,-0.16608943045703348,-0.2489338348693798,-0.31148488059110335,-0.327317095970472,-0.3026352539878875,-0.2518173291728041,-0.19216404423278272,-0.15431530551759506,-0.2216348905442655,-0.45375802418341166,-0.6734958405924757,-0.6465246261292404,-0.569831594429932,-0.5273033159029392,-0.5038662576208861,-0.45284614024231357,-0.29462498400899434,0.08224027289841365,0.5524633302487408,0.8029206047142422,0.8971176614117372,0.935383982749457,0.9437342638328107,0.8245460990031112,-0.031497303201892125,-0.5566027462296073,-0.6694184612396774,-0.6912712695657164,-0.6776517033576778,-0.6356497419301742,-0.5616328819697964,-0.454517679711775,-0.3151349470158976,-0.14587495238624218,0.05197815267708915,0.24078932027168953,0.3330036680752653,0.21755394022403526,-0.23553382884817875,-0.6849260272637264,-0.8479859716866922,-0.8944902101221667,-0.9020829805043904,-0.8814278514708097,-0.7719201964037959,0.05554476971166784,0.709800647344496,0.7872409855699104,0.7973340362194005,0.8115585236620303,0.8636879908326822,0.9241087667945347,0.9563334877679238,0.9678902166821113,0.9700000067986422,0.9659605494780921,0.9537604538661082,0.9263517426201047,0.8650024541966813,0.7175108219934341,0.3644545896989966,-0.11701156019769413,-0.3833113074082438,-0.4626916661163704,-0.4300396921385951,-0.2865525534587866,-0.02771894310931769,0.2682442300245416,0.5012878405545329,0.6507596438589269,0.7390375727120575,0.7902406345244682,0.8226889031260042,0.8454575011324833,0.8607923613905186,0.864037716974484,0.8083245301504305,0.25740339954474684,-0.6553745532657387,-0.8446667070453968,-0.8951700416883639,-0.9152024188233162,-0.9250960770545448,-0.9321899644395771,-0.939522384221558,-0.9494366174347997,-0.9629757367421629,-0.9782507704899674,-0.9833630908580184,-0.9633360286825756,-0.9236526849548795,-0.8792764881632634,-0.8184225711132624,-0.6953193093518345,-0.44866312487427373,-0.10059158858953164,0.19435918693285337,0.316530140959148,0.204248979325806,-0.14459254749669748,-0.4517166713064121,-0.5955958105465147,-0.6461519366406885,-0.6512423427770181,-0.6229567133335087,-0.5620159227030883,-0.4747190449576161,-0.38619206987045673,-0.3203426048410848,-0.2904475634944782,-0.2885320458627747,-0.28261344723640824,-0.23856837558959232,-0.15634741219819437,-0.06095685726258569,0.03773472567744371,0.1610863533860056,0.42269715367282246,0.831193127964954,0.42798665082359294,0.28418580332416704,0.2280552035170711,0.19827655743233769,0.178126650719529,0.16133986885383447,0.1384453882620992,0.09083760601891062,-0.009807305707929516,-0.19493406428433288,-0.46416983878633544,-0.7274695535586632,-0.8856529063477941,-0.9500929760789574,-0.9696442994108371,-0.9717507387053909,-0.9656822883237495,-0.9471257148891031,-0.8718928169401108,-0.41834341119983537,0.5014850635796686,0.7728029636889506,0.8428432234808849,0.867652682984374,0.8765025288832362,0.8765381232930761,0.865581968560519,0.8353362917585377,0.775771956052124,0.6872650517491088,0.6020581533001126,0.5709193613776986,0.6470180918292441,0.8017735491312152,0.9059427703246402,0.9425205072075099,0.9510500515331348,0.9494345481449492,0.9426813788664139,0.9309853488246803,0.9115764613401814,0.874274897028983,0.7839983899454432,0.5051694421049582,-0.18063460228703293,-0.6822984277560569,-0.8357618650596369,-0.8837081099656595,-0.8991842837477347,-0.9022002496213706,-0.8996911147560208,-0.8947995528920717,-0.8855593556149747,-0.8719346651940661,-0.8614430450899957,-0.8537505156228012,-0.840610152191909,-0.8172310764852291,-0.7855167917458298,-0.7515242655696981,-0.7208373385204963,-0.6987355338068295,-0.6872003177472045,-0.6851180339837091,-0.6923520228520735,-0.7126949844168481,-0.7467648757522757,-0.7907792845086983,-0.8384821613496884,-0.885336781368578,-0.9130839383529693,-0.8052887642400178,-0.3326076040388225,0.20441285312733767,0.5604911476279918,0.7683129093922784,0.8762349066431835,0.9309377011583366,0.9604129510494623,0.9768007347129284,0.9703554210480142,0.5393014323228823,-0.6955324400165556,-0.8472515329691326,-0.8676537076517532,-0.8594810310205431,-0.8500639198274174,-0.8569883472705174,-0.8807396443395974,-0.9077779331051201,-0.9282551534034614,-0.9425589661846232,-0.9532211126069231,-0.957351063810967,-0.9509940378300425,-0.9388274367046403,-0.9268798659460009,-0.9074540444039231,-0.8605492680928817,-0.7353548855168426,-0.3547581296626112,0.3871782360957344,0.8336239239672157,0.9504113672355261,0.9789757181550822,0.9862528920421696,0.985803681135272,0.9774460577827682,0.9495670414992818,0.8590790466532675,0.6150297952704139,0.31559906131035126,0.2742053515425963,0.4624426559707043,0.6326292400974283,0.7042992628139756,0.715929254938732,0.7160198255017646,0.752358393027461,0.8442357563533684,0.9176144957792038,0.9516450751482393,0.9673181150567419,0.9741036221614214,0.9756069539595355,0.9734522404510854,0.9668425393357297,0.9522533777257608,0.9246699252668856,0.8791142231620036,0.822750728876016,0.7729834528859235,0.730248944155771,0.6772024191552509,0.6012475844188002,0.4946852782986135,0.34030293946162954,0.11834615524391845,-0.16393324155647038,-0.417813285811919,-0.5541512487543162,-0.5918659211223398,-0.5941750426754173,-0.6081619620088284,-0.6679055598036954,-0.7736291358256254,-0.8640176024395634,-0.8950896901320292,-0.8843242477510336,-0.8531880822737441,-0.813625041139345,-0.7705314908576156,-0.7245229768281208,-0.6628698839743301,-0.5583452736042955,-0.4132107136835277,-0.304942753614253,-0.288360695784263,-0.3410525500795642,-0.40350703978006613,-0.42976460160011826,-0.405276143866964,-0.3470123150390701,-0.2700712915241155,-0.18737374885365474,-0.11434349315798874,-0.07872113115705012,-0.09718864842138095,-0.14682104786816902,-0.15624283450721968,-0.12166564974499007,-0.07017322965848587,-0.0037071006058985575,0.0630066362638745,0.07695552757268494,0.019896619006814536,-0.06637441785587384,-0.1414042390838189,-0.1779195229793206,-0.15699496273091526,-0.04236320651170973,0.19305222484031592,0.4811412089382315,0.6874725602610966,0.7886084167749918,0.8366431802765526,0.8379886402843485,0.698024214909634,0.42330823712179855,0.17325291083212058,-0.006519929228336658,-0.14406350134576468,-0.267085222620952,-0.37221532938702645,-0.42270365403484894,-0.43105425964317756,-0.43502627407707,-0.4537286267713763,-0.478149264507134,-0.47255597958405865,-0.3592778718121271,-0.08989956731910244,0.19826145262993639,0.3584715918695225,0.3900947669027076,0.31155820798052397,0.12417801584318697,-0.14087463116776983,-0.3909656539638958,-0.5474469481262306,-0.5959363026404704,-0.49345635883082495,-0.2082511217730522,-0.034340288358534754,-0.0495675157886415,-0.16350278245850702,-0.28975983418760737,-0.35693627118841414,-0.324054320435227,-0.1582291325635781,0.12360228760585416,0.38267059825793254,0.49962602037967874,0.46487675950969415,0.2674546548131712,-0.07356153132711062,-0.3815848880832924,-0.5363006979982565,-0.5661294712255067,-0.5077248176639577,-0.40970438928132374,-0.3609507868152089,-0.3843449969233406,-0.4359320653456297,-0.48037817346815764,-0.5082301677569094,-0.5246337718682542,-0.5393768374889529,-0.5618298439576549,-0.5831146586160382,-0.5548453276515704,-0.4297546201743312,-0.2458425855536872,-0.04814948726501272,0.1453286971481594,0.3067602110696388,0.41652280804455627,0.47157570833269546,0.49474495340264146,0.5243291764157466,0.5754969140496202,0.586631793721278,0.4993505344311299,0.31229856147069684,0.10518577814913742,0.11547628286394596,0.5908701528876582,0.8819769641152346,0.9228508022905223,0.914352601667984,0.8824152035423624,0.8167907207233798,0.7029246712463575,0.5601423821167654,0.4479210123077002,0.4025910857518074,0.4152611128463872,0.4552087541537179,0.48368281198724583,0.450863601642204,0.2818202421015103,-0.10129852555747074,-0.46649101726367515,-0.5236994379251596,-0.29754055636846155,0.1246540857588992,0.4337192676729304,0.536445188552506,0.4823787066567434,0.2454698692061524,-0.18637000987070695,-0.5676510359026133,-0.7491980852032721,-0.8142895733173418,-0.827085928161946,-0.815420668462553,-0.7946221690494298,-0.7788102608370786,-0.7746046365663983,-0.758857484050648,-0.6711957681571107,-0.5328113235246116,-0.4241328571482123,-0.35821610360694567,-0.3188552420461979,-0.2871081603860133,-0.24867395189671176,-0.20284652744245438,-0.16585265764811669,-0.1677356872464076,-0.24699096367643847,-0.3507410931617108,-0.353562661898775,-0.3197874618909193,-0.2829676091385301,-0.2455024865500998,-0.20907624792426382,-0.1773327432476003,-0.15032126288958716,-0.12548084171023474,-0.10478490253526092,-0.09112725255655144,-0.08534803138145482,-0.08690965586051892,-0.09157383011823214,-0.09078337952840683,-0.07021646998501496,-0.016529450087939598,0.06021198866076289,0.14057583170170748,0.2191895872279321,0.2961149844528625,0.3802678097961107,0.47241762774231666,0.5510069368348832,0.5713017933356752,0.5226281381978096,0.43899150062201625,0.34956231436062085,0.263910136268916,0.17982954825471908,0.0900380709561171,-0.00914110492152614,-0.10890316349373942,-0.1989850901290805,-0.27409948703213244,-0.33512568968114415,-0.3866881088186693,-0.42338623743447595,-0.41214527839274206,-0.2796395343391021,0.0999657935067905,0.6081398949146972,0.8609808594180707,0.9421562309972301,0.9677795012906005,0.9660182480623747,0.9304943823873033,0.8558345380828819,0.7701320638368286,0.70586485826452,0.6698667315856169,0.6554234009276051,0.651759827377392,0.6404334903865249,0.5935285074675559,0.4437716946000642,0.04334155778974953,-0.5372092538169364,-0.8358870531708729,-0.9302547631662795,-0.9610935977089148,-0.971165487386829,-0.9712360247697127,-0.9613940802256626,-0.9276254589524985,-0.8007323426868879,-0.34091826729493324,0.3975922835931551,0.7658513551560285,0.8811432362485127,0.9150073482311375,0.9160442124359565,0.8891085595636699,0.8153784169859769,0.662683455893427,0.42763526678389796,0.15145678874703428,-0.1346093282852751,-0.3879212304080616,-0.35880508938726696,-0.09457092679741932,0.06786751011173667,0.1254102411603317,0.0971932114040725,-0.0012322517649287178,-0.12701213430662098,-0.22411778351472222,-0.22556219943992142,-0.08499058276036578,0.19761411836667458,0.4923818129723273,0.6539536705277215,0.6231387215177717,-0.2767541929425686,-0.9193497612699681,-0.9544547264773829,-0.9557239079766917,-0.9483268752433054,-0.9269223930748685,-0.8664575329357406,-0.6928567028812991,-0.42573494468247697,-0.3598105622664963,-0.4739889232726296,-0.6031720491928475,-0.6988116813077538,-0.7723591126197735,-0.8261705451233468,-0.8580718805738353,-0.8701559968458141,-0.8660063366879791,-0.8313774044262724,-0.742695301908912,-0.62423518734143,-0.5528568564260241,-0.571230909714251,-0.6168234236608998,-0.5772465167384832,-0.3703161918777741,-0.08155614902845808,0.1575043925298776,0.3420019331705449,0.49558979414268206,0.6196850500533937,0.715054352190566,0.7873903638616995,0.8394359871335807,0.8720376906297124,0.8949733106317155,0.9186839486555638,0.9437897906651744,0.9639430804086324,0.9761333247583819,0.981096423302677,0.9767410413173778,0.9513841799524287,0.8492548445265418,0.4036601868703356,-0.40441212853518976,-0.7159587442558897,-0.7960460609933202,-0.8127002991877684,-0.8038172609082432,-0.7795608491168783,-0.7422131202291611,-0.6907128836419093,-0.6034846707014647,-0.33945833640645257,0.48729407602075436,0.9158692037217692,0.9674110699507601,0.9731636401808214,0.9691438504700609,0.9577509048910359,0.9325375201186022,0.8703157827956537,0.6991158476468975,0.3269404854994788,-0.04555950346379113,-0.21424103783316828,-0.24528244327947313,-0.23159881331758936,-0.24186881444083322,-0.2962180770367799,-0.3783109630442163,-0.47482674750863646,-0.5756893204806566,-0.6689935563415007,-0.7443907383707733,-0.8048350363555667,-0.8541218384907994,-0.8943151075683583,-0.9238748674454919,-0.9419978531756724,-0.9496504125387228,-0.948072714822612,-0.9395299149546428,-0.926790122576948,-0.9139213991400776,-0.9042467991097862,-0.8944163991429259,-0.880134204310156,-0.8628117903127629,-0.847644658111287,-0.8402347243361163,-0.8387225666184669,-0.8410177176944192,-0.8480162407621894,-0.854316746828338,-0.8504799316342727,-0.8189298945644943,-0.7110091814583802,-0.3701274318900577,0.23147501326414746,0.5076772922549264,0.47269891306968925,0.2182250162347815,-0.22118359816474728,-0.5893223836698237,-0.7638652769868491,-0.8339936415603998,-0.8632265681871676,-0.8777021395679232,-0.8879722821068348,-0.8966094814537117,-0.89949424542148,-0.8797412620882304,-0.7574991048825284,0.0037317649461944156,0.7600236298717609,0.8887476021138181,0.9216033233684132,0.9358266516489553,0.94535523276761,0.95336945569095,0.9599582842262834,0.9626330928283433,0.9517098867038344,0.9043357168300122,0.7990994000900936,0.6772116899367956,0.6153147346753908,0.6047547771357548,0.5754241882986124,0.47989695620377437,0.29438171354164616,0.020216406467214343,-0.28113786914355915,-0.5114571241596622,-0.6351001610992782,-0.6851907088898782,-0.6955579014533195,-0.665693552493961,-0.5435260287867159,-0.21626822981569324,0.3057371870772695,0.6740800106185444,0.8347362343760824,0.9037824197455667,0.9356759304116913,0.9445398550294509,0.9044920453896808,0.5960471530149797,-0.23748476822485787,-0.6098745659509979,-0.6966729137332025,-0.6884898602557171,-0.656155085232059,-0.6419194451348996,-0.6433538677582694,-0.6294800599125319,-0.5491329917092058,-0.30597935751289157,0.09742188685187726,0.39839235431214715,0.5284379646882935,0.5630214299548304,0.5529872492337949,0.5202166753810538,0.46015425875983035,0.36266430506636654,0.23138840758528356,0.057216483243456136,-0.2278280376708351,-0.5918908405446873,-0.821114505432835,-0.9156999642812425,-0.9516857787174624,-0.9628610289430045,-0.9579198661378131,-0.9299457718464129,-0.8456497460863291,-0.6021650653270374,-0.11191569359481128,0.32914488482102,0.528579925344911,0.5679894325023316,0.49646480018064143,0.31047660232605645,0.038554922668031136,-0.21344191163974682,-0.3893001271738396,-0.5029728925930332,-0.5826887412413319,-0.6488436435424092,-0.7154441669791992,-0.7835584611192186,-0.8396783936249086,-0.8562040489935896,-0.628301680874615,0.7378138399994743,0.9029842841865672,0.9165941039164924,0.9018460077887132,0.8590838326050818,0.7690531645695665,0.6214134196082,0.47807803175217994,0.42738409422419943,0.4683792677517445,0.5429598842573309,0.6066297341035044,0.6466899072017461,0.6637415575455675,0.6547402617042949,0.5951558413124955,0.4301980795162724,0.11629171164155977,-0.2330028085699325,-0.46831885453469435,-0.5884831434094647,-0.6343500147917653,-0.6321303968300933,-0.5977812734251007,-0.5432149940702166,-0.4818012313025262,-0.4340734820971764,-0.43223157947648877,-0.4518646369034483,-0.418148089597699,-0.35556159580251584,-0.28145334919123083,-0.23187167491815316,-0.26269224257494816,-0.384963217131734,-0.5483334671772209,-0.6988522734291832,-0.8100717316855715,-0.8847719954503203,-0.9308915549632472,-0.9448370920790932,-0.926540709868393,-0.8894194850055833,-0.8504213259111784,-0.8178625462553278,-0.7959888420009629,-0.7836278668910013,-0.7720358792647496,-0.7478549479476139,-0.6985048276164114,-0.6178432503252539,-0.4962808178372316,-0.30360665798161934,-0.054546911654125015,0.11955933073315446,0.15227992026857629,0.10443024267951859,0.033446339931565795,-0.020468985704455506,-0.037762103650266415,-0.023833124841734242,-0.00573362545985827,-0.0664739708129495,-0.30364705632830447,-0.6314927218426041,-0.8264986037481841,-0.8986778958695915,-0.9193951660108213,-0.9146935223725761,-0.8795318964738891,-0.7789237332027368,-0.5885151384898129,-0.5570099298415437,-0.7786134276928687,-0.8335411180312444,-0.5699385563345111,0.42226136919959306,0.8186180893219833,0.8982621489002454,0.9184831466480732,0.9166190210167987,0.8971172979232894,0.8561592394815151,0.7924133565770939,0.7402265293972706,0.780136674710223,0.8825144187514089,0.9506323374183446,0.9786397342126089,0.9869253511504171,0.9795658506805387,0.903003980477143,0.04190342654117612,-0.7160273807377939,-0.8079217744736552,-0.7970232131076369,-0.7400416269109156,-0.6284313965939958,-0.4242943977369726,-0.10264108306937376,0.209265810487374,0.37424840396401055,0.41806167691673596,0.44724980675207093,0.5376713499890224,0.6709613351194952,0.7745547568319588,0.7686052193276011,0.28337658226411744,-0.6894566889563783,-0.8914000822671355,-0.9382060343034316,-0.9545598454414578,-0.9584117847866581,-0.9504292594008783,-0.9130223928437395,-0.7285782055982847,-0.01562056266844238,0.46360171955893786,0.5024375472184266,0.33118149289320303,0.00985617917907768,-0.3010238721290554,-0.4774504864245344,-0.5467530265766612,-0.5614424086326397,-0.5511384555059134,-0.5183637413429831,-0.4457835034118937,-0.3237487371178947,-0.19552898463842106,-0.11767465732631426,-0.1038767834850177,-0.14726078873191534,-0.2213670149678878,-0.2537347458989606,-0.2185906810338562,-0.16750908962316766,-0.13424741104176602,-0.14969945171785998,-0.23415958400162099,-0.36321268376680677,-0.45702641125238846,-0.5113190391590573,-0.5605287682067456,-0.612845770750011,-0.6575979252827054,-0.6739515043779195,-0.6308662431988942,-0.44208850472609446,0.06593769726222698,0.5563007952188629,0.7215840990721063,0.7543410934421887,0.7379244088391905,0.6937222182186935,0.6308216708053604,0.5628009776614403,0.5073437046021745,0.4722824755830162,0.44864298983871326,0.4221849372416049,0.3884451084623249,0.35974280489503474,0.37268412805124035,0.4547612830956504,0.5826084951124247,0.7009569019773192,0.7776918870366856,0.7996218049098265,0.7427743462834662,0.5654369554671883,0.28096980871401284,0.04017098758244986,-0.03888444160095917,0.05631313972900825,0.28369250948541136,0.5046125740522861,0.6140735067622801,0.6285578411368119,0.568160838920871,0.44472973881081374,0.2714549310934414,0.05411399130006332,-0.1824394168257926,-0.41314935788833124,-0.6102681103443215,-0.751697894501519,-0.8363116897419897,-0.8809666083728812,-0.9011548510405247,-0.9055087673340698,-0.8958541723387232,-0.8673671946954098,-0.7993879319398093,-0.6626164006866823,-0.47014590632371167,-0.2841592078497621,-0.1285454627789247,0.006082671651372607,0.12058167419870174,0.2135741984260629,0.27656085078373666,0.30310926592903153,0.2902198925639991,0.22228145240164304,0.1006263071583718,-0.0330329134653509,-0.12872803862656357,-0.17386112040996413,-0.1830337804569082,-0.1861639172940462,-0.23958098901212943,-0.41834382266769654,-0.6631170020850552,-0.8030174947936718,-0.8432091390187856,-0.836345734814059,-0.7934934200239354,-0.6975049627980684,-0.510990673515571,-0.19419121265477962,0.20359854789060156,0.5339085081722024,0.7264095463664036,0.8156911561680639,0.8440301201501308,0.8431248827148867,0.8437020482947034,0.8637475898388404,0.8917159549563566,0.9101265086938339,0.9092633511206265,0.8753782003426367,0.7602348211374453,0.5228095282060339,0.3957881860856228,0.569978527751626,0.7929728270895201,0.8971206242692539,0.9358928982611177,0.948966605046047,0.9458853912528858,0.9021277160520447,0.2768281825473783,-0.8787961846956464,-0.9499946093878189,-0.9581668832288193,-0.9584250679655905,-0.9586376863489202,-0.9607057649954481,-0.96304228177167,-0.9584925311932604,-0.9316715645394711,-0.8446663295049774,-0.5975550375955154,-0.1248902832838462,0.2361305406194511,0.3001914741081688,0.1865203429826858,0.19762993476764903,0.6081630179705855,0.9110558254875062,0.9705716543470714,0.9750625774730007,0.9554100953540703,0.8743101821158912,0.5790265701542516,0.1042588470157986,0.013867645481194292,0.30297984302508796,0.588491862040603,0.7047462983051181,0.7187687970200817,0.6564766406224546,0.4645011222482267,-0.038666378222548016,-0.7159548721206748,-0.9557942181284879,-0.9849753772785533,-0.9658009754228015,-0.9318186178918726,-0.8950426896088187,-0.8648322059018332,-0.8334443453945284,-0.7691453494087828,-0.6123432501284726,-0.27695258094848585,0.14289599154224994,0.3838816801508262,0.42762349918553744,0.339739056016248,0.18758358654773422,0.06306780231574399,0.04080108517089537,0.08548160843833782,0.07878749112362392,-0.1273920834554863,-0.5523900798525326,-0.8435548368560127,-0.934524175801517,-0.9534387092081745,-0.9411827823448288,-0.8985107047772184,-0.8193576796955581,-0.72673610491984,-0.6850126395891213,-0.7165884590997983,-0.7792990347002163,-0.824421224964038,-0.8352821121114544,-0.817623964464315,-0.7798012402297179,-0.7299016307822289,-0.6701564026471253,-0.5856435650735019,-0.4299122317265564,-0.15827662519015043,0.17292112369880044,0.43712481115872154,0.6036954398280927,0.7090706209813356,0.7847220511311995,0.8443911702457234,0.8898156597687509,0.915201389045286,0.9115632073656217,0.8757949725573116,0.8089093949826062,0.7060957669852974,0.5582576852154365,0.3684609711765127,0.17631085845208486,0.03162213872066567,-0.03972293360815499,-0.04793828003877993,-0.02978238922980074,-0.01831380971613428,-0.005684316821327974,0.08563487162276849,0.331757819531195,0.6177300729727413,0.7697805097474829,0.8368974537336843,0.8876395256832786,0.932023757188684,0.8597902819943531,0.37111707601312033,-0.09686275424988383,-0.30377439440257226,-0.3833712695048043,-0.3975256055168483,-0.36849456187839413,-0.31334386238906387,-0.26260541431332624,-0.25610036047283435,-0.3101449554787581,-0.3794001425862959,-0.358943487361009,-0.059238152912939455,0.525791219787362,0.7909166590789896,0.85018029999902,0.8488137816734176,0.8160824259456302,0.7487868986002186,0.5972917590314293,0.16408212529175584,-0.5311533958687323,-0.8288619167817417,-0.9170529740902797,-0.9437489396951366,-0.9113853720865399,-0.818731631529086,-0.7227518910255069,-0.667814277415806,-0.6566270940496564,-0.6743645324041604,-0.7043621816463773,-0.7316948624728041,-0.7491715560063433,-0.7560151333731322,-0.7576534556133644,-0.766063942087103,-0.7779464279039335,-0.7419641673268409,-0.5032285797223806,0.11779384874069415,0.602082084684242,0.781464720909628,0.847079782234238,0.8739635541166644,0.8883025911845321,0.9020060613562431,0.9169918048005786,0.9293147415742643,0.9372706563104675,0.9407577250462066,0.9420935925872201,0.9465630576600088,0.9584722246688291,0.9757233268089328,0.9907594175318889,0.9973884830587401,0.9869903841767975,0.9210200293387317,0.6728592494052541,0.2705319559643428,0.007547670963929037,-0.17099854208473655,-0.3791293800615209,-0.5953558228395893,-0.7456800744180383,-0.8250524460734694,-0.8645710409290379,-0.8860873274231186,-0.8984996874392981,-0.905527252116127,-0.9090872736823361,-0.9099945676155391,-0.9097504671029877,-0.911000295071177,-0.913162319885279,-0.9116257997382354,-0.8953809780597094,-0.8189880432716159,-0.4794760399199715,0.2621723310238341,0.6200320976336329,0.6529739395562391,0.4713678899921558,0.048434358245260795,-0.39544215966132706,-0.6506266324107158,-0.772913783902552,-0.8301450802505149,-0.855157727130575,-0.8649303409216355,-0.8697459845541563,-0.8730446125430221,-0.8750745244328749,-0.8769064961206627,-0.8808897884757276,-0.8842690581849445,-0.8861847262751482,-0.8876916672135645,-0.8897766042692621,-0.8898273283053271,-0.8823274502244852,-0.8613100228445421,-0.8141384648997383,-0.7114207721484269,-0.5153983322901916,-0.28868029917064014,-0.32606885471238206,-0.6185161981442174,-0.8204792117542561,-0.8976041018957337,-0.9194593170677419,-0.9029476346658908,-0.7631704789639849,0.08678748248165392,0.7394620804925974,0.8615211028507994,0.8937910239738951,0.900482739518775,0.895766338503563,0.88184992726858,0.8585456620140174,0.8181849301394005,0.7660374370069318,0.7424856743055659,0.7516437239686908,0.7617089003067952,0.7542227271439456,0.71484552172915,0.6186783280378898,0.40362274506640294,-0.013910277268550207,-0.43274561600951406,-0.6107271616770636,-0.6325570689977642,-0.5452952939450194,-0.3384140156476329,-0.058811581867054624,0.17163588454279827,0.31175693441081637,0.40081964861088254,0.482702264556778,0.5796885376145032,0.6858365062503714,0.7754311183262594,0.8313193249103038,0.8550285864703885,0.8495263491773452,0.804692243519521,0.6750231950842859,0.3344010110819486,-0.28898230849255974,-0.7432403441825083,-0.9184485528349768,-0.9755052834262916,-0.9705061368899083,-0.9130632685120779,-0.8352403956200614,-0.782322827777269,-0.7573860564883829,-0.7368137123424866,-0.7013985745816459,-0.6492570477540842,-0.5870506765982794,-0.5000833883778396,-0.35005210438811196,-0.11663333254983839,0.09188459279533168,0.19872934826037014,0.2394933568009642,0.25401592906017406,0.25983313943727837,0.26057462452332797,0.25344295280245865,0.22864012508667847,0.17015497490185408,0.06295177406182037,-0.07999251376817532,-0.1888383546121121,-0.23687405792911334,-0.24883572799048076,-0.24652717606257543,-0.2382098215913875,-0.2097719851041072,-0.13836336270272298,-0.011115554853650872,0.1646295810731945,0.32682529451175163,0.4193020813812417,0.4493117878975865,0.4445761516164908,0.4342138619896666,0.44721730665900716,0.49212312210840436,0.5491914419074223,0.5781074272514111,0.5728884386682959,0.5619481200125321,0.5552547566239777,0.5512521945636729,0.5546269906136285,0.5490738317516876,0.5137227442199424,0.46795294029623075,0.4615894786635935,0.5022340778179331,0.5532717446782085,0.5808883428172561,0.5866704098020279,0.5781240251824,0.5616374533199233,0.5350259737647463,0.4946166813968035,0.426390379321981,0.3148324661434551,0.13318915970026934,-0.1397987307911841,-0.45367849529391063,-0.6846781667221694,-0.7913568095054268,-0.8175552305283081,-0.8089256845919586,-0.7991918428092756,-0.8050775538075676,-0.8188460108230526,-0.8211155978779875,-0.7812419114374537,-0.6332931812351225,-0.3204416368640196,-0.019259235852003762,0.1303537269354848,0.18227339794917222,0.2052544625571277,0.2467112352232416,0.3224857192475028,0.4242925287604758,0.533527471968008,0.6452827742652545,0.755250303097509,0.8528909520685503,0.9121339985704552,0.8631928897658343,0.5805504586003714,0.052639881087008664,-0.4385081140278352,-0.7019130853584534,-0.8164801288063471,-0.8721474939202423,-0.9104148095232484,-0.9457847808004064,-0.9718968442955473,-0.9804430629919777,-0.9737202481530821,-0.9393750716900904,-0.6522879022699516,0.6888423723239272,0.9147595703418907,0.9476901193211096,0.9525280496332005,0.9418597002792658,0.8968928213479339,0.67995221875593,-0.14400477677233298,-0.6425952735793726,-0.7609308861352169,-0.7976413782196803,-0.8122758314217879,-0.8171225225212263,-0.8178037332706628,-0.8249421295485942,-0.8609438813366904,-0.8873749052100883,-0.3577139565627218,-0.009741434021806964,0.08292828387916783,0.09182140559183773,0.051569877677913205,-0.046727865743168895,-0.22642928663216047,-0.4673188292555497,-0.6370720861917416,-0.6681759813363557,-0.6228937286199381,-0.5471655893093568,-0.45601454727785107,-0.350281413496397,-0.22406861334048292,-0.08029872690177774,0.0646829391622193,0.1841735348966525,0.2665600092428692,0.33201124114591785,0.4199864791751941,0.5525405693366883,0.7049670971866012,0.8254602433858862,0.8933953065172763,0.9192122129135862,0.9105527657366908,0.8466929416987776,0.6270980351294122,0.13199699034851906,-0.2773359215355832,-0.43628109829736544,-0.46936999194522644,-0.4421208046724469,-0.3646535598800395,-0.22894407829253127,-0.04794797158451407,0.13651904012757937,0.31251595440475294,0.5034648600983903,0.6936264584165712,0.8229484677210319,0.8879931376925695,0.9151158876022331,0.916286955415237,0.8776141744087074,0.7018260724049391,0.10281083833643426,-0.5232126069471904,-0.7433437602884778,-0.7845790681050311,-0.70180969998866,-0.38462073371327,0.15323355417898904,0.4076287602139502,0.30013642843807803,-0.12688700717710255,-0.5627642542255379,-0.7624440491444687,-0.833929290802948,-0.8560482343549805,-0.8545832359629146,-0.8358600369453209,-0.7985350602925486,-0.7221290408924053,-0.5270311370326791,-0.08280201751926355,0.22975091318288995,0.2354661060184284,0.12269460363605195,-0.012113347343927381,-0.12100252823860361,-0.19695444534680717,-0.25921404745535886,-0.31944749107477655,-0.3818795278457515,-0.4370915469508126,-0.4820732274476818,-0.5179756429305924,-0.545368556546709,-0.5563004441804138,-0.534477913417172,-0.4551798275799158,-0.3130602908110738,-0.180646557154633,-0.14085058806827647,-0.20564764149907705,-0.32764337850182035,-0.44283077482964384,-0.524531333819677,-0.5764229195849715,-0.6030785588223829,-0.6042116547679786,-0.5844886967863105,-0.5518991399229335,-0.5156574473971036,-0.462073586230249,-0.3393560922687899,-0.04698042955742994,0.4016981702900415,0.7005271061256835,0.8188901873081491,0.8649463664055924,0.8797788095182023,0.8742173993659295,0.8531856423009619,0.8248415100741665,0.796775237961016,0.7692755496512698,0.7374069294421576,0.6889792422764993,0.6148121227631319,0.5053561261456182,0.3301607894440334,-0.013378053164938685,-0.4973001998355756,-0.8026064181333036,-0.9035665528017367,-0.9099799966485661,-0.8748988894725663,-0.8324074617421572,-0.8022348295790701,-0.7774103023520293,-0.7405151201342127,-0.6970702218388752,-0.671994796886383,-0.6646553577614136,-0.6577747895278379,-0.64020515221834,-0.6346375979355995,-0.6848898621986186,-0.7788139745029273,-0.7456237805569396,-0.4971717623864077,-0.16796770743007264,0.10521715497398205,0.2773796605731746,0.35545436277262477,0.3521050832513111,0.2627804815672396,0.0692084874385673,-0.1896868635897245,-0.359465965157414,-0.35164115489266856,-0.26157625110637583,-0.14907024706229519,-0.038529417887662974,0.06081947189303821,0.13461816317796826,0.14905015296862426,0.07970287155554183,-0.011064857886155473,-0.07719923553979259,-0.12061029142156536,-0.15110504242853234,-0.1721496020500154,-0.18744061942098195,-0.20138263319108166,-0.21225181011190922,-0.2056357698015829,-0.18534225492440873,-0.15044428127997522,0.10364012705873334,0.3562372565675255,0.6118756547630607,0.787139752997698,0.8778391165318544,0.9230933931560403,0.9468998879852728,0.9604640413135697,0.967495571223699,0.9674049577729597,0.9545955832407684,0.9131209669669317,0.8235669828110836,0.7020538946169614,0.5846987256232296,0.4661866911469421,0.31862042909950217,0.12365186516341024,-0.11895863080194478,-0.37496841899723393,-0.58829381226492,-0.7157972288497904,-0.7601177610209549,-0.7507850824847281,-0.7362410834395489,-0.7787700085589057,-0.8710759101282438,-0.914464984758881,-0.9126163102965406,-0.8998298190022255,-0.8876766233026637,-0.8848679538183752,-0.9017929012017842,-0.933132388115369,-0.9606440976992455,-0.9760872897157771,-0.9826849569342351,-0.9849761132235646,-0.9858552095115901,-0.9830814869397575,-0.9488212539682926,-0.7148478859687909,0.03676684718812064,0.5842655922438558,0.7901066947759879,0.8709726186263104,0.9025680005768815,0.915787742387198,0.9263950862033485,0.9415470754409347,0.9539312338138165,0.9509564743476316,0.9168534024343761,0.8094266771519122,0.498028899306846,-0.05896997542074132,-0.42726529395999785,-0.5606207080125407,-0.6006272342807197,-0.608794704259156,-0.6053929247908384,-0.5923374529424427,-0.5723418873520757,-0.5481038106982464,-0.5267926794029387,-0.5052975916910737,-0.49481743800354855,-0.5205028871653337,-0.5828793210364946,-0.6428097944430279,-0.680954689159193,-0.6967449064423333,-0.6883172616296696,-0.6542707881477114,-0.6108875621672918,-0.6090558765526964,-0.6575389555180551,-0.7158104824664008,-0.7503645010595057,-0.7542860625110485,-0.726558814232069,-0.6480886632195311,-0.41145742827321824,0.14267780950396516,0.5626469613314877,0.7237870598150791,0.7879814518346812,0.8038486258457801,0.772938096677294,0.6007026921857918,-0.51975101008187,-0.7813522216290796,-0.6601951661828904,-0.37311161372740415,0.17921015953907485,0.6843291615474462,0.8806232404756462,0.9391057047866466,0.9564277677992705,0.9586227294118796,0.9514335952092473,0.9313306765806286,0.8865614880782576,0.8065689476129552,0.7035342668515596,0.6006639269285033,0.49026668216438657,0.33978492878669214,0.1002359707421223,-0.26516670563658434,-0.5912451601524498,-0.6771352900973213,-0.6480769907529756,-0.6229972053095287,-0.6510392721738785,-0.7317747740775888,-0.8057906602488297,-0.8249658994231459,-0.7665734894172699,-0.5042206138063925,0.3044581710207018,0.8219445038388593,0.9294812663695227,0.9408501621166231,0.8131755746973346,-0.18152254175253374,-0.7169131331788597,-0.8087159235984169,-0.8254624646179037,-0.8219955345279197,-0.8198973018802855,-0.8356446659426494,-0.8710684217299063,-0.9095764267285876,-0.9333633616034268,-0.9339792807473414,-0.9034773848686272,-0.8281264894532808,-0.6978207016191239,-0.5291662311144848,-0.3686962645754416,-0.25798705678404976,-0.199843440024826,-0.1531049681229444,0.016332865719261225,0.5189407860581338,0.8904691291719455,0.9298683648063193,0.8986292878138226,0.8435562781710758,0.7594191045026754,0.6293330316975252,0.4485476835961053,0.26738407363786154,0.15936411365827272,0.15022969299717878,0.20383626454384335,0.28042296030233105,0.34823511180632205,0.3949532896092175,0.4257073723575775,0.44651405209337014,0.46065599277305347,0.4594243049147293,0.41619687171526504,0.2821103013869225,-0.10187049916224829,-0.7423820011085754,-0.937393093247047,-0.9497875320573467,-0.9385463004529901,-0.9138457852114774,-0.868447886380605,-0.7920536407043288,-0.67670754176797,-0.49153623467769586,-0.08462489710206754,0.5795920470345881,0.8721312912707224,0.943151565855834,0.9644670458847177,0.9720662050988592,0.9745348344695332,0.9744962259451049,0.9723446165578331,0.9668073157428588,0.9513876819220536,0.8750966419478127,-0.07615735343823597,-0.8702214395455904,-0.9420902354305529,-0.958535641590282,-0.9643386557630936,-0.9664126360877846,-0.9673517425018732,-0.9680482491726727,-0.9698774515338974,-0.9737918591214915,-0.9786771677123356,-0.9810360083061658,-0.9783230649230868,-0.969601423731729,-0.9516771566828038,-0.9086726512872492,-0.7706889923756859,-0.30660852565053476,0.1870898016678456,0.09732650588902031,-0.35990781430196733,-0.6829831134310537,-0.8041222019073926,-0.8414669566503383,-0.8429230140357926,-0.818527485522017,-0.7563121680022831,-0.5820738208473653,0.028863378129454893,0.7787164181248111,0.9399755457259658,0.9640336161491457,0.9610610775004623,0.9448609567824433,0.9145119083901233,0.8622611088381407,0.7652407952688585,0.5351094229476331,-0.04425584126528434,-0.5633236361916807,-0.710545915136666,-0.7168569897857581,-0.6650228636660033,-0.5877939215358945,-0.5292900707238665,-0.5220930892376306,-0.5462496217264904,-0.5790413176510623,-0.6119113411111619,-0.635301362104936,-0.6441829718107203,-0.6355833156505842,-0.6115902318681095,-0.5718643572101852,-0.5042004664210517,-0.37130638107719793,-0.16462891511359187,0.04540284411656657,0.2325174431627942,0.4367844632410243,0.6422734044399354,0.7894014406974467,0.8680548189640322,0.9060123646808098,0.9237969536312242,0.9311974086896234,0.9343259123701563,0.9325343033050328,0.9209153452060949,0.8864348953834268,0.7990661434060886,0.5925969516191008,0.17847938907965358,-0.3779407163259687,-0.7590082666700267,-0.9037066133616095,-0.9477772907815664,-0.957834666624329,-0.9508914081119786,-0.9172399635480301,-0.7560851569395407,0.09120166432905591,0.7138398550616007,0.8323150761177502,0.8562816291501701,0.8468302413091584,0.8071266176089811,0.7159978166302864,0.5384688210181822,0.2792784559206284,0.04968526213999621,-0.06288001717941509,-0.06728690140416141,-0.025112623936964756,-0.005188475306945493,-0.05006183405033742,-0.1714435372748562,-0.3472234706283838,-0.5281237588808715,-0.672736176678234,-0.762852529026789,-0.8006822053969676,-0.799374026914927,-0.7700343474819971,-0.7021678893053968,-0.5535152072263475,-0.2501132178494336,0.23258638836893858,0.6814000764911513,0.8853491888744511,0.9499600829625484,0.9589678325100741,0.9224895390473757,0.8134993625739743,0.5998424913404508,0.317770101332321,0.06732559029473459,-0.09807863486537938,-0.18787459046010174,-0.22883173086528283,-0.24217972637994517,-0.24455451462296537,-0.24000872912497784,-0.22904486044120767,-0.20728526430868888,-0.1774333148460627,-0.14898799531837664,-0.11902095537844948,-0.08181853990280778,-0.03432230684794625,0.0173965849188774,0.06649332576335691,0.09928755812504601,0.09961322826102846,0.04639946050896937,-0.07679637054902165,-0.25076330177289613,-0.41263111032834376,-0.5208078390380284,-0.582389737019714,-0.6131685483351028,-0.6184364371602317,-0.5985233638455637,-0.5563123538138265,-0.5069092383118793,-0.471274016727394,-0.45986233596244525,-0.45278474544310043,-0.40475597258227447,-0.21658077362217765,0.23348684840329337,0.6507385103559512,0.8187127253821056,0.8770133235070439,0.8965421951848312,0.8973899070566121,0.8854685587253645,0.861078240585567,0.8200039779520026,0.7576294068239753,0.6826943112989896,0.6155412304637424,0.5564381887411946,0.47566495938738895,0.35354620705936574,0.19411174130195466,-0.007706876243934701,-0.26485112674239447,-0.5166419175091577,-0.6755747680044817,-0.747005440841825,-0.7755531810776181,-0.7881862018498272,-0.7945346706385835,-0.7959471557273659,-0.7899598659362295,-0.7727579468376272,-0.7457267555064439,-0.7174050585971516,-0.6997834949087501,-0.6917058922194812,-0.6822049816393755,-0.6501902719746461,-0.5792055573736085,-0.4656068401519094,-0.31162636828795726,-0.1450893399841514,-0.012745531440215153,0.057333244040331376,0.054530917257920725,-0.04780947821325555,-0.27659101017350923,-0.5424737000779338,-0.7022141220985082,-0.7673928115694743,-0.7852863647488327,-0.7830170680185398,-0.7762458954510324,-0.7760547608886621,-0.7778102641778114,-0.7505556853755768,-0.6166865990274752,-0.16522686298224415,0.4697506049833451,0.7030985551342581,0.7149065288768912,0.5856198462681532,0.28351655190101266,-0.11122708193981416,-0.427929738483675,-0.63657620990619,-0.7742926864739287,-0.8566160002064239,-0.8982197504974508,-0.9184316343620975,-0.9300062665185064,-0.9302095763989585,-0.9068961745397406,-0.8004038411188419,-0.08226990974831432,0.8697193544811277,0.9700440951484026,0.9677714449409068,0.8841245013456842,0.1349907738084821,-0.7649419194492496,-0.8893936054724032,-0.8898246786693287,-0.603755011282855,0.8005327379145049,0.9271952951678974,0.9450940901942017,0.9504384723925425,0.9527778590916078,0.9524928303944704,0.9478040607282828,0.9393803290227737,0.9365980788013525,0.9488890833196867,0.9687712779539019,0.9829618901351972,0.9868657458285826,0.9822364697531876,0.9709957745590331,0.9529954293070872,0.919380358922985,0.8491679648380431,0.72033656605447,0.5369541700202576,0.31772864209785345,0.11323706051343675,-0.007182060140968857,-0.02533453869878471,0.024231295228226122,0.09265502168751732,0.1400918942217041,0.13993941873248245,0.0726610446549991,-0.09321745970831842,-0.36807686897184905,-0.5791139135740834,-0.5281273503154449,-0.1318335032526513,0.38190962293693714,0.6647238529430559,0.7443593765323343,0.7012381468418003,0.5436974145213895,0.31161021450867843,0.12013944058010216,0.02524686240757206,0.004942175980898423,-0.0007421463180287941,-0.07601013731800191,-0.24068324400145197,-0.4209416067349675,-0.5703289305546994,-0.7088576805439346,-0.8429754193376029,-0.9361055536433527,-0.9605081507611947,-0.930166497542897,-0.863950744535127,-0.757804300272811,-0.6226597171829564,-0.5181354133187237,-0.49495243540046424,-0.5491023588388724,-0.6384525753678765,-0.6979544621932752,-0.6547899257754424,-0.3521762565806043,0.1940567576285317,0.5240940078522907,0.6608318865263735,0.7246561679157265,0.7575003723521688,0.7700130875592226,0.7652135371099987,0.7279902950235404,0.5057255765665926,-0.4341449933448867,-0.8212692726352308,-0.8879231642801768,-0.9089501017472452,-0.9213522628327817,-0.9339252245712624,-0.9483599558680894,-0.9622091478190722,-0.9722909045536184,-0.9771420804593951,-0.9766320737474343,-0.9673052165662467,-0.927610465074487,-0.6950580155571209,0.4286328682745528,0.890326587257676,0.9673981705418581,0.960950517803784,0.8686585073013853,0.8064170577038019,0.8758553545794305,0.947578024243314,0.9792327457141508,0.9903912834161861,0.9941840020880844,0.9955925989152791,0.9962399177127552,0.99642012796956,0.9965107089688635,0.9974374732675523,0.9987983199528927,0.9964031652429363,0.9693819488025348,0.7254144186931197,-0.4516160823649358,-0.8646847143578354,-0.9450188620157445,-0.9624529888147975,-0.9589574404725303,-0.951957876428734,-0.9491465697333156,-0.9496746105226639,-0.9496365046943537,-0.9430181013595662,-0.9265709987228066,-0.9024473832832396,-0.8779274332300532,-0.8602437216107676,-0.8503725484328809,-0.8430507880607804,-0.8286215804590698,-0.789961499198934,-0.6959274658930273,-0.521884602931848,-0.3550249578943159,-0.30451002356612794,-0.3407583006243589,-0.39489741230012354,-0.3993756953181355,-0.2736008037414316,-0.06267086731866209,0.10494940350072458,0.2180832560978772,0.29133917968879486,0.3208061865006225,0.2945753373681068,0.20064135218786033,0.04090591466063056,-0.14438569494597425,-0.2834250868193828,-0.28914704427557003,0.194395787120888,0.8831767987674831,0.8534606684373789,0.7206407900792672,0.11036518492012666,-0.7855949360421669,-0.9368157698457557,-0.9526883350991318,-0.9360279138043271,-0.8775826392687899,-0.69424858740994,-0.1447503020174359,0.5228705478186516,0.8012284449922479,0.9016286629244391,0.9449553167323419,0.965095413182308,0.9702577188031526,0.96130120162905,0.9399561733505339,0.908962238589548,0.8696972463690525,0.8272241188509734,0.7949696360438914,0.7847977174831133,0.7953872141214327,0.8019661745369535,0.7786388803642059,0.7352633492082181,0.692082365544416,0.6597777929014239,0.6488613839931013,0.6648602361451278,0.7105179081034574,0.7790376378323585,0.8607278293482826,0.9151097142053178,0.846774547489952,0.6169008911113195,0.3527485396611719,0.12218812232869057,-0.08335227501173485,-0.27109972724110754,-0.41919900148050276,-0.5036081049069865,-0.5167080255380334,-0.45463891373840104,-0.3219432897363661,-0.15738092835378326,-0.025214826795001498,0.044185326625201485,0.05573550478694126,0.0290808848204112,-0.014980768481518969,-0.053174174918915754,-0.0639465152712042,-0.023057091787582744,0.08421468805294227,0.2211921206926011,0.27691726295326585,0.2049120137966489,0.04270413829933653,-0.11482184533484546,-0.21375727314172902,-0.2652492979330181,-0.30157716250725336,-0.35810423498752453,-0.4614066038026072,-0.5801404919710623,-0.6484369168280646,-0.6298895552514499,-0.5423400682675402,-0.456009039915803,-0.42827164139826523,-0.45605101887579463,-0.5063944020975313,-0.548592635413412,-0.5659790306905126,-0.5475217923371026,-0.47058697324122484,-0.26973419555941697,0.05735811300118275,0.35181011549708885,0.5275180069579435,0.6062601773763656,0.6075464366447747,0.5300114563442144,0.36733493995735567,0.16917961221267377,0.0988224468871239,0.24891697749146682,0.429306716942469,0.4331786965962791,0.18466919166520365,-0.2734675809762684,-0.5688998429111779,-0.6364853179826736,-0.5313659404059086,-0.13456689490503307,0.45583831437185646,0.723948612122486,0.797303982226114,0.808623030444317,0.7950295805219182,0.7664713480830329,0.720031380791115,0.6433417117409462,0.5935130674260748,0.6537336136461436,0.7559794261662939,0.8283979494300697,0.857497722815012,0.8410269171675486,0.7131816646258693,-0.0355512309733836,-0.8409182789727946,-0.9507189480593254,-0.9697239036080092,-0.9741878296703751,-0.9770773562818493,-0.9820107332793421,-0.9869494995471557,-0.9864657232209804,-0.9747532274913748,-0.9467554387532245,-0.8800404157093946,-0.6585454197669769,0.03568624109721072,0.6418025518057829,0.8357308449077904,0.9060252969368072,0.9394480088801708,0.9560859567688349,0.9621840353732016,0.9593725987087228,0.9461187473810797,0.9209222258849589,0.8901804830334005,0.8661423590446896,0.8426628669339953,0.7740631624828238,0.43946017418824324,-0.543599273663302,-0.8845703653040913,-0.9461652629928466,-0.9627593646609615,-0.9669627901598237,-0.9662478373406925,-0.9638079727973127,-0.9610600742512202,-0.9566984717124601,-0.9459514031037375,-0.9194505467746089,-0.8550566746468994,-0.7122056842500666,-0.5307706221974647,-0.4591078515755768,-0.47037427087087347,-0.4786105908724858,-0.45198171229955536,-0.38507004308011916,-0.27998453274202434,-0.15561038122027426,-0.05792879834902486,-0.027031068277727947,-0.08192585628099226,-0.2061958000605849,-0.3302633982875071,-0.41289093398683885,-0.4621996688467712,-0.49589351447520674,-0.522524633465695,-0.5433089519010743,-0.5571977334745921,-0.5588295509802468,-0.5406689268538727,-0.498964782452925,-0.43396230782593315,-0.3379567735325972,-0.19997016480064259,0.0003215357338897518,0.25251673325389945,0.4532701397553382,0.5484961324111105,0.5643992636365561,0.5285225295684383,0.45866502824192457,0.36760474424812006,0.25868212343976593,0.17760587355715343,0.2220444610890814,0.447765684095488,0.7173587163969684,0.7998392857614743,0.7036135576579403,0.5715130887714357,0.4631212743873984,0.381548118527551,0.3204937127803752,0.28218971546328575,0.26391380113801594,0.24462024286746123,0.1512030067229898,-0.27295122578500136,-0.8509567166192953,-0.7510217022516341,-0.5864469042661148,-0.43358602953861136,-0.3036744853120074,-0.19963023079790881,-0.12951737882934974,-0.09497504689492028,-0.08960230076870454,-0.09672044898729093,-0.09613843674101494,-0.07931731883272473,-0.04638428987852805,-0.004520633648357548,0.03295313078045298,0.051229204031483545,0.046938193927210325,0.04751101054373479,0.15114688430888815,0.4341772241129414,0.6840999854445333,0.7911674085077628,0.8260488755993465,0.8225800752686104,0.776828797377335,0.6641718017858086,0.4623881105323826,0.19521683566079362,-0.06829439038355345,-0.2575650243670441,-0.3539883637719687,-0.3635886774175888,-0.29269530663745147,-0.13761837538658772,0.08799569147539711,0.32793187854123107,0.5036223213517583,0.5630966331909899,0.5366423903429436,0.4893239211608877,0.45031323773855375,0.4168680381859269,0.37076736139681493,0.2802033904482397,0.09931646624267476,-0.19685270841220154,-0.5022532179420992,-0.6539548465666037,-0.6379038355216695,-0.4670005853661996,-0.16309345643373793,0.09527948599410827,0.2080228394483858,0.2242500023143338,0.20238714497562596,0.17374687598948343,0.15724064268953458,0.17618669625309746,0.25393366276696205,0.39958557633304387,0.5870252134772062,0.754625574692781,0.8663646572668813,0.9286772853429963,0.9583822442675105,0.9598303016431639,0.9097645790846302,0.7561431958034971,0.48721404246137834,0.15227479289278234,-0.22546282163084833,-0.5257262366728659,-0.6780531269089949,-0.7343398676287641,-0.7367785451367596,-0.6975720422107596,-0.6076175188646803,-0.4456627937755934,-0.18087822974231713,0.23190207357668333,0.6623953065392072,0.8732678729600298,0.940726190518095,0.9604652592172561,0.9631896558710719,0.9567222297844313,0.940845063000252,0.9079865854257739,0.8273216039947141,0.5529484341658674,-0.2685747446555163,-0.8007159396341695,-0.9266764251899181,-0.9634175359368866,-0.9776075241539562,-0.9838200920332761,-0.9862589303953632,-0.9865055527704069,-0.9851038030210949,-0.9826918321124458,-0.9791642464228665,-0.9733373471835581,-0.9628570231064424,-0.9430131094913442,-0.9086973233530241,-0.882621629550959,-0.9057298633068417,-0.9261107113143773,-0.9175053013155,-0.8621503841758814,-0.5851376494837457,0.5813145395837308,0.9421168614687526,0.9847102484849322,0.9935838418477301,0.9962828706678833,0.997514140210355,0.996686360563659,0.9795805289602234,0.8321956507022116,0.0656828532681461,-0.5943139753855682,-0.8097621116220398,-0.9000590205391186,-0.9445775612507566,-0.9648239567650675,-0.9699720078105786,-0.9641547758338871,-0.9497656075759588,-0.9294360928816899,-0.9073296592788057,-0.887960856916346,-0.8744375629967723,-0.8668011236566232,-0.8608985267076359,-0.8391829570410881,-0.7026606181306585,0.49599067902406146,0.9481410741323593,0.9724316750015863,0.9712781978800664,0.9655384117845969,0.9580798442340557,0.9443238817526571,0.9155210484019475,0.8710498815780914,0.8180082920178794,0.786061259156631,0.7905008699147652,0.804500671111879,0.8062541635932382,0.7935828748480117,0.766738301203941,0.7173550166195235,0.6315519234708403,0.4975764018480055,0.35503274252076744,0.2637551590233967,0.20980105928426707,0.16814846103267833,0.1310245824606079,0.09890338728472643,0.0789975257731431,0.07288464539454897,0.07754982134715899,0.09639820291366309,0.16150139546105582,0.2724438916126072,0.36179204407475785,0.3468213994097893,0.2717521809022359,0.2129668076858345,0.18611071081189876,0.17982449526049898,0.1798555795126804,0.16624745643927197,0.1337503950186478,0.10168262762561955,0.11255989704543427,0.21056570976078665,0.410848667748053,0.6456161731225493,0.8124939864872269,0.8946053752066704,0.9284011194759841,0.9401366378319507,0.9328182960683477,0.899056478255495,0.8639285320157291,0.8752845229393033,0.9237667009152406,0.8536016768472059,0.624670433988068,0.42120423487335373,0.28419510334206166,0.2072826646562843,0.18890760911989343,0.22841806142827364,0.3153519161147651,0.4333438522271904,0.5536843838735113,0.6527949606325878,0.7239661504683976,0.7757836831036947,0.8152327454062521,0.8412269576996358,0.8500200449292675,0.847450707541872,0.8401789934393898,0.8301847799302025,0.8052068559503991,0.7160702346133714,0.38817414565535296,-0.32210643894646607,-0.7575153509559727,-0.8906234605652223,-0.9302458967313642,-0.9339426309176571,-0.8895095558248373,-0.629175800169242,0.11673011544712156,0.5346679055340174,0.6514187898397924,0.6835148399203705,0.6891711215116731,0.6907595658431605,0.6987803983121049,0.713170203998547,0.7320515799612446,0.7466318147206475,0.739716982212188,0.6958900283613458,0.5982820725419691,0.4308827422955213,0.1995337380691076,-0.0651764522016514,-0.3213925317990891,-0.517435288721523,-0.6318377962296241,-0.677582302032581,-0.6754512312939448,-0.6368335158868231,-0.5719082309865755,-0.4944000939004045,-0.4294272307406337,-0.40973776431264686,-0.46587778449868084,-0.6187512432026184,-0.7808684421805409,-0.7096774545604675,-0.5752265435812334,-0.5139068302717249,-0.511423409365113,-0.5448623458329824,-0.5993649936696022,-0.6675519905795103,-0.7402340846289236,-0.8083955006868636,-0.8633423955589797,-0.8952284317787547
