-0.0111945553421848,-0.012935966151154492,-0.014383312521629107,-0.015035764627833667,-0.014806029088795341,-0.014057083633405656,-0.013170297421617206,-0.012384597455317102,-0.011892959092390902,-0.012090533016822025,-0.01327138366710555,-0.015421723848968307,-0.018233710435005577,-0.02116975058316844,-0.023480910178551907,-0.024505537146739115,-0.023820923425927353,-0.021716529217823792,-0.018955084336970105,-0.016317701523605534,-0.014314390725869139,-0.012876235818243304,-0.011479431152952272,-0.009283142162209143,-0.005887622430606108,-0.0015639656778555842,0.0029159136229427876,0.006867397781807602,0.009849389573972009,0.011783778575948435,0.013074904099447908,0.014145479876515486,0.015367686439376166,0.017053956976616713,0.01913997676438624,0.02093652500996391,0.0214741093466493,0.02014622647711824,0.01669097357748284,0.01151268995945413,0.005769253286436038,0.0008528719252709697,-0.0022302041277969583,-0.0031491533717531947,-0.0023588571070044667,-0.0007047476173468888,0.0010734199706301604,0.00277807144898344,0.004583806904728123,0.0067203655625600635,0.009146392927462691,0.011448363895118554,0.013139230163783487,0.01375033202765324,0.012803815482953604,0.010180211358498677,0.006361975059729408,0.002171564749513842,-0.0015363969595515972,-0.0038843144679908885,-0.004284058048277525,-0.0025931892280035332,0.0009447669914226521,0.005594652348884513,0.010364000923777808,0.014669282689170062,0.018340489603812966,0.021883041554663543,0.026064266922809033,0.031077152406619696,0.03606705072794488,0.03974284203352748,0.0410799418819979,0.03941663299115225,0.03427967693448895,0.025696684957129595,0.014609552356258874,0.0026494187532880493,-0.00803796544759004,-0.015320640438601138,-0.01782477822699134,-0.015352802053208341,-0.00886042559504291,-0.00014418842260192,0.0083882588443454,0.014223593135124231,0.015574448991534894,0.01221568660596345,0.005677358503796474,-0.002023440441589761,-0.009237193353328774,-0.015155228128777218,-0.019194011338857207,-0.021091642994802044,-0.021197322136593602,-0.020094581909797647,-0.01853696350122826,-0.017172323285665606,-0.01632229441990875,-0.015963903917078096,-0.0157203811837666,-0.015311451810873537,-0.014925492589738893,-0.014668185497275405,-0.0144200698676607,-0.01412140969774123,-0.013790587913214563,-0.013409224423504309,-0.012871640086818913,-0.012030799848789662,-0.010758054415866572,-0.009214220366449177,-0.007624437508151412,-0.0061403337916452055,-0.004954890245058466,-0.004132430097605596,-0.0035902500294958113,-0.0031951021806335645,-0.002928606460442474,-0.002786168555058737,-0.0027264370880990783,-0.0027953580333226935,-0.0030434742299616365,-0.003355915923911922,-0.003479975156279863,-0.0036316031069517913,-0.004527577946467843,-0.006581430449387821,-0.009563422241552228,-0.01300488794691446,-0.016437162189427913,-0.019221580057161194,-0.020531082836115877,-0.019993498499430478,-0.017801802404990564,-0.014636021047547028,-0.01124050415106517,-0.007454432302024276,-0.002221014649533002,0.0055624907342773115,0.017251530901047835,0.03294719833353349,0.05018674801249653,0.0654000082366012,0.07541201185579759,0.07842160638772008,0.07431385601994132,0.0642559234377128,0.05024189111934685,0.03500107351742287,0.021598168579017245,0.011981355335500734,0.006040341902930344,0.0019693956606825643,-0.0018580295493264268,-0.005892218162030498,-0.009512880536368644,-0.011984853875030467,-0.013303545281712752,-0.01412140969774123,-0.01505414471841005,-0.01630391716445354,-0.017420438915280313,-0.017645581558015423,-0.016464730907731897,-0.014075463723982036,-0.011465646793800278,-0.00967829001107139,-0.009278546430784755,-0.010045869141629651,-0.011231312688216389,-0.012099721644549628,-0.012334052915012344,-0.012076748657670031,-0.011741331141718974,-0.011782684219174954,-0.012338648646436733,-0.013060025383522434,-0.013409224423504309,-0.013170297421617206,-0.012568387020596233,-0.012039988476517266,-0.011888363360966513,-0.012122694631429226,-0.012416759069924304,-0.012471896506532278,-0.012209996517765576,-0.011847010283510533,-0.011520784230408254,-0.01123590841964078,-0.010744272891835754,-0.00982072649889454,-0.008456086283331886,-0.006733055564938575,-0.004748124857778564,-0.0027126527289470853,-0.00089772722791421,0.0004347499554806557,0.0011515306776298494,0.0013720784394769224,0.001367483842101003,0.0016431687570439325,0.0025621182845122865,0.004069195554922325,0.005714115849828064,0.007170650848030284,0.008323932780009823,0.009366939838773413,0.010318054950018613,0.010667253990000488,0.009959664447187957,0.008163116201610289,0.005746280299556441,0.003430524972748586,0.0018407429649871733,0.0014777578647805984,0.002364544076569046,0.004041626836618338,0.006279268904817447,0.00911882704427988,0.01229379702945102,0.014949562768513149,0.015969599675518316,0.014692258511170836,0.011416199445390176,0.007101731887391491,0.0030078084055823523,-2.9319717492769897e-05,-0.0017707290805506638,-0.0023864255417963363,-0.002207230290381008,-0.001862624146702346,-0.0019545192128540283,-0.0026483260975872724,-0.003617818747799798,-0.0043116239314603365,-0.004178376071364792,-0.002652920978475309,0.0004255604772166993,0.004914628689254792,0.010782124594640825,0.017076932798617484,0.021611952938169237,0.021662494643352823,0.015611206337566482,0.004560833917848526,-0.008345814245237114,-0.019625916533751047,-0.027299146477321175,-0.030827916904140933,-0.030556822617404278,-0.02711994980834526,-0.02132597426526476,-0.014245468930109171,-0.006765220014666951,0.0004944817059524317,0.007450930927373369,0.014108722530483895,0.019764862987407986,0.023504991697810857,0.02518666933874819,0.025480733777243268,0.02557262855988283,0.026091835641113018,0.02616994606460059,0.02409771347110423,0.018799966352131967,0.010409949732658177,0.00044393943374461224,-0.008727177734947364,-0.015587133323671055,-0.02004863310091728,-0.022470064734395518,-0.0229800831878981,-0.021459224960481478,-0.01791667017450973,-0.013069214011250036,-0.008433113296452287,-0.0055384233906242315,-0.004775693576082551,-0.005377606812224699,-0.006025466022126043,-0.005464905863439874,-0.0026115681845314464,0.003402956254444599,0.012858952919561576,0.02521424089217335,0.038493092268453384,0.049561858954353596,0.055309897029038435,0.05401878284602366,0.04611579751756698,0.03373292381592417,0.019787835974287585,0.006853613422655609,-0.003604034388647805,-0.0111945553421848,-0.01651527544803666,-0.020328913180260363,-0.02324657890808919,-0.025369353206769137,-0.026527228035051892,-0.02638019581580435,-0.0249925826133621,-0.022658450031099037,-0.019694838329511015,-0.016340674510485133,-0.012563791289171842,-0.008368787232116709,-0.0037878239539269345,0.0009631459479505652,0.005176531513142669,0.007887431853691595,0.008314744152282217,0.006219538571906259,0.0020475066511943707,-0.003208886539785558,-0.008626094324580197,-0.01345976896380907,-0.017140161671058404,-0.019483480045927894,-0.020926230684978123,-0.02223114056762959,-0.02402768597808608,-0.026435333252412326,-0.029123271946566356,-0.03152632065434703,-0.032909321114637846,-0.03228905330400989,-0.028222690035141215,-0.01935942364868113,-0.006057627636733245,0.009229099082374652,0.02286172538421273,0.032037436299744274,0.03595676451424424,0.03551567636186515,0.031904185604527555,0.02617454179602498,0.019944056821262726,0.015592829082111275,0.014719824394353646,0.016828817169002773,0.01957188195928008,0.020504616979948896,0.018662119925490855,0.015133352333792278,0.012537319762762513,0.01279003112380161,0.0151011878840639,0.016764488269546022,0.015445796862863738,0.01042373409181017,0.002667797426303845,-0.005809512007118537,-0.012885424445970907,-0.017130970208209625,-0.018339389576797135,-0.01733773559548953,-0.015371182143784723,-0.013478146219264277,-0.012145670453429997,-0.011626463372199811,-0.012095128748246415,-0.013510310668992654,-0.015384966502936716,-0.017011506707266075,-0.017700718994623398,-0.01715394319508922,-0.015554971709063854,-0.013744641939455368,-0.012793526828210168,-0.013547068015024245,-0.015798494442375348,-0.018559936488107855,-0.02046216387547708,-0.020719468132819392,-0.019304286212073155,-0.016781768333106576,-0.013648151425391414,-0.010284796143516753,-0.006792788732970938,-0.0030067168839300455,0.0010688250897421233,0.0054246471427573766,0.010322650681443002,0.016461235203323342,0.024327451845263727,0.033811031404290565,0.04378623515063773,0.05196031476583107,0.056150737267067694,0.055162867644912066,0.04896912017033318,0.03874578661876544,0.0266248270814952,0.014871452345025574,0.005204100231446656,-0.0015777497534954603,-0.005621126710415017,-0.0077301166499429705,-0.008649067311459794,-0.0089201559279541,-0.008832856876738925,-0.008497439360787866,-0.007900121856070107,-0.006875494887882899,-0.0052443589521291535,-0.0029975282562024414,-0.0005393367250835545,0.0015742472447960827,0.0031318676379502937,0.004615971354456501,0.006472249932945356,0.008585832768776523,0.0101158852941631,0.00997344880633995,0.0075290413508609395,0.002957266700398768,-0.0027218422072110417,-0.008355002872964716,-0.013138135807010004,-0.016570410049523455,-0.018546152128955867,-0.019373208007833122,-0.01952023739195949,-0.01932726203407393,-0.018991841683001696,-0.018316413754796364,-0.016910423296898906,-0.014470611572844284,-0.010964819803146475,-0.0066457565137234,-0.0016053181882873296,0.003995680862859143,0.009881554023700384,0.015289576015888593,0.019383496662576556,0.021501678064953293,0.021451136359769706,0.019502962998641286,0.016236092560588233,0.012344338734634605,0.00835150149831381,0.004813545278887623,0.0020107484546264274,-8.905143961333407e-05,-0.0015547761995916276,-0.00232669379132456,-0.002561025912323627,-0.002542646955795714,-0.0024921046835878944,-0.0026758945323791415,-0.003479975156279863,-0.00495948314136168,-0.0067376512963629644,-0.008763935080978957,-0.011511595602680648,-0.015146039501049613,-0.018959680068394495,-0.02156490126715186,-0.021514359561968278,-0.018183168729821994,-0.012311079928132745,-0.005758970301934951,-0.0005209577685556415,0.0022267016190975807,0.002718339982023782,0.0021669701521379223,0.0021623752712498856,0.0040278424774663445,0.00835150149831381,0.015588233350686887,0.025545059841578843,0.036590839364993584,0.04597336102974384,0.050793265485426585,0.04927239308240409,0.04166805941850335,0.030144397540102653,0.01783965977803799,0.007450930927373369,0.00021420193847267679,-0.004091077020149616,-0.006544673103356231,-0.007923094842949703,-0.008355002872964716,-0.007964447920405685,-0.007376321878536705,-0.007192532313257574,-0.007785254086550944,-0.009246384816177554,-0.011447266703223895,-0.014116816801438017,-0.017048266888418838,-0.02005322883234167,-0.022846835327802555,-0.025125830473457646,-0.026527228035051892,-0.026665071626571828,-0.025470436617136306,-0.023007651906202086,-0.01957997055999185,-0.015679028106310618,-0.011608083281623428,-0.0077025479316389835,-0.004458656150707875,-0.0024277780522280815,-0.0018580295493264268,-0.0026069733036434093,-0.0041416187253332,-0.005763566033359342,-0.006622783526843802,-0.0060943878178860095,-0.0039210718140224796,-0.0003693312354443007,0.003687832065212072,0.007037402987934738,0.008801786783784028,0.009054498144823127,0.00842961192180138,0.007496879736253738,0.006495222919824953,0.005461404488788967,0.0045011035849373375,0.003779726847851637,0.003412147717293378,0.0033753875361406116,0.003591341551148118,0.0036556676154836957,0.0027826663298714774,0.0008758457626869196,-0.0013480125133844304,-0.0032824012318487398,-0.004725151870898966,-0.005745185942782958,-0.006310338997772342,-0.006200066959677568,-0.0051616527972171925,-0.0030296898708096426,0.00042096559632866226,0.0047813808291592465,0.009279640787558236,0.013947905952084361,0.019636208023615657,0.026620234185191986,0.03332398593766758,0.03722494256695468,0.036466802813595045,0.030709550595092033,0.020403533569581727,0.006320621982273428,-0.009944785731262482,-0.025626657464111448,-0.03789003364335661,-0.04514054418463933,-0.04758495731036069,-0.04691413928918563,-0.044791342309536276,-0.04174503295839982,-0.037108929408480894,-0.030055998461871646,-0.020374861989140732,-0.00899826635144167,0.0020475066511943707,0.010901588095584377,0.0167736797323948,0.019893515116079143,0.021883041554663543,0.024368802087598535,0.02718079150875698,0.02873840424708402,0.02741512561434087,0.02251252350910968,0.014774961830961622,0.0060541262620823376,-0.0015180180030236843,-0.006507912922203465,-0.008538792438243846,-0.008368787232116709,-0.007036311466282432,-0.005267331939008752,-0.0033237543093047202,-0.0011688172619691026,0.0012250465037415012,0.0033799832675650014,0.004694081777944072,0.004919224420679181,0.004427586057752981,0.0042943381976574355,0.005723304477555668,0.008852328488967613,0.012721109328041642,0.01604770726388471,0.01782128252258278,0.01760073561127206,0.015675532401902063,0.012932467611624759,0.010524817502177338,0.009316400968711003,0.00956451659832571,0.010685634080576871,0.011485121241150142,0.010814289044369202,0.007905811944267977,0.0032191666891654694,-0.0016650499387591057,-0.004931914423057694,-0.005428148517408284,-0.0032456438858171487,0.0003106915736490669,0.0036694519746356897,0.005590056617460123,0.00558086798973252,0.0040278424774663445,0.0016247895170039021,-0.0008379954774424341,-0.0027586001202668676,-0.0039210718140224796,-0.00450919785589146,-0.004973267500513674,-0.0055522077497762255,-0.006314934729196731,-0.007128206248921996,-0.007789849817975334,-0.008014992460710444,-0.007629033239575801,-0.0066273764231470165,-0.0052719276704331405,-0.0039899936097824475,-0.0031032073979939995,-0.002799952630698613,-0.0031996950769367792,-0.004251893598549148,-0.005492474581743861,-0.006393045152684303,-0.006659540872875393,-0.006443586857867887,-0.0062368243057091596,-0.006590619077115426,-0.007629033239575801,-0.00900745781429045,-0.010220470079181176,-0.010735081428986975,-0.01041344827218791,-0.009572610869279833,-0.008529603810516241,-0.007482001020328263,-0.006572241821660218,-0.0060806034587340164,-0.006489535666748257,-0.00795985502410247,-0.00976559189740774,-0.010509938786251864,-0.00828148534578036,-0.0023083148347966473,0.0061138594301147,0.014301703558611803,0.019806216064863966,0.021510869527802068,0.019659183845616428,0.015262004462463433,0.009991828896916334,0.005378698333877006,0.0022634598156655245,0.0005312396190082576,-0.0001901358989753377,-4.3103963239916375e-05,0.0008390878496310936,0.00207507508598624,0.0030491614830383327,0.0030078084055823523,0.0014593786247405678,-0.0016650499387591057,-0.00600708593154966,-0.0107029169792586,-0.01484738216625132,-0.017581255493679844,-0.018504799051499883,-0.017650177289439812,-0.015251718642841172,-0.011479431152952272,-0.00637926079353231,7.176474186923371e-05,0.007395793490765394,0.014866856613601187,0.022172513096855407,0.029179520750674856,0.03526295366034135,0.038970951942469946,0.038791743933009326,0.03435781287406709,0.026928080147717883,0.018542656424547305,0.010915372454736371,0.004813545278887623,0.0002325809233518015,-0.0029056334735628763,-0.0046608258065633885,-0.005350038093920712,-0.005942759867214082,-0.00755092281608823,-0.010367502298428715,-0.01382734809436733,-0.01743422327443231,-0.021054882813649277,-0.0244779712635563,-0.027234820412985597,-0.028714334068309765,-0.028429461092663463,-0.02612289155846204,-0.021702744858671796,-0.015394155130664323,-0.007596868789847424,0.001670737191835802,0.012877330175016785,0.025554251304427626,0.037073291935313356,0.044236537446835,0.04499927009649786,0.03934311829908907,0.02904627005545814,0.016962062193977143,0.00602655754377835,-0.0022669620408527842,-0.00813904885795721,-0.012389190351620318,-0.015522807259335476,-0.017507737966495487,-0.018224521807277974,-0.01795802325196571,-0.01673582235934738,-0.014507368918875874,-0.011506999871256259,-0.008235539372021164,-0.005101922464306005,-0.002152093137285152,0.0008069245339511873,0.0037108050520916697,0.0059392584925631745,0.006908750859263582,0.006550360356432927,0.005217881755477474,0.003605125910300111,0.002589686719304156,0.0028607761863348137,0.004331095543689026,0.006348190700577415,0.008149331842458295,0.00888908867012038,0.00809879013727471,0.005943854223987564,0.0031226790102226896,0.0002647441539780727,-0.00234966762874051,-0.004849211103266908,-0.007344157428808328,-0.010073437859933638,-0.013018672306066452,-0.015743357005767372,-0.017622608571135828,-0.018449664450013087,-0.018550747860380253,-0.018238306166429966,-0.017360708582369124,-0.015531998722184257,-0.012485680865684272,-0.008391760218996307,-0.003957829160054071,4.8790989506919e-05,0.0033891718952926055,0.006545764625008538,0.010005613256068326,0.013759523490502017,0.017260722363896613,0.01957188195928008,0.01983378194804678,0.017903988677494743,0.01420980877597224,0.009504783430293347,0.004354071365689799,-0.000893132347026173,-0.005777350392511335,-0.009756400434558962,-0.012448923519652681,-0.013726261848878984,-0.013464361860112285,-0.011594298922471434,-0.008253919462597547,-0.0037878239539269345,0.0011928831880615948,0.005709520118403675,0.00883854412981562,0.009679384367844874,0.00802067971378714,0.005737088836707662,0.005548706375125317,0.009045309517095522,0.015753642825389633,0.023431474170626503,0.028908426463938205,0.029827374290333854,0.0253796503668761,0.016677189218330845,0.0062333229310582525,-0.002988336793353662,-0.008400951681845086,-0.008846641235890917,-0.005042189296273641,0.0005220501407443011,0.004928413048406786,0.006187374122177882,0.004004869490586748,-0.0007415058139148322,-0.00646196694844427,-0.011759711232295356,-0.015660650850855412,-0.01785693984159854,-0.018504799051499883,-0.018173977266973215,-0.017466387724160683,-0.016634736113859034,-0.015596324786519834,-0.014204115852653193,-0.012458112147380284,-0.01045939708106828,-0.008469870642483878,-0.00682954607900253,-0.005772754661086946,-0.005157059900913978,-0.004771100679779336,-0.004440278895252668,-0.004123241469877992,-0.0037648509670473364,-0.0033697002830639154,-0.002937795088170078,-0.0025794048688515397,-0.0023772360635323795,-0.002257772562588828,-0.002018845560701724,-0.0014169337421201628,-0.00024986764944711357,0.0015972210822120326,0.003931354798523566,0.006127643789266694,0.0076393162240768865,0.008383665948042185,0.00851231807671334,0.008273391074826239,0.007818512893052802,0.007248761271517855,0.006697392575680466,0.006123048057842304,0.005286803551237442,0.003687832065212072,0.0011101778836859865,-0.0017799185588146204,-0.003856745749686902,-0.004297839572308343,-0.002979148165626058,-0.0003555468762923072,0.002644823872400012,0.005162747153990675,0.0068582091540799976,0.00775418399359605,0.007947165021723959,0.0076806693015328675,0.007234976912365862,0.006738745653136447,0.006214942840481869,0.005631409694916103,0.004827329638039618,0.0037521581295476506,0.0026769869045678014,0.001983180019834558,0.0017626322579874843,0.0019969643789865513,0.002516170893192504,0.003145651997102287,0.003765942488699644,0.004239200761049462,0.004400017339448994,0.004331095543689026,0.004331095543689026,0.0046711087910644745,0.0050478765493503375,0.004400017339448994,0.0014501891464766116,-0.004431087432403889,-0.012609740098052213,-0.021790043909886973,-0.03057060130631392,-0.037738411362927035,-0.042369922016542744,-0.043812658479987096,-0.04182314054676622,-0.03691134981380742,-0.030152477635450904,-0.022851431059226945,-0.015743357005767372,-0.008313649795508736,0.001307752091629227,0.014706040035201656,0.031302289379112454,0.04809153676187822,0.060842012275048686,0.06642924227669751,0.0644948390991152,0.057055906404553686,0.047406911700581755,0.038626314612458364,0.03220286562029525,0.027010789137751016,0.020876791841931544,0.012661378995130455,0.002883752008335586,-0.007279831364472749,-0.016671493459890625,-0.02420228408051643,-0.02867296965036908,-0.02932082319002808,-0.026214786341101602,-0.020237018397620796,-0.012697039149267389,-0.004738936230050959,0.0025483342088724104,0.008585832768776523,0.013203559063240238,0.016479612458778548,0.018616173951731665,0.019677561101071633,0.01955350470382487,0.018188864488262214,0.01529416891219181,0.010800504685217208,0.005167340050293889,-0.0006312317912352368,-0.005248954683553544,-0.007748496740519353,-0.00804256117901443,-0.006861710528730906,-0.00523517032440155,-0.0038751230051421097,-0.003208886539785558,-0.003374296014488305,-0.004316219662884726,-0.005713024328175757,-0.007472809557479483,-0.009627748305887805,-0.011438078075496292,-0.011635651999927416,-0.009260169175329546,-0.004440278895252668,0.0012020726663255514,0.0051857201408702725,0.005750873195859656,0.0026264449158720994,-0.0029699595378984544,-0.009361252585696716,-0.01528847598887276,-0.020328913180260363,-0.024670949456563035,-0.028755670135038696,-0.03272095566378255,-0.036033766405352455,-0.037926805164994075,-0.03784410468032446,-0.03578104370382866,-0.03222472440455314,-0.027735647403639405,-0.022603315429612237,-0.016905827565474516,-0.010854544929930526,-0.004725151870898966,0.0014593786247405678,0.007960949380875952,0.015179301142672647,0.02364742818563401,0.033572087391676414,0.04415842985846861,0.05309983501962801,0.05755673056008632,0.05560395579729116,0.04734717569742822,0.034780529441233325,0.020761924072412383,0.007832294417083621,-0.0022807464000047777,-0.009108541224657618,-0.01304164529294605,-0.014723322933883379,-0.014801433357370952,-0.013978973209918082,-0.012981912124913687,-0.01223756240094839,-0.011998638234182459,-0.012251349595221558,-0.012761365213602967,-0.013239219217377174,-0.013253003576529167,-0.012545414033716635,-0.011084283304090026,-0.00899826635144167,-0.006425209602412679,-0.003870530108838895,-0.0019820879311580157,-0.0008701585096102229,-0.0002590571277110701,0.0002004176927255303,0.0008023296530631503,0.001422620711684742,0.0017626322579874843,0.0018361480840991364,0.0018177691275712234,0.0016431687570439325,0.0012572098194214077,0.0008069245339511873,0.0004669132711605622,0.00038420768327283633,0.0006047554451199095,0.001114772481061906,0.001748847898835491,0.002254270337401568,0.002539144730608454,0.0026723923071918817,0.0028515875586072096,0.003228358152014248,0.0036235060008764945,0.003683236333787683,0.003311061471805034,0.002768881970719484,0.0024150863487768653,0.0024242758270408217,0.0028194242429273033,0.0037475623981232608,0.005139771331989903,0.006826044704351621,0.008627188681353678,0.010175615627074289,0.011158895188047864,0.011131326469743878,0.009656411380965275,0.006531980265856544,0.002029127694666458,-0.0032594282449691426,-0.008616902861731418,-0.013230030589649569,-0.016372836125092334,-0.01774666496838259,-0.017397465928400715,-0.01584444041613454,-0.013910051414158115,-0.012044584207941656,-0.010229661542029955,-0.008070129897318416,-0.005304089285040343,-0.001959114093742066,0.0015282998534763004,0.00461137562303211,0.006881182140959596,0.008002299623210756,0.007892027585115985,0.006605497793040901,0.0043494756342654095,0.0016661423109477652,-0.000934485140970036,-0.003071042948265623,-0.004449467522980271,-0.00514327270664081,-0.005717617224478971,-0.006962793939098074,-0.009209627470145962,-0.012251349595221558,-0.015380370771512329,-0.01774666496838259,-0.01856912511583546,-0.017429630378129092,-0.014424662763963913,-0.009687478638798996,-0.003135369012601201,0.005116798345110305,0.01460036372853127,0.02415744663913659,0.032083393613988175,0.03671031137130066,0.03748682270987316,0.03587865692587784,0.034445106255039916,0.035175660279368526,0.03818522646007926,0.04196211818675608,0.04424572323944143,0.043216489199345134,0.038038197075952906,0.02943680799729012,0.019438634099184535,0.009849389573972009,0.001321536167269103,-0.006195471228253179,-0.01255000693001985,-0.01732854413264075,-0.02025999421962157,-0.02138111170187273,-0.020912446325826128,-0.019180226979705214,-0.01664852047301103,-0.013785995016911348,-0.010707512710682987,-0.007008742747978444,-0.0020510088763816305,0.005057068012199117,0.014949562768513149,0.026349142733576504,0.03538701856295164,0.038171447771169625,0.03294719833353349,0.02108355439409027,0.006132236685569908,-0.007817415701158145,-0.01789829291905452,-0.023177657112329223,-0.02432634331288437,-0.023200632934329994,-0.022221949104780807,-0.02380713906677536,-0.029132457739172783,-0.036745948844468204,-0.043164804940328094,-0.0446397200291067,-0.038253014207369304,-0.02328333625412078,-0.0022118251712690455,0.019907299475231136,0.0379600894875865,0.04888182678936036,0.05234169526626837,0.0500029471067327,0.044282466409867154,0.0364851743988079,0.02624346359178495,0.013157610254359868,-0.0011688172619691026,-0.014024922018798451,-0.02331550070384916,-0.028121606624774045,-0.02900379994025928,-0.02792862843176731,-0.027069408103161673,-0.027501313298055514,-0.02900379994025928,-0.0302305852238173,-0.029555174306339013,-0.02587936882515055,-0.01947888714962468,-0.012209996517765576,-0.006255201561164368,-0.002974552434201669,-0.0024966995644759315,-0.003944044800902077,-0.006287366010892744,-0.008612309965428203,-0.010289391874941144,-0.011125633546424832,-0.011378347742585103,-0.011222124060488786,-0.010537507504555852,-0.009025835069745657,-0.006797384464395328,-0.004385141458644693,-0.002487510086211975,-0.0018120818744945266,-0.0023818306609082987,-0.003617818747799798,-0.004601092638531025,-0.004628661356835012,-0.0032456438858171487,0.00024636516909894797,0.005874932428227597,0.012224875233691052,0.017150447490680665,0.01913997676438624,0.017899392946070354,0.014237374659155049,0.009624246931236898,0.005493568938517344,0.002686176382831758,0.001408836636044866,0.0011699096341577621,0.0012755887759493207,0.0012480203411574513,0.0011377463184778559,0.0014593786247405678,0.0025437393279843733,0.004354071365689799,0.00633900207284981,0.007827701520780406,0.008374477320314582,0.007915000571995583,0.006738745653136447,0.0053373480915422005,0.003991085131434754,0.002709150220247708,0.0015558685717802871,0.0007747612182712808,0.0003888022806487558,-2.0130225053207534e-05,-0.0010631381201775443,-0.0030342856022340325,-0.005611938082687413,-0.008332029886085118,-0.01090508663511411,-0.012972723497186082,-0.014158167043772823,-0.014176547134349203,-0.013069214011250036,-0.011166986623880812,-0.008910967300226495,-0.006590619077115426,-0.004495413496739467,-0.002891846279289708,-0.0018258662336465203,-0.0011366542298013138,-0.0007323163356508757,-0.0005623105624995044,-0.0005806895190274175,-0.000553121084235548,-0.0001120251919756488,0.000976930023590441,0.002640229275024093,0.004519480840392546,0.006274676008514233,0.007593367415196517,0.008397450307194179,0.008696107641992471,0.008576644141048919,0.008227445101067042,0.007685262197836082,0.007019025732479531,0.006334406341425421,0.005819794991619622,0.005649789785492487,0.005769253286436038,0.005957638583139557,0.005980611570019155,0.005544110643700928,0.004409208802297773,0.0026080659593441867,0.0004163709989527428,-0.0020556034737575497,-0.005028404937121648,-0.008910967300226495,-0.013726261848878984,-0.01865183127074742,-0.02234141260572436,-0.023756597361591775,-0.022295466631965168,-0.018330200949069533,-0.012527033943140252,-0.005745185942782958,0.0009355775131586956,0.006435492586913765,0.009876958292275997,0.011305927407295403,0.012541912659065728,0.017012606734281906,0.02718998297160576,0.04166346652220014,0.05553044110522798,0.06381939983042517,0.0643845812366263,0.05817702672192603,0.048482074703710194,0.03887903731398215,0.031067966614013263,0.024423939524206507,0.017416946045992927,0.009353158314742593,0.0007150294677995049,-0.007187936581833186,-0.01300948367833885,-0.016060394431142048,-0.01580768307010295,-0.011516188498983863,-0.0025334571940196396,0.010437518450962163,0.02486044328564591,0.03744086539562927,0.0450911563737739,0.04569308095040075,0.03913635291180916,0.02753458911528442,0.014173051429940646,0.0024656286209846848,-0.005340849466193108,-0.009122325583809612,-0.010785625969291734,-0.013266787935681161,-0.01888156964490692,-0.027896461146917757,-0.03839085779888924,-0.04766306489872709,-0.05367760436384536,-0.055561457330880554,-0.053673011467542144,-0.049137979987505694,-0.043164804940328094,-0.036745948844468204,-0.030680887520014567,-0.025695579259871416,-0.022346008337148754,-0.020792982824882577,-0.02058622027272385,-0.020636761977907436,-0.01980511320272696,-0.01759503985283184,-0.0143970968807811,-0.011346183292856726,-0.009659912755616182,-0.010050464873054039,-0.012306484196708357,-0.01553659161848747,-0.01853696350122826,-0.020200261051589206,-0.019933765331398116,-0.01763179719886343,-0.013753830567182972,-0.009035023697473263,-0.004114050007029213,0.0006461082390637724,0.005148962794838681,0.009137204299735087,0.012422449158122175,0.015009293101424334,0.017072337067193095,0.01868050001606724,0.01957188195928008,0.01943404120288132,0.018101562601925865,0.015758238556814023,0.012983009316808344,0.010331839309170606,0.007781752711900037,0.0050478765493503375,0.0019464221067787319,-0.0013985545020801322,-0.004316219662884726,-0.006158713882221589,-0.006618187795419412,-0.0060806034587340164,-0.00501002768166644,-0.0035305168614634475,-0.0015363969595515972,0.0007425979025913743,0.0025942816001921928,0.0032329510483174624,0.0023829233166090765,0.0005128606624803446,-0.001200980577649009,-0.0016880237761750555,-0.0005760946381393805,0.0015420842126282939,0.003508635396236157,0.004505696481240553,0.004455154776056968,0.003899190348795189,0.003329441562381417,0.0030399728553107287,0.003191597970861482,0.0036189102694521055,0.0038945946173707994,0.0036694519746356897,0.002998619777854748,0.0023829233166090765,0.0021623752712498856,0.0021348065529458986,0.001928043150250819,0.0014777578647805984,0.0009723354262145214,0.0005404290972722141,0.00022798618421982324,-7.067245473420934e-05,-0.0003417625171403137,-0.0005990684755553304,-0.0007277214547628387,-0.0001120251919756488,0.001928043150250819,0.0059392584925631745,0.012059465758988305,0.01959485778128085,0.026721317595559155,0.03125633206486856,0.031917992644648945,0.028775175768721482,0.022985781781459495,0.01618095795910143,0.009752899059908055,0.004547049558696533,0.0009126036757427457,-0.001049353761025551,-0.001430717817760039,-0.0006358263886111563,0.0008344929687430567,0.0027872609272473967,0.005153555691141896,0.007634720492652498,0.009734521804452846,0.01110835348286428,0.01155404303691011,0.011103757751439892,0.009918311369731977,0.008190684919914277,0.0060357490066271285,0.0036740477060600786,0.0011377463184778559,-0.0016742397005351797,-0.004748124857778564,-0.007987420907285282,-0.011226719791913175,-0.014098436710861634,-0.01605579869971766,-0.01699772234811408,-0.017144754567361618,-0.016671493459890625,-0.01554118734991186,-0.013772210657759354,-0.011309425946825137,-0.008309054064084347,-0.005069758014577629,-0.0019820879311580157,0.0003106915736490669,0.0010458512523261734,4.419625037494076e-05,-0.0021245249860053998,-0.004591904010803421,-0.006590619077115426,-0.007720928022215367,-0.007858768778614125,-0.007224693927864775,-0.006209255587405173,-0.0052719276704331405,-0.004656230075138998,-0.004454063254404661,-0.004541362305619836,-0.004426494536100674,-0.003636196003255006,-0.0013204440785925609,0.003108894651070696,0.009132608568310698,0.015142543796641057,0.019167542647569053,0.020068116053630666,0.018119942692502247,0.014173051429940646,0.009366939838773413,0.004478127762936565,-4.3103963239916375e-05,-0.0038062040445033174,-0.006480347039020652,-0.007835795791734528,-0.008162024679957983,-0.007946070664950476,-0.007978232279557677,-0.008842045504466527,-0.010574264850587442,-0.012802718291058945,-0.015293071720297154,-0.018219926075853585,-0.021597065716880238,-0.02527286269270518,-0.028797034552979377,-0.031402255751736746,-0.03244526848074268,-0.03176982921205265,-0.029187600846023103,-0.024707709637715798,-0.018509394782924272,-0.011419697984919909,-0.004527577946467843,0.0013766733203649595,0.00656414471558492,0.01241785626181896,0.020205959645150602,0.03016279747652726,0.04112587084503004,0.05163869861975905,0.06089253413438404,0.0692963719695851,0.07711668516458392,0.08308988856297325,0.08485889077121633,0.08024572335160174,0.06842338145743335,0.05039810629607964,0.028448938375134503,0.005649789785492487,-0.014567099251787062,-0.029872197556107816,-0.039410906046379104,-0.04340834184924547,-0.04258587319642907,-0.03799113406445082,-0.031218454845972916,-0.02409201204242166,-0.018316413754796364,-0.01471872720245899,-0.0131840817807692,-0.013023265202369667,-0.01322543485822518,-0.012297295568980751,-0.009067188147201638,-0.003558085579767435,0.002617255437608143,0.006871993513231992,0.007506068363981342,0.004482723494360955,-0.0007461004112907518,-0.006213851318829562,-0.010537507504555852,-0.013358682718320724,-0.015012791640954067,-0.016092558880870425,-0.01723205645369797,-0.01859669383413945,-0.01995674115339889,-0.021137588968561237,-0.021858965705646938,-0.021771666654431764,-0.02074703685112338,-0.018812647849146956,-0.016423380665397093,-0.01445682721369229,-0.013983568941342471,-0.015559564605367067,-0.01898724878669848,-0.023035220624506074,-0.02621937923740482,-0.02774024029994262,-0.027547262106935883,-0.026049374031277682,-0.023797950439047755,-0.02109623589110526,-0.017728287712927386,-0.01330814101313714,-0.007573895802967828,-0.0006725845851790998,0.0068582091540799976,0.014503873214467318,0.021225993717034597,0.025816151293194325,0.027654052616227973,0.026804020915349943,0.02364283245420962,0.018772394798706807,0.013447078961430558,0.0091096355814311,0.006453869842368973,0.005305183641813824,0.0052132888591742595,0.0054797845793653505,0.005594652348884513,0.0054246471427573766,0.005171935781718279,0.005148962794838681,0.005594652348884513,0.006738745653136447,0.00825041808794664,0.00966100427726849,0.010658065362272885,0.011489716972574534,0.01270732496888965,0.014384409713523765,0.016084467445037477,0.017297479709928204,0.017830471150310386,0.01770641475306362,0.017090717157769476,0.016038518636157108,0.014581983637954887,0.012523535403610519,0.009610462572084906,0.005902501146531583,0.0018361480840991364,-0.0016880237761750555,-0.0037234978895913564,-0.004026750955814038,-0.0029837438970504475,-0.001582344634383497,-0.0006725845851790998,-0.0003693312354443007,0.0003336654110650169,0.002745908416815651,0.007455526658797757,0.014044396466148317,0.02117085628042662,0.026441037516216074,0.02749323603782844,0.023178762809587403,0.014205213044547848,0.0028975363674875795,-0.008014992460710444,-0.016680684922739407,-0.02253439363385227,-0.026072349853278456,-0.02820430994456483,-0.0295505814100358,-0.030124920257631613,-0.029421923611122298,-0.026563985381083483,-0.02109623589110526,-0.0136757201436954,-0.005933571239486478,0.0005450236946481337,0.00475840784227965,0.0060908864432351025,0.004592998367576902,0.001647763354419852,-0.0005669051598754239,0.0005358342163841771,0.006559548984160531,0.016764488269546022,0.028573003277744796,0.03900310221659245,0.046281198486906205,0.050402699192382855,0.0520660080832285,0.05127568970453461,0.04750801212167597,0.04061586089689099,0.031058752470195086,0.020017574348447083,0.00899476781191194,-0.0008609690313462666,-0.008887994313346897,-0.014962249935770482,-0.019304286212073155,-0.022116269962989252,-0.0234946945377039,-0.02335225804988075,-0.021105427353954036,-0.015747949902070586,-0.007197125209560789,0.002745908416815651,0.011319708931326222,0.016231499664285016,0.016254472651164614,0.011737832602189241,0.00453326519954454,-0.0030848273074176166,-0.009365848317121105,-0.013588421092480225,-0.016064990162566437,-0.017415846018977096,-0.018196953088973986,-0.018546152128955867,-0.018385335550556332,-0.017847751213870937,-0.01730097824945794,-0.01702069817011485,-0.01708502423445043,-0.017259622336880782,-0.017144754567361618,-0.016432569293124696,-0.015118470782745625,-0.01349193057841627,-0.011906743451542896,-0.010633998018619806,-0.009770184793710956,-0.009260169175329546,-0.008874209954194903,-0.008557172528820229,-0.008318245526933124,-0.008212566385141567,-0.008217159281444782,-0.008240135103445553,-0.008359598604389106,-0.008644471580035404,-0.008952320377682477,-0.00900286208286606,-0.008681228926066995,-0.008258512358900762,-0.007867960241462905,-0.007583084430695432,-0.0074636209297518795,-0.007803634177127327,-0.009080972506353632,-0.011534568589560246,-0.015035764627833667,-0.01901481466988129,-0.022538989365276662,-0.024670949456563035,-0.025199345165520824,-0.024565270314771476,-0.02334766231845636,-0.021702744858671796,-0.019313474839800757,-0.015931742302470894,-0.011415105088616694,-0.005547612018351835,0.0015972210822120326,0.009541543611446112,0.017545598174664084,0.02444691534620728,0.02875218293599366,0.02957924448511327,0.027470260215827668,0.02378526894203277,0.01977405161513559,0.016061491623036706,0.012964632061353136,0.010575359207360923,0.00865935029596088,0.006734149921712057,0.00479976091973563,0.0035775571919961246,0.0042943381976574355,0.007510664095405731,0.012353530197483382,0.01724693800474462,0.020853818855051946,0.022645771369205224,0.022985781781459495,0.022480359059381304,0.021740605066840394,0.021322481395977373,0.021409783282313723,0.021997909324182705,0.02285712965278834,0.023656616813361613,0.02390013671155193,0.0229628087945799,0.020435695184188928,0.01648880392162733,0.011829727384828806,0.007129297770574303,0.0026632028289279254,-0.0014996393300078887,-0.0051754371563691864,-0.008088507152773625,-0.00986207957635052,-0.010330744952397122,-0.009857486680047305,-0.009338279598817119,-0.009558826510127839,-0.010748865788138969,-0.012563791289171842,-0.014406285508508705,-0.01566983947858302,-0.015982284007654477,-0.01546307692642429,-0.01474170018933859,-0.014424662763963913,-0.014479800200571886,-0.014061679364830043,-0.012306484196708357,-0.008956916109106865,-0.0047986693980833234,-0.0011458434245531527,0.0009447669914226521,0.0013031572107411902,0.0003933971615367928,-0.0011366542298013138,-0.0029331993567456886,-0.004908941436178095,-0.006907656502490101,-0.008883398581922509,-0.010441016990491898,-0.01136456338343311,-0.011585110294743831,-0.011006172880602454,-0.009604772483887034,-0.00777606545882334,-0.006089792086461621,-0.005423552785983894,-0.006370072165804705,-0.00859392987485182,-0.010624809390892201,-0.010041276245326436,-0.00496407887278607,0.0042943381976574355,0.015248222938432613,0.024653677898366005,0.03024090506489366,0.031444725866935606,0.029096820266005248,0.024970715323740685,0.020743543981836,0.017674250303335245,0.016323394446924582,0.016906927592490347,0.0192456559061778,0.022834156665908743,0.02730485074112492,0.03194555002246824,0.034725386334383004,0.033259657038210835,0.026399687273881266,0.014802530549265608,0.0009355775131586956,-0.012017015489637668,-0.021367324507599563,-0.026067754121854067,-0.0269499474373393,-0.025626657464111448,-0.023407395486488722,-0.021018125467617686,-0.01859669383413945,-0.01603742144426245,-0.013055429652098044,-0.00908556823777802,-0.003576465670343817,0.003508635396236157,0.011526474318606124,0.019682156832496026,0.02730485074112492,0.03338831483712434,0.03685734075542703,0.03666897530457173,0.03218449403508239,0.023780676045729553,0.012964632061353136,0.0017764163336273606,-0.007854175882310912,-0.014677374125003011,-0.018371551191404337,-0.019221580057161194,-0.017723691981502997,-0.01464061677897142,-0.010882113648234513,-0.007573895802967828,-0.005906002521182491,-0.006370072165804705,-0.008235539372021164,-0.010266418888061546,-0.011585110294743831,-0.011562137307864232,-0.010142359655693605,-0.007978232279557677,-0.005965732854093679,-0.004706771780322583,-0.004522982215043454,-0.005267331939008752,-0.006328719088348725,-0.007091448902890405,-0.006756031386939348,-0.004738936230050959,-0.0010631381201775443,0.003311061471805034,0.007037402987934738,0.00902692942651914,0.008705296269720074,0.006095479339538318,0.001707495104891628,-0.003672953349286597,-0.009030430801170048,-0.013487334846991881,-0.01652446407576426,-0.018118842665486416,-0.01851858624577305,-0.018219926075853585,-0.01754909104395147,-0.016602574499251833,-0.015297667451721543,-0.01382734809436733,-0.012724607867571375,-0.012683254790115395,-0.013978973209918082,-0.016271752714725165,-0.018867785285754928,-0.021087047263377654,-0.02228627800423756,-0.0222265448362052,-0.020981368121586096,-0.01891373125951412,-0.01644635365227669,-0.013868701171823308,-0.011787279950599343,-0.011024550136057663,-0.011185366714457195,-0.009981543077294073,-0.005216790233825167,0.002874560545486807,0.011815943025676812,0.018910238390226743,0.02300416187203588,0.024979903951468287,0.026491579221399657,0.02866488955502084,0.03163771256530586,0.03517106738306531,0.038401177639965596,0.03975664907364887,0.037762509892913035,0.031679048632034794,0.022167917365431018,0.011439172432269773,0.0022956228478333133,-0.003355915923911922,-0.004904348539874881,-0.0031169917571459934,2.1222506517989564e-05,0.0022496754565135306,0.002506981414928548,0.0009677405453264846,-0.001412338861232126,-0.0034294334510962788,-0.004522982215043454,-0.004624068460531797,-0.0040313466872384275,-0.0034937595154318564,-0.0038016083130789275,-0.0052903049258883495,-0.008318245526933124,-0.012922181792002498,-0.01838993128198072,-0.02346712581939991,-0.02659614983081186,-0.026688044613451423,-0.02353604761515988,-0.017792613777262965,-0.010932655353418098,-0.004591904010803421,0.00014987547722013436,0.003141056265677898,0.004873278446919987,0.006357379328305018,0.008383665948042185,0.011457552522846156,0.01604770726388471,0.021818715490327965,0.027552969205860804,0.031421761385419536,0.03170204146476262,0.02784703364435588,0.02093652500996391,0.013024362394264324,0.006141428148418687,0.0012158570254775446,-0.0019545192128540283,-0.003769443863350551,-0.004771100679779336,-0.005432744248832673,-0.005814107738542926,-0.0058049162756941474,-0.0052443589521291535,-0.00406350830184563,-0.002446157292268112,-0.0008885377496502536,0.00017744394036321557,0.0008574668061590067,0.0018131745301953038,0.003600530178875722,0.006017368916050746,0.008071221418970724,0.008824762605784802,0.007887431853691595,0.005502757566244947,0.0022267016190975807,-0.0013847704264402564,-0.004977863231938063,-0.008400951681845086,-0.011484026884376662,-0.013877889799550914,-0.015398750862088712,-0.01600985272595846,-0.016019041353686068,-0.015839844684710152,-0.015113877886442412,-0.012697039149267389,-0.007748496740519353,-0.000553121084235548,0.007087944693118323,0.012845165725288408,0.015307953271343804,0.014995511577393516,0.013460863320582552,0.011664317910126058,0.009601273944357301,0.006959292564447167,0.003609721641724501,-6.345982141182227e-06,-0.002910226369866091,-0.004219729148820772,-0.003971613519206064,-0.0033880803736402983,-0.003898098827142882,-0.006020870290701653,-0.00878231517155534,-0.010179117001725196,-0.008299865436356742,-0.0016191025474393231,0.009904527010579983,0.024373397819022924,0.03856660696051657,0.04874398319784042,0.05253465361342688,0.05002131869194555,0.043588655555964265,0.03655409619456787,0.03129769648280924,0.028237585761793742,0.026730506223286758,0.025627765996490803,0.024162039535439807,0.02236089555843775,0.020164606567694622,0.01640150487041215,0.009178557377191067,-0.0022715569217408214,-0.016115531867750024,-0.02857649047678983,-0.03648404035033797,-0.038919267683452906,-0.03720540858206015,-0.033534210172780764,-0.029651653479918272,-0.026274516674012795,-0.023554424870615088,-0.021385704598175948,-0.019722407047815,-0.018706968707355397,-0.01851398767922749,-0.019010221773578077,-0.019713218420087397,-0.019984307036581703,-0.0194375340721687,-0.01835317393594913,-0.017305571145761152,-0.016827717141986942,-0.01712637731190641,-0.018183168729821994,-0.0196994340609354,-0.02107326290422566,-0.021748690832430993,-0.02140408468875233,-0.020011875754885687,-0.01769152753177462,-0.014479800200571886,-0.01041344827218791,-0.0059565442263660754,-0.0018396505927985138,0.0012618047003094446,0.0029159136229427876,0.00289294063606319,0.0014731629838925615,-0.0007736688460826212,-0.0034524064379758764,-0.0063470991789251075,-0.009145301405810385,-0.011451862434648286,-0.01295893913803409,-0.01357463673332823,-0.01327138366710555,-0.012072152926245642,-0.010211281451453573,-0.007748496740519353,-0.004440278895252668,0.0007242189460634614,0.008760436541449224,0.019038890518897896,0.02906004874436778,0.035947578721637806,0.0382909197774767,0.03670571847499745,0.032928826748320636,0.02872003266187116,0.025140720529867818,0.022540092227413665,0.020784899894413154,0.019213491456449423,0.016971253656825926,0.013690601694742052,0.00966560000869288,0.005415458515029772,0.0015420842126282939,-0.0014720706117039017,-0.0035029481431594605,-0.004408114445524291,-0.004150807353060804,-0.0025288625966437203,0.0003106915736490669,0.0035591799365409164,0.0062333229310582525,0.007846078776235615,0.008411234666346171,0.008300959793130225,0.007800132802476419,0.006940912473870783,0.005714115849828064,0.004050818299467117,0.0019464221067787319,-0.0006312317912352368,-0.0038062040445033174,-0.007431456480023502,-0.010840760570778532,-0.013055429652098044,-0.013482741950688668,-0.01221918514549318,-0.009917217012958494,-0.007472809557479483,-0.005432744248832673,-0.003999182237510051,-0.003204290808361168,-0.003126180384873597,-0.003640791734679396,-0.004431087432403889,-0.004973267500513674,-0.005023812040818433,-0.00455514666477183,-0.003939449069477688,-0.003521328233735844,-0.003521328233735844,-0.0039762092506304535,-0.004683798793442986,-0.005267331939008752,-0.005547612018351835,-0.005621126710415017,-0.005667075519295388,-0.005768158929662556,-0.005662479787870997,-0.004991647591090056,-0.0035810614017682068,-0.001655860460495149,0.0004623183902725252,0.0026723923071918817,0.004910035792951578,0.00697767265502355,0.008810975411511634,0.010244537422834255,0.010998078609648331,0.011002671505951547,0.010552386220481326,0.010092912307283501,0.009964260178612346,0.010102100935011106,0.00978506350963643,0.008075817150395114,0.0044919121220885596,-0.0004520365398199091,-0.0056073451863841986,-0.009756400434558962,-0.011833225924358539,-0.011580514563319442,-0.009609368215311423,-0.0069306323244908725,-0.0043943300863722974,-0.002423183454852162,-0.0008517795530823101,0.0009355775131586956,0.00353161121823693,0.007280925721246233,0.012390287543514974,0.01875861043955481,0.025361270276299717,0.0305395567294496,0.032754239986374986,0.031444725866935606,0.02722674031763735,0.021405190386010513,0.015675532401902063,0.011815943025676812,0.010474275796993754,0.010556981951905716,0.010028586242947923,0.007285518617549447,0.0019693956606825643,-0.004899752808450492,-0.011415105088616694,-0.016028232816534847,-0.01853696350122826,-0.019795924574999357,-0.020972179493858493,-0.02275494054516299,-0.024868526216115332,-0.026508847944475507,-0.027110761180617657,-0.026325058379196378,-0.023816327694502964,-0.019304286212073155,-0.012311079928132745,-0.003374296014488305,0.005530326284548935,0.011917029271165155,0.014568199278802893,0.014085749543604297,0.012211090874539058,0.010451302810114159,0.009247479172951035,0.008135547483306303,0.006573333343312525,0.0044597505074813575,0.002268054696553561,0.000581781891216077,-0.0003233835606124008,-0.0003463573980283508,0.00014987547722013436,0.00014068597060496615,-0.0013893653073282933,-0.004674610165715382,-0.009080972506353632,-0.013400035795776706,-0.016423380665397093,-0.01711718584905763,-0.015196581206233198,-0.011226719791913175,-0.006167902509949192,-0.0010631381201775443,0.0031594363562542807,0.005764657555011649,0.006398732405760999,0.005723304477555668,0.005024903562470741,0.005273019192085448,0.00652738736955333,0.007974733740027945,0.00829177116540262,0.0068903707686872005,0.004133521619257904,0.0008988196001028697,-0.0020280350389656806,-0.004522982215043454,-0.007031715734858042,-0.009935597103534876,-0.01345057750096029,-0.01734692422321713,-0.021004341108465694,-0.024160933838181624,-0.02688102564157933,-0.029104872010141745,-0.030331685644911517,-0.029490845406882266,-0.025589900118079857,-0.018357769667373517,-0.008534196706819456,0.0024104917514009457,0.013166798882087475,0.02289388699881993,0.031058752470195086,0.03747304402096352,0.04213214040361026,0.04536684355681377,0.0481190941396975,0.05094948066215938,0.05332956488842399,0.05407392595287398,0.05202923656159104,0.046506335459398966,0.03715599241998297,0.02438258644675053,0.009238287710102256,-0.006544673103356231,-0.020388646348292724,-0.030359243022730808,-0.0360796953683846,-0.038436815113133134,-0.0390295255459418,-0.03884116009508651,-0.03835870752476674,-0.03782570474389986,-0.03740298817673362,-0.036934342646535244,-0.035698343219159046,-0.032996642846822424,-0.028084849278742455,-0.019929169599973727,-0.008727177734947364,0.0031226790102226896,0.012238659592843044,0.016185550855404646,0.0151011878840639,0.011273762957567027,0.007464715286525361,0.005351132450694194,0.00507085237135111,0.005755468927284044,0.006168996866722675,0.005746280299556441,0.004910035792951578,0.00424839222389824,0.003651074719180482,0.0025253603714564606,0.0005312396190082576,-0.0020693878329095436,-0.004670014434290992,-0.0066411636174201856,-0.007592275893544211,-0.007413079224568295,-0.006301150370044737,-0.004500009228163856,-0.0022715569217408214,0.00011311747911067318,0.0021669701521379223,0.0033248458309570275,0.003412147717293378,0.002640229275024093,0.001523705256100381,0.0005863764885919965,0.00017284920123123733,0.00040718123717666877,0.0011607198723816883,0.002093454042514153,0.0030491614830383327,0.004096764273226312,0.005443024398212584,0.007147677861150686,0.00899476781191194,0.010644281003120891,0.011737832602189241,0.012146764810203482,0.011857296103132794,0.011048620314831916,0.009890742651427989,0.00843420765322577,0.006697392575680466,0.004836518265767221,0.003274304125773443,0.0023140018043612265,0.001973990541570601,0.0021164275964179855,0.002396707392248952,0.002497791936664591,0.002189943706041755,0.0013950522768928725,0.00019122818611036209,-0.0011228698706493203,-0.002248583084324871,-0.002988336793353662,-0.003406460464216681,-0.003774039594774941,-0.0042564864948523625,-0.004954890245058466,-0.006742247027787354,-0.010794814597019338,-0.01724584081284996,-0.024804197316658578,-0.03145280596228386,-0.035776450807525444,-0.03711352230478411,-0.03546861335036307,-0.031200083260760056,-0.024776631433475766,-0.01652446407576426,-0.0066457565137234,0.004115144363802696,0.014407382700403362,0.023068487936371458,0.02963438759196359,0.03443132756613027,0.03790494638073618,0.04036313819536719,0.041732388317960105,0.04151643713807378,0.03987149983244099,0.03715599241998297,0.03338831483712434,0.028393795268284183,0.022223054802038993,0.015441201131439347,0.009063689607671904,0.003899190348795189,0.00021420193847267679,-0.002216419768644965,-0.0038291770313829145,-0.004761909216930557,-0.0046148798328041925,-0.0028091421089625696,0.0006736766738556419,0.00498355048501476,0.008530698167289723,0.009615058303509295,0.007290114348973836,0.0017166845831555846,-0.005722212955903362,-0.012876235818243304,-0.01816938437067,-0.021004341108465694,-0.02173031357697578,-0.021054882813649277,-0.01942374971301671,-0.017071239875298436,-0.014181142865773596,-0.010794814597019338,-0.006756031386939348,-0.001968303572006022,0.0036143145380277157,0.009858578201699613,0.01628663710089299,0.022089806941943447,0.02670294034010395,0.029841152979243495,0.03127013910498995,0.030576328251087064,0.027819464926051893,0.02382662201948875,0.01991648810295874,0.01691152048879356,0.014517657573619308,0.011949190885772357,0.008346905766889418,0.003430524972748586,-0.0023404781504765535,-0.00818499766683758,-0.013354086986896337,-0.017420438915280313,-0.020145123614981233,-0.021615442972335447,-0.022249517823084798,-0.022575746711308253,-0.022731967558283394,-0.02280548508546775,-0.022998463278474487,-0.02360496657579867,-0.024647976469683437,-0.025626657464111448,-0.02609991573646127,-0.02581044702939058,-0.024804197316658578,-0.02324657890808919,-0.021583281357728246,-0.020145123614981233,-0.01891832699093851,-0.01745260336500869,-0.015233338552264789,-0.012095128748246415,-0.00826770382174954,-0.0038383656591105186,0.001059635611478167,0.006490630023521738,0.01233974583833139,0.0170585527080411,0.01785344413718998,0.01288651880274439,0.002837803199455216,-0.00937503694484871,-0.020154315077830012,-0.026830481101274572,-0.028512161577333075,-0.0259988323260941,-0.020742441119698994,-0.013799779376063342,-0.005947355598638471,0.0017120899857796651,0.008039059804363523,0.01237650318436298,0.014655501165139244,0.015262004462463433,0.01469685140747405,0.01329545101075863,0.011089973392287898,0.007763372621323653,0.003265115498045839,-0.002257772562588828,-0.008286081077204748,-0.013910051414158115,-0.01815100428009362,-0.020255395653076005,-0.02004863310091728,-0.017709907622351,-0.013565448105600628,-0.00806093843446964,-0.0017661344831747445,0.004919224420679181,0.012247851055691825,0.020996255342875095,0.030700364802485607,0.03903525249071495,0.042954580705214906,0.040381538131791794,0.031656084150518723,0.019461609921185306,0.007322278798702212,-0.00187640850585434,-0.007151179235801593,-0.009361252585696716,-0.010073437859933638,-0.01027101178436476,-0.010441016990491898,-0.010578860582011832,-0.010174524105421981,-0.008318245526933124,-0.0037878239539269345,0.0036786434374844685,0.012757866674073234,0.02099166244657188,0.026183730423752584,0.027663241243955576,0.02623427212893617,0.023293630579106567,0.019755671524559208,0.01611203616334146,0.012776246764649616,0.01001480188379593,0.00775418399359605,0.005746280299556441,0.003811888462458839,0.0021853491086658355,0.0011239622428379798,0.0004669132711605622,-0.0002866256475565748,-0.0017477555266468313,-0.004426494536100674,-0.008162024679957983,-0.012113506003701622,-0.01537577504008794,-0.017622608571135828,-0.01929969048064877,-0.020903257698098525,-0.022240329195357192,-0.022401145773756726,-0.02043459232205192,-0.015881197762166132,-0.008892587209650112,-0.0004520365398199091,0.008094194405850323,0.015629586428142866,0.0214741093466493,0.025425596340635293,0.027667836975379966,0.028136502351426573,0.026225083501208564,0.0214419477320421,0.014159267070788652,0.005677358503796474,-0.0020142509633258045,-0.007210909568712783,-0.008855829863618521,-0.006981174029674457,-0.00280454751158665,0.0020658856077222835,0.0061138594301147,0.008218253638218263,0.007744995365868446,0.005011119203318747,0.001284778254213277,-0.0017845134397026575,-0.002708057848059048,-0.0003831153110841767,0.004978957588711545,0.011779185679645221,0.01741235031456854,0.019792431705711974,0.01842319575872493,0.013993854760964732,0.007427957940493771,-0.0002590571277110701,-0.007844987254583307,-0.014300606366717148,-0.019060763478761664,-0.021716529217823792,-0.02213924294986885,-0.020577031644996246,-0.017291786786609156,-0.0126694704309634,-0.007215505300137172,-0.0016236974283273602,0.0033753875361406116,0.007313087335853434,0.009716141713876464,0.010262917513410639,0.008935034643879574,0.005773849017860428,0.0010320671766862973,-0.004559742396196219,-0.010110195205965228,-0.014792244729643347,-0.0184772303331959,-0.02149598230651307,-0.02411498786442243,-0.02626532804628519,-0.027395636991385128,-0.026968324692794504,-0.024772035702051377,-0.020714872401395003,-0.015044956090682444,-0.008584741247124215,-0.0024599416514201056,0.0024518445453448083,0.00615521250757068,0.009619651199812508,0.013957097414933142,0.019640803755040043,0.025820747024618715,0.030852015434126936,0.03340668642233719,0.032818568885831734,0.029524129729474692,0.024805305849037937,0.019971625539566714,0.015900677879758348,0.013143825895207876,0.011811347294252423,0.011126730738319487,0.010313459218594223,0.008820166874360411,0.006191969853602272,0.002189943706041755,-0.0027586001202668676,-0.007357941787960322,-0.010013704691901274,-0.009797753512014942,-0.006857114797306516,-0.0023910201391722555,0.001909664193722906,0.004689486046519683,0.005470593116516571,0.004684893150216468,0.003402956254444599,0.0029159136229427876,0.0032145737928622547,0.002258865218289605,-0.002432372933116118,-0.01177349559144735,-0.024119580760725644,-0.03587295833231644,-0.04353237840064401,-0.04537027405343531,-0.04196557703458936,-0.03521129775253606,-0.02686264555100295,-0.018206141716701593,-0.010468585708795884,-0.004784885038931329,-0.0017845134397026575,-0.0013250386759684806,-0.0024783206079480183,-0.004109457110725999,-0.005253547579856758,-0.005543016286927446,-0.004945698782209687,-0.0037097135304393633,-0.0022991253565326905,-0.0010861119575934944,-0.00019932540559050593,0.00028312316720840915,0.00024636516909894797,-0.0005393367250835545,-0.0021245249860053998,-0.004054319674118025,-0.005745185942782958,-0.006783600105243334,-0.007040904362585647,-0.006586023345691036,-0.005676264147022991,-0.00459649974222781,-0.0034615979008246547,-0.0020601983546455873,-6.60777156022311e-05,0.002709150220247708,0.006550360356432927,0.012087034477292292,0.01952593598552088,0.027337015190853298,0.032671511150493625,0.03302992716941485,0.02793892559187427,0.018951591467682723,0.008636377309081282,-0.0006633951069151433,-0.007642817598727795,-0.012145670453429997,-0.014631428151243816,-0.015679028106310618,-0.015458481194999898,-0.013896267055006122,-0.010629402287195416,-0.00496407887278607,0.0034489050633249685,0.013447078961430558,0.02263658274147762,0.028577596174048012,0.030084689888160866,0.0275437805781332,0.022342518302982544,0.01621311957370863,0.010708609902577644,0.006633066511344888,0.004041626836618338,0.002157780673873966,-6.60777156022311e-05,-0.00305266285768924,-0.006351692075228322,-0.009250977712480768,-0.010923466725690494,-0.01068453972380339,-0.008538792438243846,-0.005083542373729622,-0.0010539486419135877,0.003053757214462722,0.00697767265502355,0.010474275796993754,0.013024362394264324,0.013865202632293575,0.012569481377369714,0.00970695308614886,0.0067203655625600635,0.005121394076534695,0.005447620129636974,0.0071660579517270695,0.009095851222279107,0.010207780076802665,0.01020318718049945,0.009233694813799041,0.00757499015974131,0.00539707842445339,0.0024656286209846848,-0.0011550329028171091,-0.004284058048277525,-0.005014620577969654,-0.002234798725172878,0.0031226790102226896,0.008751245078600445,0.012491370953882143,0.013120852908328278,0.010474275796993754,0.005406267052180993,-0.0007185319764988823,-0.006847926169578912,-0.012568387020596233,-0.017627204302560217,-0.02161085007603223,-0.024569866046195866,-0.027115356912042046,-0.029509216992095126,-0.031209269053366483,-0.031158747194031125,-0.02850756868102986,-0.02304900498365807,-0.015394155130664323,-0.006861710528730906,0.0012801833733252401,0.008085005778122718,0.013051931112568312,0.016226903932860626,0.017835066881734776,0.017991287728709917,0.01673232665493882,0.013984666133237128,0.01015723837161908,0.00615521250757068,0.002883752008335586,0.0009953092636304716,0.0005266447381202206,0.0010274722957982604,0.0019969643789865513,0.0028515875586072096,0.002938886609822385,0.0018637165188910058,-0.00017175691409621296,-0.0022807464000047777,-0.003640791734679396,-0.0038751230051421097,-0.0033880803736402983,-0.0026667050541151855,-0.001738566048382875,-0.00013040417685477354,0.0024334655888168955,0.005741684568132051,0.009045309517095522,0.011328900394175001,0.0118435117439808,0.01034102793689821,0.007354443248430589,0.004046222568042728,0.0017764163336273606,0.0013720784394769224,0.002681581785455838,0.004689486046519683,0.006191969853602272,0.00656414471558492,0.0058151992601952335,0.004257580851625845,0.002171564749513842,-7.067245473420934e-05,-0.0022118251712690455,-0.004077292660997623,-0.005676264147022991,-0.007169556491256802,-0.008446897655604281,-0.00900286208286606,-0.008286081077204748,-0.00627817738316514,-0.003659171825255778,-0.0013204440785925609,0.00017284920123123733,0.0006828661521195985,0.00043934455285657523,-0.00027743611259019486,-0.0012055751750249285,-0.0022026356930050887,-0.0032824012318487398,-0.0045781196516514275,-0.006273581651740751,-0.008313649795508736,-0.010565076222859838,-0.012811906918786552,-0.014636021047547028,-0.01557794469594345,-0.015017387372378456,-0.012807314022483337,-0.00945314736833628,-0.005938166970910867,-0.003089423038842006,-0.0013709863508003803,-0.0008288059991784775,-0.0011274644680252398,-0.0021704723773251825,-0.003856745749686902,-0.005837080725422524,-0.007592275893544211,-0.00854798106597145,-0.0081758062039888,-0.006411425243260686,-0.004040535314966031,-0.0021107406268534067,-0.0014215283394960823,-0.002179661855589139,-0.0040313466872384275,-0.0063057461014691275,-0.008341218513812722,-0.009802349243439333,-0.010486965799372267,-0.010220470079181176,-0.009053403788049644,-0.007298211455049132,-0.005363822453072706,-0.003617818747799798,-0.0022531776817007907,-0.0013617965890243063,-0.0010998960332333704,-0.0018672190275903834,-0.0034937595154318564,-0.005611938082687413,-0.008065534165894029,-0.010519130249100643,-0.012697039149267389,-0.01434655234047634,-0.01531604470717675,-0.015587133323671055,-0.015311451810873537,-0.01433276798132435,-0.012329460018709128,-0.009062592415777249,-0.0038245812999585255,0.004919224420679181,0.017545598174664084,0.03196851450398431,0.04457193228181666,0.052805747900163534,0.05673888315478489,0.057781895883790825,0.057538358974873464,0.05705131350825048,0.056568860937930704,0.05617832299609873,0.055190453373943106,0.052300330848327685,0.04652470704461182,0.03794171790237365,0.027727567308291155,0.01746748491605534,0.008581239872473308,0.0018820957589310361,-0.0025794048688515397,-0.005294900657312738,-0.006847926169578912,-0.007523354097784244,-0.0074636209297518795,-0.006907656502490101,-0.0062368243057091596,-0.005713024328175757,-0.005451121504287881,-0.005547612018351835,-0.0060806034587340164,-0.007022524272009264,-0.008304461167781132,-0.009728831716254974,-0.011121040650121617,-0.01226053822294916,-0.013014076574642063,-0.013482741950688668,-0.013850321081246925,-0.014328175085021133,-0.0149668428320737,-0.015582540427367841,-0.015816871697830553,-0.015297667451721543,-0.013942215863886493,-0.011948096528998876,-0.009627748305887805,-0.007619841776727022,-0.006553861731083834,-0.006903063606186886,-0.008644471580035404,-0.01121753116418557,-0.013969784582190477,-0.016492302461157057,-0.018550747860380253,-0.02005322883234167,-0.020912446325826128,-0.021045694185921674,-0.020512705580660668,-0.019648892355751818,-0.018734537425659385,-0.017967214714814488,-0.017140161671058404,-0.016019041353686068,-0.014291417738989542,-0.011759711232295356,-0.008460682014756275,-0.004522982215043454,6.257523525406549e-05,0.005305183641813824,0.010782124594640825,0.015473365581167724,0.018211837475141813,0.018211837475141813,0.015335521989647789,0.010184807089923068,0.004046222568042728,-0.0013572019916483868,-0.0047573163206273425,-0.005667075519295388,-0.0043529770089163165,-0.0016650499387591057,0.0016799266700997587,0.005015714934743136,0.007717426647564459,0.008866112848119608,0.0072763299898218415,0.0021348065529458986,-0.005951948494941686,-0.015178201115656815,-0.02348550307485512,-0.029173793805901713,-0.031498734925316,-0.03030409991588048,-0.025617466001262672,-0.017627204302560217,-0.007151179235801593,0.004436774685480585,0.01598797693097352,0.026928080147717883,0.03681141179239488,0.04468681139182052,0.049658338127932855,0.051340018603991365,0.04996161104000377,0.046193905105933374,0.0406526040673167,0.0340269825841769,0.027663241243955576,0.02324308887392298,0.02169006336165681,0.022696315909509983,0.025048825747228255,0.02722674031763735,0.027870003796114304,0.026133188718569,0.021965747709575503,0.01594662385351754,0.009178557377191067,0.002635634394136056,-0.002937795088170078,-0.0073257801733531205,-0.010592644941163824,-0.012825691277938544,-0.014470611572844284,-0.016087963149446036,-0.017990187701694086,-0.02036107762998874,-0.02331550070384916,-0.026669664522875038,-0.02972057527567824,-0.03137010547761424,-0.030928988974023398,-0.028645412272549797,-0.025516382590895503,-0.022777913532042587,-0.021178942046017217,-0.020696495145939797,-0.020871096083491324,-0.02106867000792245,-0.020802174287731356,-0.01984187054875855,-0.01816938437067,-0.015876602030741743,-0.013161108793889601,-0.010326149220972735,-0.008005800997861664,-0.0067376512963629644,-0.006664136604299782,-0.007601464521271814,-0.009205031738721572,-0.011006172880602454,-0.012471896506532278,-0.013289760922560758,-0.013386251436624712,-0.01277055384133057,-0.01154835294871224,-0.009590988124735042,-0.006512508653627854
