0.5120634881345594,0.5717477067365304,0.5636876785481817,0.4792112128325657,0.3162411951553337,0.1373807108919433,0.039652832749279845,0.06081539163027064,0.17058299507190308,0.30438568109284325,0.4012351211682214,0.44153880458100453,0.43584778459463,0.4061531271581121,0.37475475824922294,0.3596907593349088,0.37571489528224156,0.42594186076729984,0.4987580999466743,0.5708218030834291,0.619553016719779,0.633171235677341,0.6104476864459478,0.5560925935259187,0.47768734172139315,0.38980292963656493,0.3070939084033317,0.2458871870630006,0.2189006311452815,0.22844508927462973,0.2637036033563783,0.31090928095874326,0.3513621458848443,0.36653115065596686,0.3553144701748913,0.33622810023309135,0.33607555732777683,0.3649584423053496,0.4197812779800559,0.4901356545711778,0.556331318986763,0.5741876885922252,0.47221738484357945,0.2900726747388383,0.15059838593175698,0.08302152538624726,0.08005703543773109,0.12484069093319042,0.13551465816175698,0.025651368676747117,-0.13077955362909424,-0.29807388332961654,-0.4591836149851166,-0.5918466616997096,-0.6787849390970586,-0.7265073286747471,-0.7495139434035429,-0.7574590860008406,-0.7458112386356536,-0.694594741655621,-0.5344466138251274,-0.12042369080980024,0.4088672048736753,0.6765408167521342,0.7304578332202807,0.540441014153526,-0.16469366651809808,-0.6318026262782189,-0.7474218845440139,-0.7626474852155685,-0.7356672942971455,-0.6692133578109821,-0.5280544310922024,-0.23378125409308276,0.19013457662805974,0.4998283171483435,0.6431042840371505,0.6950941349756976,0.6941596644036333,0.640622043848669,0.502585812569666,0.28501205412563846,0.07718172783776428,-0.048883265192262486,-0.09409381677865052,-0.09476533609951662,-0.0869237622637978,-0.0899763728919131,-0.11033483540734348,-0.1477080891109177,-0.18717326516158908,-0.18514998689296,-0.1027425708315762,0.024611388322890834,0.13863284375928472,0.21450714384578842,0.24758411088172125,0.24191410721546192,0.2112237427572864,0.16614278212038427,0.11711771319805973,0.07335293325394204,0.04334310098946898,0.03155350002563928,0.03542007556921271,0.04177937504972827,0.03351438879152681,0.0044355521509632095,-0.037734587120179915,-0.07570543910165091,-0.08718343740576731,-0.07534341236825844,-0.05427692936873825,-0.03127006329044004,-0.006827665777753687,0.026059547941686224,0.07362761180912686,0.12938051043494483,0.1679912562781232,0.16233786726521118,0.11256706107390282,0.04337821629181789,-0.016332642574621775,-0.05484616592186146,-0.07367889905216356,-0.08121924669001576,-0.08572089142275385,-0.0921972735268004,-0.10385282772126299,-0.11991335112288366,-0.137155444780124,-0.15195377079949265,-0.1563711124428132,-0.13376792034933832,-0.03703995974429559,0.14826950784704335,0.24578497756806317,0.27514449968959986,0.285363932573929,0.2897954312797823,0.28700768783423036,0.27122400806068425,0.24162126600740622,0.2022952013160185,0.15757688225486424,0.11060516148362874,0.06228073774625787,0.008200471335378438,-0.056817585320028015,-0.14112194409057416,-0.2447541808586348,-0.34429380051590425,-0.406737165392436,-0.4156820626156002,-0.37245723554275684,-0.2855577331831453,-0.17032662945419982,-0.05924639264596002,-0.0018526112713578187,-0.05204490436383329,-0.226079263520906,-0.39535992586172763,-0.4446170704799522,-0.40329949608032006,-0.2965348844822268,-0.12424085945931548,0.08800300855519579,0.27500143372824304,0.3979346589882487,0.4614909873087843,0.480168844369884,0.464696171715221,0.4180269792296175,0.34112589187446063,0.24480255847390564,0.15326632857567882,0.0851420137460587,0.04636013558785292,0.021916744916677746,-0.005400653198910464,-0.03238067229704038,-0.04090287029381395,-0.013618515499652782,0.06747174143872126,0.2306518571730422,0.4766865573251159,0.6858261382764439,0.7674727926574377,0.788663545408299,0.794802586644519,0.7860975444506962,0.7466067621632628,0.6679519851023894,0.5392942369741579,0.32935763397865375,0.023653513538373326,-0.28166678329145,-0.48026710105648934,-0.5760051783010993,-0.6134300539714674,-0.6348117757279961,-0.672030077938009,-0.7317576177987237,-0.786281820734209,-0.8086362295657477,-0.7835717135341971,-0.684446064320057,-0.4733561909594702,-0.17007361213821803,0.11015461884162271,0.29630595924344133,0.4070841780361183,0.4778079809345607,0.5278402455426305,0.5611041968120603,0.5762642171990439,0.5890432557377034,0.6183417724547009,0.6682489453993116,0.7215972567320214,0.7574437262654937,0.7619801747725705,0.7219137757832045,0.6160107744770874,0.41044091094923535,0.10697190583479493,-0.19162149278545662,-0.3991534296753369,-0.5177100680822606,-0.5673311660387355,-0.5615801334362036,-0.49591350471618345,-0.3495175451222915,-0.09276161357373507,0.23984809642103788,0.5041311369666748,0.6073498138396614,0.5047478542736956,0.1818008340635543,-0.1384820068937829,-0.3340776395826172,-0.4387865897921393,-0.4772306824183736,-0.43677057882433257,-0.23386617681925237,0.20546902252539953,0.4765013298198826,0.5313430193753185,0.5148076488255754,0.4644618448143885,0.38316920253036224,0.2724000358027774,0.13407642008139223,-0.022417293041766356,-0.17983669978953368,-0.32153115291554,-0.4422972521263553,-0.5498049445667662,-0.6478977964935898,-0.7221480543279025,-0.7604594848753782,-0.7706957104128884,-0.7607163586376499,-0.728852662762923,-0.6683362900485083,-0.5684181898572039,-0.4209531607148418,-0.2444471184790856,-0.07060444945754304,0.08390321513715339,0.2176084758730588,0.3306328874230529,0.4226847089274024,0.4913578215979201,0.5189202373515277,0.4966410496350625,0.45183303386028423,0.4074863246094127,0.3679161543247532,0.32483350273039585,0.2688737705917544,0.1979440933713592,0.12244446463224117,0.06327197277511089,0.0466476537944961,0.0823892320652688,0.1622769401351798,0.2575849045472181,0.33175698348849386,0.3679764779462741,0.3658533221968762,0.33417252609540693,0.28189143754508245,0.2192605875093545,0.14670094999959526,0.09825297351108771,0.08556593769894845,0.07718530252096208,0.052505991665873365,0.012927363995382784,-0.027137178127684496,-0.05880650910326559,-0.07977504364608964,-0.09528070080711688,-0.11697679471337863,-0.1549360457722647,-0.20543297213832754,-0.24801430119144247,-0.27262867525270873,-0.2832602213145857,-0.28269892859584,-0.26926198351567754,-0.23634098034079018,-0.17741892806149107,-0.09198267747900547,0.006499744953337281,0.09517296920704066,0.15327459371439808,0.17207171048314346,0.1595206501168255,0.13535318288283896,0.11741158575607055,0.11541621822259741,0.13591155025369275,0.18884246318537362,0.2826352942007555,0.40201245746278863,0.5040418916400187,0.5692474105301124,0.6104801358769594,0.6334588759493865,0.6426294768211147,0.6372149239006973,0.59719134397717,0.5085808015694172,0.39639109082730756,0.2853343507997577,0.1627818221881273,0.0013457418572188063,-0.20020688423395666,-0.39425196362499276,-0.5437059218558506,-0.6563299581272901,-0.7474012279944191,-0.8179794180741036,-0.8579525411519328,-0.8627445913242028,-0.8406363335537851,-0.7961851872052254,-0.7215970559055954,-0.5985644048514869,-0.39003000685613104,-0.0656166920107175,0.2526285947452083,0.39611671980826196,0.36815313548514933,0.23084258665746896,0.06522487779861921,-0.05383841904685782,-0.09043949504003386,-0.03224207748959049,0.08756060130626196,0.19838040731985437,0.26055027095635447,0.2814012209622194,0.2854590004600054,0.28837852361167055,0.2901529805701857,0.27943113879288245,0.2448255545979068,0.190278265308677,0.1335381769843139,0.08178065781034602,0.017299887919924945,-0.07621100194005508,-0.18049418493934827,-0.24863643373045144,-0.24616168872642147,-0.18504468959788845,-0.09249515074788679,0.014959649184522585,0.13485085489855622,0.26015892249355665,0.36420241417190635,0.4235913537075864,0.4393839264099014,0.41530375385899754,0.34187250383143325,0.22246025533960273,0.09545446336837154,0.017908711012606753,0.02297700025709437,0.09687409542582459,0.19465512388061468,0.26493075053285947,0.2783423355799839,0.22978605420569678,0.12405589245135244,-0.02096036646049577,-0.17581109486730606,-0.31259318161649874,-0.41489827288299164,-0.47477944555642704,-0.4865697452511883,-0.4477342596635634,-0.35534164904657295,-0.20185432106838722,-0.046072370666315185,0.048477203504425845,0.09332492077136285,0.10531464819444171,0.09769573234635476,0.08194590460388632,0.0685910769294248,0.06268670209663517,0.06441526366506557,0.0707205759849994,0.07840821880671894,0.0876439522125585,0.10098337786044041,0.12177595820428141,0.15077127021848266,0.184834692138806,0.21456064028139876,0.22612452921058976,0.21386091655978426,0.1889135889788548,0.15893876231647416,0.12206803924081763,0.07123817023911738,-0.000751560106556023,-0.1071953890830714,-0.2850611208192424,-0.5888603066471805,-0.6783659635241694,-0.4829101445487306,-0.3495532302617328,-0.27573058762018166,-0.2412092243419118,-0.22920723942363896,-0.2203675334955954,-0.19217437946244428,-0.12542808256221094,-0.029657796361929358,0.0535213409251597,0.07094860892792633,-0.02218692395133523,-0.21420809866585117,-0.4034406065342124,-0.5070946505959252,-0.5178712442951314,-0.4421092400906331,-0.2839858140789302,-0.08270794144884516,0.07926834864888194,0.15233839479086658,0.1489786206834252,0.10671754205915535,0.06682226286115975,0.058183004150381974,0.09211936411599246,0.1657656616244671,0.26497245582664564,0.36458967794608743,0.44075490140814755,0.47780592524328147,0.4727763905078688,0.4326130548000637,0.37149011985401287,0.2976327855201416,0.20869741851258558,0.10481540275632228,-8.344289430327268e-05,-0.08594256760750774,-0.14057246805783039,-0.16829983720542405,-0.16830482374748335,-0.13606016508908017,-0.06997896060507988,0.006943739992201445,0.0641148780156009,0.09906763622596373,0.12333976862978595,0.14360265294619853,0.1684994481972818,0.20570740753041233,0.2573572195514836,0.3155176670970019,0.3695932253028966,0.4112867684880857,0.44049968940685097,0.4509665071504189,0.411052785309064,0.33623059365209335,0.25639125519674916,0.18111529859315384,0.11659155223048659,0.06255973778347056,0.014944271565581969,-0.0315045441107689,-0.07290583112097848,-0.10335020127812466,-0.11628384176341873,-0.11105284905727511,-0.09061113580747765,-0.062409840303646276,-0.03329733573974547,-0.005784383038112918,0.019864570665700444,0.038608128014063624,0.04283179032651633,0.032267414673355935,0.012561453299958142,-0.01177772981962805,-0.04694144190263937,-0.09478281558126511,-0.14645806264716338,-0.1814349404161346,-0.19070746746917716,-0.176071277743573,-0.1491569113883235,-0.13461167642767682,-0.1635930473076731,-0.2513888670340968,-0.3860320916625454,-0.5344360303304979,-0.6630032853469355,-0.7459776756808609,-0.7825608966158917,-0.7909243591620873,-0.7954121876252236,-0.8096158242413449,-0.8314281396674852,-0.8442715456475856,-0.8174088331054169,-0.7230130613589869,-0.5623804408723626,-0.3771943757174191,-0.17705899568717623,0.055007414608088945,0.24222251905541511,0.30075432578183675,0.2380037084273028,0.06436496943617755,-0.16716435334545024,-0.32106829384751,-0.3161735509906801,-0.15462179492043715,0.09574678394787606,0.2959865113986962,0.3963864347574311,0.44050373813338584,0.47133171247255234,0.5108319673442564,0.5475107775239161,0.5575077110098415,0.525555608345915,0.4519224540756625,0.3527048959097407,0.2530602936930213,0.16983158453245842,0.10832376205733124,0.06494059983618045,0.033773354752429645,0.008929920105966533,-0.009559421894538045,-0.022761773214721163,-0.0363132916761665,-0.0622572402110909,-0.11744993210051961,-0.2115934875025389,-0.3182653616288136,-0.3931759245602146,-0.41613783750517624,-0.37658504697889267,-0.23016220304127677,0.05144039774723115,0.2543343603201111,0.3167433202476652,0.31863251361499434,0.29347577229432603,0.245115084215679,0.17094992793943256,0.08860256209817889,0.02450050367941314,-0.014457246202391217,-0.03528551663540501,-0.04583011890174776,-0.05288525264238318,-0.06281382597979132,-0.07973575603846685,-0.10652493202071991,-0.14146390251877133,-0.18001281927099866,-0.21784467838784233,-0.2521398484648715,-0.2795491963468576,-0.2926633605688178,-0.2796649285917384,-0.22369190040147446,-0.11172808176948376,0.04615763321284429,0.21324006816095792,0.3440098678083128,0.3450962596867703,0.24282257211022826,0.1962799853589074,0.21006936050373198,0.2518838291361856,0.29502385650116203,0.32345880695970597,0.331955176855681,0.32518023884075603,0.31175163894891894,0.29988401983953006,0.2953049976540912,0.30102844130843215,0.31886324816984435,0.34715715196053615,0.3790117633111925,0.4052340575497591,0.41857402577036107,0.4139514498824823,0.3869803494567826,0.33416905598590485,0.2529762355657601,0.14887006390004406,0.03616418337076927,-0.06999467508557518,-0.16506419963640975,-0.25525847575574734,-0.34686642452446437,-0.43575119213309055,-0.508331524522099,-0.5477432889648987,-0.5426981284282866,-0.49821822409193983,-0.433231797413954,-0.36198415413240637,-0.2904271996311915,-0.2197970132295165,-0.15741581452898826,-0.12664789117389783,-0.1363069397615932,-0.17164785740964925,-0.21975112244371822,-0.274169657134529,-0.32804618303181693,-0.37027565072638025,-0.38672736726170837,-0.35548760687679976,-0.24545411866122557,-0.05993733946475533,0.11602744765520069,0.23921566680291773,0.34356089347569185,0.4643064568846382,0.6051858879426594,0.7277754371045498,0.7848343931486237,0.7853793476399054,0.7632649519509321,0.7345747731905342,0.7038342761994061,0.6731755805740243,0.6421886043731192,0.6039531663752155,0.550218478202354,0.485642098795848,0.4224668214601088,0.36582706793211306,0.3150497909857659,0.27010462083178305,0.23057453819847165,0.19713366185184522,0.17310218323588156,0.16330095655473476,0.16500764502347792,0.17248373542747056,0.17610964829715622,0.1799873331642985,0.1949242228197023,0.23089687806193285,0.28118301327056416,0.3041877639372148,0.2310066017169666,0.012338483066754242,-0.2547766637784035,-0.39033980207629415,-0.42031111736826193,-0.4369433832388259,-0.5103870570421326,-0.6664265608627385,-0.7734847133628405,-0.7270139995035131,-0.657434059604888,-0.6161284223875926,-0.6002007475589969,-0.6008668599779797,-0.6101785496879173,-0.6218494313314434,-0.6271123969561071,-0.6138383734435452,-0.5659846077550084,-0.49541505581400663,-0.450876174300001,-0.4683675305199206,-0.5465258832015621,-0.6584209646552519,-0.7668717385242957,-0.842888363594929,-0.8754880270807612,-0.86117240750133,-0.7848068196571674,-0.6000830923463064,-0.2452715793408759,0.09945310899811191,0.22721506790585458,0.22222640703275492,0.17435583514067005,0.1285779634196817,0.09545892144901746,0.08183535208333438,0.09249782640371568,0.130733840224586,0.20014267162839144,0.3030308822361054,0.42849466348475157,0.536472051809191,0.5936609923463892,0.6099532543604109,0.6107573630411476,0.5917828954732516,0.5345902925428144,0.45671076480331174,0.38393107120737785,0.3245484239609906,0.282258424985088,0.2629994021515467,0.2669274361749695,0.2892518503671019,0.3247344028304294,0.36743509097802185,0.4089053707430624,0.44464213611907255,0.4743536169491674,0.5059714457703895,0.5500884485318551,0.6106934618358573,0.6630439472912498,0.6093811624926044,0.3943941319313977,0.16738166832342777,-0.005159975667263518,-0.13282095332178234,-0.19565238373195348,-0.18595464578015616,-0.13924839550912688,-0.09250034715939745,-0.06235629448447306,-0.04144773022010863,-0.01219535133589629,0.048650647842674095,0.15564665186901702,0.29971692062593414,0.43232000298213324,0.4996759485789847,0.48724589363653437,0.42750107631674367,0.3636438615574171,0.31284127240880394,0.2694441404766226,0.2121239942788122,0.10505891572674829,-0.08460559414535716,-0.33562016600947897,-0.5526190164665956,-0.6901434726709047,-0.7687676897631788,-0.8054840270624601,-0.7999276733371361,-0.7498453520241731,-0.6757628343136466,-0.6423159917644571,-0.682855701326565,-0.745258465994027,-0.7645697293633502,-0.7176439962341594,-0.5987543959834551,-0.4269962247728725,-0.2619498089492062,-0.1498324746997613,-0.09148198185440178,-0.06896741285666469,-0.0690039481539933,-0.08729896262124531,-0.1159682190729545,-0.13998097798948927,-0.14115102315111297,-0.10539685313533406,-0.03518506121220993,0.04943028341889878,0.11719880482076846,0.1522049723189776,0.16015538142097555,0.15336761353265194,0.14146415262550455,0.13209497149329139,0.13464718315648297,0.1584153478494527,0.20548026605314393,0.27239219887477284,0.35532034052203687,0.4542159681738824,0.5130385865358177,0.3024949807096064,0.08923129890960844,0.011254981736087091,0.005681839667328444,0.03545467360097471,0.08114766262413894,0.13296861528373724,0.1899674922962458,0.25018929024555575,0.3066304619333527,0.3482981518297337,0.3666912378120436,0.36267470640780297,0.3455498930492633,0.3169249411779115,0.2739544937496752,0.21802015223970073,0.15641389525690894,0.09862451946568099,0.04844397610635957,-0.0022339810182847135,-0.058171036814927794,-0.11684350126178668,-0.1753420754498086,-0.2321555398001799,-0.28372942185978933,-0.32369491142521845,-0.34322175597240695,-0.3304845198413533,-0.2796842624212516,-0.20031778857385646,-0.11946594183474661,-0.06909499683040221,-0.063343076003823,-0.09708172921058981,-0.16192739599690203,-0.20948111804692135,-0.05123239510295255,0.06512184722198051,0.1316405321387079,0.17745369268207223,0.21373093421691652,0.2497409702112138,0.29555169467275283,0.3509353432149575,0.39906303422381745,0.42484543173704564,0.42070591414288294,0.38567166397740504,0.32801368020882204,0.26600855494617215,0.22164911804226647,0.2077365666801478,0.22417610051624604,0.25772428951829235,0.28755739073908837,0.29471383004081264,0.26733458603954857,0.19041920387422998,0.0705713426978256,-0.04558196035682288,-0.12762560345750393,-0.1849917774882679,-0.233630378685455,-0.25503496200859993,-0.1698507093499669,-0.0367779124243058,0.06376007074042606,0.1412052741391285,0.2095037258361834,0.2746800878511658,0.33335081099630276,0.37690299925471044,0.3940833470656014,0.36255185706567883,0.24309632768392037,0.01012913892302576,-0.2711147510306298,-0.4735039654897834,-0.5388359708963946,-0.4514240111029104,-0.1660448523695569,0.2437367082500993,0.5034197432474499,0.6043153620827243,0.6468116702920444,0.6783529252515348,0.715402204209568,0.7630422275269296,0.8187490150280862,0.8676287157823842,0.8974505262712684,0.9101400173109424,0.9059837052448313,0.8759993949850051,0.781069312582819,0.4826440777650806,-0.13349988191507867,-0.5760461907788748,-0.7377600969548607,-0.7830658677593274,-0.780598432873637,-0.7568510334786358,-0.7222977935903959,-0.6832063825470659,-0.6434494635423594,-0.6029283939007432,-0.5559511956195146,-0.48945003795484987,-0.3777050589993311,-0.1929508024839394,0.04341381491106149,0.22216476536429677,0.26305770488546026,0.17635919889865934,0.04051716726969719,-0.048015094491478935,-0.055499057652349734,-0.001150735697761342,0.07459893333904148,0.13375952030511398,0.1520284392227757,0.13004120104224995,0.09468084829097698,0.08143407383091414,0.11082032550244371,0.1804643043335767,0.2698105778040012,0.350864747476089,0.4021913109097681,0.41242267247793857,0.3750136402265272,0.28124030918232856,0.12577713759219664,-0.07939543756279063,-0.29316689825115333,-0.466390534338152,-0.5784743714879766,-0.6307687630854226,-0.6316177432877713,-0.5893246119680421,-0.5219639959356369,-0.466411302290616,-0.4699603459525705,-0.5457375282974789,-0.6408788385753296,-0.7096790852281379,-0.7498081305207568,-0.7684249650368686,-0.7497901033332784,-0.6375313221792976,-0.2963635387811038,0.24719188541757345,0.5806992810561258,0.7061776022409121,0.7480041935836915,0.7562088786783243,0.7495916388715823,0.7376228817723602,0.7204786227574788,0.6954956292630752,0.6644220174940275,0.6373192794966934,0.6183347626776705,0.6053930914045875,0.6101616836634757,0.6496540008757153,0.7204938561121186,0.7936330637630397,0.8293588351047206,0.8189221996024765,0.7833793288251177,0.737762896895067,0.6790339959968168,0.581446831520724,0.4562042423096859,0.32915893778693506,0.179694119263853,0.02163019537038356,-0.08791829107724194,-0.13795296858839523,-0.12865711952013298,-0.010206459084840745,0.17301665252577209,0.2677516835296248,0.32347511963055947,0.37753333637587955,0.4449690578417489,0.5322851379125578,0.6273200650079059,0.6703361140398565,0.5112623710753489,-0.04657955587144007,-0.5692264346962412,-0.7820842255657474,-0.862391535663236,-0.8868049747543351,-0.8780574855441621,-0.8460429441200502,-0.7813205817385961,-0.6482365392214016,-0.4462737633418706,-0.25346735985319024,-0.1299690969275948,-0.08582711796250218,-0.12885300752255202,-0.2620531525199235,-0.37928886929562666,-0.3530568598421484,-0.2707569210694166,-0.18464384963059732,-0.1107557136148398,-0.05757335610253871,-0.021524427034422845,0.009100010167075156,0.054391050196400524,0.16133406262148278,0.48259004580830483,0.8496155035688244,0.6901876421087252,0.6278058957164075,0.6289732522890419,0.6551811042999907,0.6878653741393974,0.7138686477309918,0.724006036153413,0.7114720901654514,0.6630334298587386,0.5357147141683049,0.2035671172885425,-0.3965132216445735,-0.7735723638893971,-0.8854623484474957,-0.9106436289293126,-0.8966830100889654,-0.8187202675908826,-0.5702173749086109,-0.24441631439971065,-0.20332360359476997,-0.3825234220727001,-0.5864492979159532,-0.7195554241607065,-0.7911377782508289,-0.8225311153071235,-0.8214137379442695,-0.782013037760392,-0.6765200627392808,-0.44880917667275017,-0.10425184525766883,0.1781288556055489,0.2786876486525594,0.21618835370570716,0.059859481513765106,-0.09584452520008951,-0.2062681935858104,-0.27662004991994915,-0.3338687247824301,-0.4101459263674576,-0.5034523647425146,-0.5843983544239028,-0.6260171544767043,-0.6061202800817509,-0.4837083718793414,-0.18009136205422407,0.2675586125559673,0.5506690458246022,0.6038195467976247,0.5382568829582339,0.42078350949230114,0.29817725617152924,0.21563061115658727,0.20731634732720033,0.27291886165134666,0.3699345062051517,0.44186593494502274,0.46792104815430596,0.46121219830177,0.4369450116994125,0.4107167125954888,0.3926314501186675,0.3892342930161859,0.4030176077278627,0.4369959167395784,0.4955771547575689,0.5942418006081867,0.7363492870554675,0.8135782787102299,0.6976603614453293,0.5573236697573946,0.46520921916181707,0.3927700282943476,0.3116745635655168,0.21886792367598576,0.13393444030065907,0.0724621481282811,0.03690317376430881,0.021174038729066813,0.015740746387100123,0.011332977675227736,0.0035610277640706995,-0.009033995890896158,-0.022477062920961133,-0.03541784656935376,-0.0471344587386542,-0.055550127938802374,-0.06210319812378762,-0.07350108331106957,-0.09083822210587403,-0.1076436878861589,-0.11678160499648883,-0.11410138761779344,-0.10176283493015455,-0.08615879095661963,-0.07248310035689426,-0.061022861774452694,-0.048174855105113386,-0.028979295337407104,-0.00040975576382005667,0.03666916499271812,0.07610560903020351,0.11886371284981227,0.17043470159869015,0.23547403329290834,0.3135697625335923,0.4065492308977279,0.4655898614572843,0.37159269483866814,0.21012988062800694,0.08262198461622329,-0.014692587379848531,-0.0972375152710673,-0.17923174635313396,-0.27394467907773307,-0.38603562693453475,-0.48948154046522346,-0.49175961797756856,-0.37814201073638726,-0.25761756128831104,-0.17414897083457703,-0.1221519990819425,-0.09501065420247218,-0.08883933570197325,-0.09945961004330257,-0.11780421549799183,-0.1294009414942458,-0.12258636917760062,-0.09630581810799009,-0.058637668663558594,-0.02193290642172174,0.004969806050119581,0.020334511313027888,0.025659504962839363,0.032984624039277606,0.06287092381287576,0.1266117479797129,0.20528180589375114,0.26849172532483434,0.3003119230913583,0.30139822208381273,0.2756030649718535,0.22379994515777105,0.1432901999282756,0.03168128206922779,-0.10519975410502481,-0.2518851904212266,-0.3905140227934419,-0.5047701058261264,-0.5809523563104693,-0.6081586048285555,-0.5708759538038396,-0.43464078026235115,-0.17137773366765027,0.1254695907608024,0.2992819549722848,0.3124648313273447,0.20258270047484422,0.10642355504776345,0.10104038991681148,0.13752302676688158,0.15530462488452693,0.1393304420654352,0.10342765976648045,0.06387001300096007,0.02950524581792921,0.005710662231311619,-0.004196233053420194,0.0004801429866727826,0.016334403507546034,0.03009467900187936,0.029497930738727435,0.016650546803268284,0.004271153610633552,-0.000891771179726508,-0.004651832122240022,-0.019676744716253258,-0.04152770458000537,-0.04785838688794428,-0.015817211345623132,0.06920429464008768,0.2154219083807747,0.41349746463235926,0.6118900819046382,0.7187210016813639,0.6639177364836389,0.4482264907750461,0.18841246246392426,-0.005600465953105893,-0.11590183261877529,-0.17144279062562606,-0.20509056118986188,-0.24170056962541087,-0.2880030027592748,-0.33372260171658885,-0.36323261346938013,-0.37463654209846164,-0.4133634916375867,-0.563370447492869,-0.7591427743921161,-0.7911406205772696,-0.708117305487854,-0.5878931060385985,-0.45698581200320076,-0.32577526497775844,-0.1935011476560265,-0.05851989957964265,0.08251250949213576,0.23131156329285363,0.3839458720398032,0.5162781762458971,0.6082923643175916,0.653774934718845,0.6626276356502601,0.652001734466336,0.6397602765240451,0.6437524002979516,0.6739454849822559,0.7257417531335332,0.7733843539750731,0.7972961622509651,0.7997005800819371,0.7936056948456465,0.786693414440137,0.7796193781966432,0.7693701376463972,0.7565188811582922,0.7394680873251239,0.7118450416151648,0.6647076844742731,0.5884020320637362,0.4564083786874637,0.24423145521409115,-0.014534039752927021,-0.17831405606395195,-0.14003865572047652,0.07846392399082008,0.3430958754395924,0.5450139635801378,0.678718771175151,0.7521058650479333,0.7365694158473092,0.3948347479415795,-0.41226436439127995,-0.7425852049526583,-0.8323616745471966,-0.8559915077402989,-0.851229693401472,-0.8276570652184867,-0.7865505165765189,-0.7364238810240812,-0.698062743308206,-0.695015027876671,-0.7358946015828733,-0.7862564524226607,-0.7729651013852781,-0.7016263414404901,-0.6323136318878932,-0.5795484304656654,-0.5357268746498414,-0.4916538737019041,-0.4392350272691135,-0.39069444157699157,-0.42227287608621444,-0.5617586900540369,-0.683714433337449,-0.7101856402997939,-0.6827390489719996,-0.650031477183164,-0.6255307512905764,-0.6022316529154605,-0.549143512050701,-0.2444224950615571,0.27265389476020147,0.4308604835446628,0.5128595185966126,0.6170605848086175,0.7463383438446798,0.7708413603088292,0.6652507922680612,0.5445322655575983,0.44589178329329066,0.3635145946268741,0.2833749902029043,0.19211726308049973,0.06600272800084914,-0.14358484926495008,-0.451728913707064,-0.6944132138769604,-0.8101207790450397,-0.8589686787089463,-0.8754381109458214,-0.8703594947962947,-0.8421680957678505,-0.7722889529789515,-0.6082029058276488,-0.26101321090288376,0.1836890969295962,0.4506847022276251,0.5362809015260593,0.5186579619410877,0.4489967935197345,0.4229099475342924,0.548441317542598,0.7554736222700867,0.8779099500317011,0.9089530903437205,0.8963012195398081,0.8583409391090683,0.8001122366730304,0.7268591303182844,0.6451448451748452,0.5540792740776771,0.45282795644632656,0.35281511213170325,0.26893498116805115,0.20863406704736193,0.18120681102046118,0.19965693586450653,0.2708328112359096,0.2937553040849502,0.24754846042132997,0.22585907960695834,0.23171883072030441,0.2563146890532366,0.29126698197638123,0.3221989040534669,0.3280222930417186,0.30543757900830326,0.279757796334933,0.27638272261236485,0.2979509809675426,0.3399165946218402,0.3933792055119176,0.4485877151810821,0.49342370402684443,0.5219749842311506,0.5291852338585508,0.4907838827528302,0.3828307962260245,0.21322537972555,0.009925092211137018,-0.19111793779010228,-0.3458383959146309,-0.4222263612269415,-0.42457033556073565,-0.39819543806720886,-0.3902658523526559,-0.41609139571736564,-0.4665736653619661,-0.5243888193491688,-0.5728360291657156,-0.6008902031279649,-0.6014950756204493,-0.574353540889936,-0.5233848257434172,-0.43178079545811265,-0.16570859321769418,0.43974830612079246,0.516842982799911,0.48213756217108283,0.43669770929304913,0.3852891448422083,0.3254149207088604,0.25451029342299714,0.17951534805625408,0.11468889526852219,0.06470635866799032,0.02088019997391389,-0.030794829167997435,-0.09865985151364273,-0.17804656820688228,-0.2708326148248975,-0.36298856699791876,-0.4088655678589868,-0.39602458488256304,-0.36202124190540663,-0.3234955195085466,-0.2740183932329008,-0.20739937529959868,-0.12779967556546531,-0.044984722859313445,0.0304588544840806,0.09277869896613677,0.13837498759410502,0.1624672370017088,0.16826915490322825,0.167038296619167,0.16916412997788383,0.1786526739489306,0.19438856635828067,0.21245161945152757,0.2247164568280028,0.21910338308365152,0.19075908499121322,0.13739589406666552,0.07130668135743,0.014296150090277009,-0.024912870022642787,-0.048566509825038344,-0.06195371340449903,-0.06742695579340036,-0.06337967913313815,-0.04593478398670927,-0.012505155449935289,0.030768575116256972,0.06696771667082496,0.08936864069959254,0.10567549649710356,0.12481049976100497,0.15619976820224946,0.21019788504007783,0.29074118619782446,0.3793580527389291,0.42663764959575023,0.41278833927147585,0.36426443023708865,0.3091501603133087,0.26307815897666215,0.2371498257154803,0.23541992237354528,0.2566856521205342,0.2728072742850132,0.19530632928109948,0.07113249651896754,-0.009259805433721534,-0.05505863360165672,-0.07690982516514085,-0.07771325847338005,-0.0701126533001562,-0.07780045347685073,-0.10668115378300701,-0.14819211650932784,-0.1889846169088727,-0.22351231554581621,-0.2525156780024098,-0.2748448044545898,-0.28599438404675925,-0.2821674490667596,-0.2641089396221405,-0.2327578692460592,-0.1898223451746478,-0.14815165896117416,-0.12590787475194953,-0.127551158827933,-0.1443642514433817,-0.16701799697058692,-0.19113511980583509,-0.2153822546773479,-0.2409180943839057,-0.27600735689113187,-0.3277461858410067,-0.399096872106491,-0.47785632360908703,-0.5111696823116677,-0.4460833288880046,-0.32044376164787514,-0.19353843550326916,-0.08911136037781639,-0.006454267012274782,0.060084126369949274,0.11588411039996095,0.15600181915883257,0.17232088961948153,0.17253066189535346,0.17086159140541762,0.17603406466323201,0.19133747941239293,0.2184822051754861,0.25937880651100464,0.30676800039774804,0.34902784055693054,0.3829866897799328,0.41103691056044495,0.43991797674724226,0.47729470517957334,0.527273911597669,0.5885049845614636,0.6395827999270425,0.6506552760370771,0.6299867823405608,0.6015314239081917,0.5739275833012588,0.546044419983615,0.5177776593718452,0.48947816991302173,0.4610284468186236,0.4290614133571102,0.36938243088611566,0.2635939529479084,0.14599360847843457,0.027043529947886395,-0.13606764471531918,-0.36789899353765104,-0.5860649814961336,-0.7228649628045045,-0.8076532780007978,-0.8691002579180456,-0.912938395579776,-0.9309491024000848,-0.8790996133915148,-0.6408767380043552,-0.3147420789502849,-0.19644905227544504,-0.23413677174053413,-0.32876697497806273,-0.4450783912431114,-0.5781220368866549,-0.707349743597314,-0.7833907802016605,-0.8028991701821256,-0.7798830677511038,-0.6825749962959181,-0.4458843305155906,-0.1321465916569131,0.08502846063075858,0.1839888028256261,0.20025896194070358,0.15820940297971775,0.08628957635408005,0.033779252346604824,0.06161616613262627,0.20388958504886745,0.4222004312339869,0.6193206835689976,0.7308146924683322,0.7618137412668424,0.729280158778886,0.6450980405936093,0.522548215979415,0.3686144648260514,0.1805971033569605,-0.030479913936161035,-0.209221092117415,-0.3127824855899125,-0.34624919936057363,-0.32832479800174114,-0.2676169676395702,-0.1680460246946552,-0.05191765903586211,0.02473526281247775,0.010618386904486968,-0.08182520011919292,-0.19582981225078355,-0.2863612665613039,-0.33214200909722325,-0.32475827149512143,-0.2554765161695267,-0.09379481273395619,0.2092875163773482,0.531286413446981,0.6036833437968429,0.5266435789494828,0.41352817930706376,0.30869764740977607,0.2338033648837448,0.19358158862609226,0.18016818914646002,0.18758319225768275,0.21288491879538804,0.25292393064733776,0.29776164450384834,0.3224921153087905,0.2952220288264852,0.18788855708639782,-0.007399703549174877,-0.2371088236845462,-0.4006805217260862,-0.4526404529314964,-0.3873741313153587,-0.2028291710510418,0.05479976557260879,0.27132139306787284,0.37599093416880036,0.3904692578725745,0.3608202411537388,0.32207798695110285,0.2958462884921263,0.28563699711108076,0.27874441541432615,0.2683934825266162,0.26518784593382955,0.2827621612304616,0.3330031717574075,0.41943317317253515,0.5145023137787774,0.5514489291859149,0.4734981233025399,0.24127609861687396,-0.1207717956713009,-0.46434133578344106,-0.6828544328629079,-0.7771739785236269,-0.7735178182419742,-0.6757742864751539,-0.4726225859905334,-0.23263151009251357,-0.08460726482684688,-0.06273812201387559,-0.1268154188634724,-0.2012974722746026,-0.2169404456873048,-0.13475067731146143,0.04166259427266127,0.2458011776412695,0.3941721554529759,0.45878913610662353,0.4547991541321994,0.4209809360799021,0.3961774257236336,0.39929662658242027,0.42466509249423967,0.4507625404973952,0.4481233320349433,0.3957181739825999,0.3199529734906824,0.2702646216353823,0.2647680507917099,0.29946241026217635,0.3676217218585704,0.46918613364229783,0.5984175321801565,0.7210151767512362,0.7685519950225477,0.6960754518757638,0.5393307880025504,0.3700795014603112,0.2294540181568649,0.11834171385608565,0.02807668576118232,-0.04973350614776983,-0.12550887590506024,-0.21862364946942434,-0.35996030313534944,-0.5457513281798022,-0.6865883006702227,-0.7660028167111531,-0.8275675960619333,-0.8786565804864354,-0.9136562854105058,-0.9270475523446087,-0.9123129975091406,-0.8688743907424094,-0.8100225199962492,-0.7511299400055576,-0.662496018851906,-0.5525133434366741,-0.4959768917721054,-0.4703053329034782,-0.43372008558998565,-0.3569919251546983,-0.222265694279059,-0.03841441656699215,0.15490411306446253,0.3152015336695154,0.4262559734647583,0.49330974492549473,0.5282335153353163,0.5437968687328122,0.5422074462888571,0.503501356442571,0.4177324985646817,0.3148645831029662,0.22681781787485894,0.1668369432697604,0.13686519127303687,0.134221930404044,0.15810273249571746,0.21221734601608197,0.29944460852440286,0.41310668910656284,0.5346754910325249,0.6187537074080197,0.5869891644629557,0.4331028211992281,0.24214401196957835,0.05643932564572572,-0.12224394574904356,-0.1852030563223737,-0.14888788885132795,-0.13014989228788057,-0.1382819843671563,-0.16444732700510953,-0.1999007311823331,-0.24083181694873299,-0.28281382520901155,-0.3218819248876255,-0.34950945331345956,-0.3561093928723532,-0.33178039678661586,-0.2644360539975021,-0.12301033250784604,0.1425866413505476,0.4898256592593166,0.7064220670222408,0.7549559644036047,0.7059336085162843,0.5615484781272929,0.26320447048295337,-0.19927500259425035,-0.5910952474826302,-0.7835096037729609,-0.8513996757605305,-0.8355810821464382,-0.7097848419371621,-0.4731024769591606,-0.22524651894099842,-0.03613840799031147,0.10494538077732057,0.2208061093118185,0.3191162567166714,0.39417220151301163,0.44310734374906263,0.47054293600880454,0.4860415345394254,0.49522424089220257,0.49607964782589004,0.4756848423675743,0.4181273011381247,0.3247066780473051,0.21542996730454253,0.11205897487835823,0.024750350583717978,-0.027233083032926056,-0.008824227381351284,0.033539781321433364,0.07119610869506782,0.10137702025974825,0.12584347669729426,0.14862877587884957,0.17998176826335277,0.23853030301519365,0.34025859954095794,0.476348776639164,0.6106393493375509,0.7046725285196009,0.712323538722497,0.47329347187827636,-0.24685044329549238,-0.6564470460139459,-0.743591850299502,-0.7135669756972144,-0.58436791042615,-0.33039922508891256,-0.008896373457287455,0.22557409684889737,0.2903050460542477,0.12221916673155801,-0.3890702814549995,-0.7886664572226,-0.8791338577714887,-0.8808755099862258,-0.856548661200253,-0.8157685378159201,-0.7581895165700805,-0.701344736316115,-0.6586781697095645,-0.6111182919049444,-0.517706825800246,-0.32284164861627834,0.0013420778496466355,0.35115648748026906,0.577387157597203,0.6342855649244502,0.5613741899175011,0.44738757033151993,0.3468139936115105,0.2725850530692834,0.21757776493950995,0.1719145226356369,0.12970416262178572,0.08977278873930777,0.052867109897850297,0.020562006958653744,-0.008201750208994428,-0.032413862269920914,-0.05099624073649242,-0.06091889291168408,-0.058128642242172665,-0.039305404519037385,-0.00477354521760272,0.03787208938071233,0.07224273797344494,0.08544382438139378,0.07773290265327058,0.06881858779513902,0.0800129767689565,0.12464007585008921,0.21248153277705922,0.34996090297393967,0.5204934463347899,0.6626201844937284,0.7142506515779896,0.6802749248357024,0.6101951578328895,0.5520271246106719,0.5139323236739071,0.4649360879253482,0.37039087191484094,0.19467833547120944,-0.08496707109167642,-0.39616375249339497,-0.6153634231658623,-0.7279559720225687,-0.7875864102924692,-0.8339935253439809,-0.8713470227189667,-0.8916417630742526,-0.8936806723285836,-0.8748686755065146,-0.8214356176943044,-0.7070541043042765,-0.5446813150984628,-0.455101509113696,-0.5021318544465107,-0.5963052402365422,-0.6523298751671258,-0.6437825644644612,-0.5530986082182819,-0.35742181415711016,-0.0934001160421672,0.13094932656787026,0.2696044781481724,0.33817770206062203,0.36092257357820967,0.3587030618435096,0.3497439464119321,0.3457207993316693,0.3365853624222974,0.30167591733143495,0.2455140506132541,0.18206984289618136,0.1156441160557079,0.04593097973399581,-0.020667834181147936,-0.05791861392413859,-0.038805978649193204,0.03298381535254778,0.1344330262053597,0.24683873106562473,0.347304801109999,0.41242591632548437,0.44313165855793263,0.45956423982796374,0.48451846134709253,0.5417804719170478,0.6542821675577603,0.7954159543503408,0.8163698686588452,0.7276675616751974,0.6599743657717971,0.6358508993979819,0.6402204356947241,0.6548286637033,0.6598272286892974,0.6425842821085355,0.6043802780574774,0.5524864960369031,0.48636729758769565,0.3874606520693602,0.20703915851432583,-0.12967131794301934,-0.5287178069943522,-0.7073575627184081,-0.7341433555299701,-0.724724848410755,-0.7107539744677278,-0.6878085309600209,-0.6333865272998234,-0.5095438771723132,-0.26925068989718204,0.050627227098428845,0.22103569841896026,0.09464687456058929,-0.2704062834592913,-0.5576807638918452,-0.6682596434034946,-0.6699483700775726,-0.5941889708803001,-0.4710497768500798,-0.3578723213731888,-0.2858877525012325,-0.24418945930273503,-0.20188450685949091,-0.1406062331012938,-0.062184407464192466,0.02110875511758299,0.09967852700664356,0.1727827618397955,0.2463680294396997,0.32198594512238826,0.3855556236140169,0.4234767645094777,0.434152807545403,0.42972051239536524,0.42724223891658913,0.43454571451790897,0.4465704052030154,0.4378108641080802,0.3696256178489351,0.2383449853281092,0.10251877983027417,0.008511368811668309,-0.03297116503046127,-0.03381428780900959,-0.01689442565484138,-0.007361694797219079,-0.018495306484991116,-0.05121212308509886,-0.1019537247175205,-0.16997460610399984,-0.2534984042618172,-0.3406188886254849,-0.4015346758000924,-0.41866690410176105,-0.4016183190544891,-0.37049616724313594,-0.3356116122205919,-0.29791667413454676,-0.25580810953774047,-0.20414264951645755,-0.12498213778920272,0.017471231706492382,0.20944658185655193,0.32278563419694223,0.3455862521658955,0.33871562409368267,0.33086842025623675,0.33177028686028,0.33908276224866984,0.3440259801772608,0.34095999473160027,0.3287938472164841,0.30832960202170695,0.283026587549249,0.2567208541381539,0.2330203832119694,0.2153820677428177,0.20544585698186374,0.20021470639495534,0.19740902792581694,0.19734074620761696,0.20476778528053255,0.22260745472961466,0.24533963418506227,0.2573361522790549,0.24190810883943475,0.1930363799694176,0.11088714061633445,0.0025316889013523853,-0.11724176432643907,-0.22672343534418052,-0.30608688446993576,-0.3508132859481538,-0.37797932719432636,-0.413445802835872,-0.4774957111177322,-0.5596577982259636,-0.6159006277121825,-0.6270630706675632,-0.5951679383887277,-0.5076102399685374,-0.39072617161908263,-0.2810919629174434,-0.18928015132780132,-0.11386683293787811,-0.05020366490126747,0.0027320360276630114,0.035638276899988594,0.04463593508760337,0.03742772678717777,0.02307730423621936,0.007348901983182255,-0.00750400862578995,-0.01931491206467079,-0.016293603153651335,0.026164706809019733,0.1253366220858704,0.22788502574237762,0.2839544910950547,0.31134746593668966,0.3210987028938972,0.3094623803578589,0.269711911915116,0.19285353665938465,0.06664654644773692,-0.1315390820363573,-0.42502141819223266,-0.7219610536886135,-0.886818406700127,-0.9384603605536963,-0.9362296539346551,-0.9020263862008369,-0.8259569769503623,-0.6720181187052272,-0.405744233530643,-0.07265966572144175,0.20810107878449954,0.3943315333721341,0.5047399479033359,0.5556579335294214,0.5615660655721221,0.5409180477805182,0.5211639423374009,0.5409732453284027,0.623881157609699,0.6107592483532299,0.41136065972857044,0.2374518349003681,0.060944080871774636,-0.18009836699685647,-0.4662243724712443,-0.6914429537718554,-0.8034758073235811,-0.8227164771721074,-0.725483879241149,-0.32152882090398466,0.3171292599997445,0.6050517128422982,0.6698402226026462,0.6217910895483287,0.46821795111269704,0.2388121317266205,0.031114244758473807,-0.077515287892576,-0.05567527662094232,0.047979237037555876,0.1427068821820702,0.21155447497257748,0.27014231138342837,0.33548624216524137,0.4176342578567849,0.5042457967860077,0.5691258208394356,0.596721470924433,0.5809717660647732,0.5310710737143052,0.488987826745709,0.4978555533496331,0.5669874445659928,0.67015428828662,0.7648587283076547,0.8284776987800965,0.8607475867902322,0.8639536439522078,0.8164982760672759,0.6197498224813335,0.13647816765865106,-0.33476146270180424,-0.5782374993137656,-0.693138162092977,-0.7428379797074599,-0.7537803506705869,-0.7376328931077838,-0.7073738925781734,-0.6936274497682074,-0.7338249023341064,-0.8286592897844466,-0.9044375455463578,-0.8953269335907805,-0.8376228521565781,-0.7728719234107658,-0.7089682629799996,-0.6418311618371627,-0.56843725368638,-0.5035951333241859,-0.4896729165264572,-0.5508318825677612,-0.6401577948560071,-0.70768833890154,-0.7329778278016088,-0.7052198849715953,-0.5850537144981108,-0.344998300706181,-0.11797623548812546,-0.0014194818725315119,0.037577243911458544,0.0472903694526122,0.057101576503164844,0.0801062474811948,0.11439054775046353,0.14296215624797282,0.14807371526674895,0.13097242740421478,0.11009204905096547,0.10643747987285979,0.1362733196755229,0.20963730845517894,0.32040743673446026,0.43659168043866375,0.5152564083729485,0.5512518513472182,0.5714946512014009,0.6002817468149274,0.6476483851385266,0.7104250505064438,0.7771820818594591,0.8372235223039916,0.8770239076344046,0.8849478771688523,0.8566790120622976,0.7865275107031177,0.6950003230082022,0.621216612064938,0.5727376522293117,0.5343021122624381,0.4871993406245683,0.4195177395731068,0.32863849722904,0.2231874487012165,0.10848629848379603,-0.025585815795018185,-0.19234569847280242,-0.3834178219646024,-0.5301096974782863,-0.5908863326346677,-0.5985747838223349,-0.5728438256070172,-0.5051080201539117,-0.3726018396189318,-0.14855686164242082,0.12960603149584238,0.3572865319211685,0.4912776587027347,0.5601841501000037,0.6057461854610807,0.638862947596066,0.6239720686500366,0.5056265241849457,0.3085944819968707,0.11662290175160296,-0.031217972008681417,-0.13175687869469452,-0.19548612171502147,-0.2333444446055443,-0.24836450175413627,-0.23816922676485594,-0.204935600906147,-0.16334222351330202,-0.15076916095337786,-0.1995380957036994,-0.283271750504159,-0.36037485966038857,-0.4180757741342676,-0.4624734980548504,-0.5020583120805734,-0.4465572644847599,-0.13509938875804942,0.018587570196408103,0.042534280600165085,0.004600956718314134,-0.07453108679918491,-0.17813322792525546,-0.2684552799150615,-0.29775651415559784,-0.24456239677524585,-0.1408228481505668,-0.040424933063186244,0.032282697184789905,0.07899587146308433,0.10359114979683658,0.10977374489185192,0.10410435690836134,0.09573099102063984,0.09266970030047304,0.09725143547709658,0.1100756768522476,0.12314923142059121,0.07300789462853093,0.0009787695874391334,-0.03243818980697151,-0.04907990835402439,-0.05941970599211957,-0.06830946720962419,-0.07899808853063595,-0.09327720731566601,-0.10107141531161358,-0.05374764457369075,0.026133106798411916,0.06957676757310394,0.08158909351823407,0.053812828397097966,-0.004832301317070364,-0.06207367037431622,-0.10715786604335881,-0.14154683064130713,-0.16728731694386148,-0.1817138537194865,-0.18171803698184974,-0.16513573116242236,-0.1309892772175813,-0.07946107544688802,-0.012265992959750104,0.06426407676690339,0.13911574664378729,0.19992140599589028,0.24382099440879515,0.2844423842791173,0.33918874431284807,0.413614417847072,0.49342193715650673,0.5524344219490821,0.5655234170854323,0.5330653700802411,0.4816017081274024,0.4275261084218459,0.36350498186298125,0.272703767375028,0.13992494390949642,-0.029404433584371052,-0.19914827128892199,-0.32817147687835335,-0.40188193091585955,-0.42525767962959327,-0.40884882965037195,-0.37883122093724125,-0.38556553540894906,-0.4496941101022796,-0.5229604816022148,-0.5379373782486685,-0.47197807754760646,-0.34297974105305323,-0.2001090783678084,-0.0940051384537509,-0.045042234505563404,-0.043156787165183425,-0.06015293096088978,-0.06381875109631116,-0.03348575401501436,0.0318780838014821,0.11872212096319537,0.20237954265202926,0.2615892573809743,0.27961960015572895,0.25315388499689123,0.20981769020742913,0.19245404110144784,0.21620065282575113,0.24980371525023548,0.25974384311464055,0.23457067719005786,0.1802229266319961,0.11754578690527658,0.0951932884501179,0.18288329766173775,0.37627542404275854,0.583108906194684,0.7318953492501817,0.7823056327354723,0.6909237233004162,0.4899005559765347,0.2939008083494487,0.14805458146449443,0.035194827285919446,-0.05894420158709978,-0.1048841153991022,-0.06490747742919652,0.0316495549624287,0.16922287662605817,0.3672679914384113,0.6097568497888418,0.7664184577243695,0.7366586523819058,0.5321197368849833,0.17685302599178584,-0.19458648180820456,-0.4331420894956397,-0.5353931529145469,-0.534395176445281,-0.4503305044630599,-0.31818280327382026,-0.18932086975398627,-0.09469064163404953,-0.022538346006576542,0.06628472645590208,0.17704210430427952,0.28799655424775367,0.37870271144360484,0.43321257718273687,0.4401660865914928,0.38343360802581605,0.24273715541281937,0.019297253020949194,-0.2264854491970458,-0.4252077315205863,-0.5628180245217322,-0.6571375102733356,-0.7298337977291038,-0.7787225934901533,-0.7259719199764105,-0.4577203762671454,-0.1288432395892079,0.05038592315719095,0.05241871846199605,-0.08960033941811325,-0.2796926802165595,-0.4214842520656953,-0.4832434606536569,-0.4672734214681795,-0.3771235379435414,-0.2311283739828351,-0.07057831841602126,0.05715378920264644,0.13136301864521588,0.16144144742204727,0.16639445302610797,0.16146094066470293,0.1590978465005584,0.1736056535745131,0.21036999418735236,0.2497306368818373,0.28765127055772405,0.33653025253443675,0.39411138493313447,0.45037213536260634,0.4992606773462418,0.5455996720469228,0.6024165512232688,0.67536557245358,0.7382983473358561,0.7385774297322009,0.6789362496217618,0.6149092460223561,0.5715275595819567,0.5331006994117957,0.4642232661409727,0.32460300193765423,0.10222628492476508,-0.1526340061036094,-0.3644039651901628,-0.5105695535479338,-0.6066248847542902,-0.6653394566498089,-0.6930298088556649,-0.7013354696955766,-0.7076603554626572,-0.7277954696379098,-0.7690447652944113,-0.7973090951382453,-0.6948884102410828,-0.472704319378866,-0.2887794681016823,-0.16762615124331065,-0.08274254373411491,-0.012768975309388314,0.05433446753147428,0.12069014740899657,0.17185102655841247,0.1843912101857886,0.16525464834008693,0.13813627966124123,0.11574434713837604,0.09848991131096198,0.08072577430744511,0.051699101455762536,0.008935693480089095,-0.0303533861754706,-0.0287148144939115,0.04751619903314693,0.1609952684358675,0.2543692434154978,0.3276687335900327,0.3953425475646818,0.4681914565041531,0.5447253355036444,0.5898537620830212,0.5628024074021157,0.4787321269898045,0.3782130684659329,0.27722440504732393,0.18038357030468255,0.09565203114438402,0.03484235347664386,0.0045279747323545205,0.003242303516475707,0.02150714516881166,0.04842107578543754,0.07607823017792169,0.10563917511274845,0.14180006277829577,0.19009282865821958,0.24555416853532777,0.2886694318068399,0.29491222274269374,0.253254270630286,0.17439255087142574,0.0968314667297924,0.057717243267605425,0.0667682845934657,0.11774916838081594,0.196698298465029,0.28594894882183297,0.3696783514630972,0.43866425070489173,0.49074187538656816,0.5294853430942807,0.5617175222935631,0.5922829767347054,0.6189912758001777,0.6294596171052169,0.5989246703161327,0.4844097378477317,0.21659230708413502,-0.18206845631710408,-0.5006726311865649,-0.6928960159786942,-0.8102670213754323,-0.8856748087687567,-0.9430422066482321,-0.9833093355060438,-0.9597796636288723,-0.8202656452504814,-0.5994719173878488,-0.39526199784015975,-0.28646793931492853,-0.3013036317919947,-0.40568005909317784,-0.5255407518794631,-0.6096992659031267,-0.6520222186969264,-0.6622658704394196,-0.6458198188709912,-0.6024962052911961,-0.5306408469859277,-0.42824680149902716,-0.2929517908413886,-0.12723287377686984,0.05901181567750675,0.25142894138966543,0.42408524212627896,0.5406523598472571,0.584824084608227,0.5788474298669894,0.5470691190540126,0.5035067305807309,0.4529407845159385,0.39407256740061064,0.33111719129648165,0.28157336126390975,0.2581113388124743,0.25418122927230924,0.2490073576427146,0.21531748469157277,0.14848105434345993,0.06985589943457927,-0.007804413668759847,-0.08137344584798871,-0.1491424173945873,-0.19460517482703285,-0.1298876555436409,-0.03671476437728958,-0.010990025013156561,-0.00898538303561563,-0.006141822680121616,0.006969359398547924,0.03386450302893453,0.07586050738332321,0.1288171352484128,0.18114693185997593,0.21646179583267064,0.22561160780529502,0.20716004495294718,0.160014202506048,0.08358518259282267,-0.012956545764814987,-0.07959585813718656,-0.0716160833720918,-0.022236413585988088,0.05258589110199024,0.1568750164817071,0.27738311355331957,0.37669604583008404,0.41773247319837026,0.3832819729472673,0.2764913723074225,0.12329023807495618,-0.033076410177038114,-0.1539190619197939,-0.22245333983301724,-0.2405379593076517,-0.21666896912700964,-0.1634421828192903,-0.10478576656517753,-0.07784507461898958,-0.12193893836310939,-0.249012206520706,-0.4194487488570587,-0.5631657290668064,-0.6392600423508024,-0.6298877214136865,-0.5116170048600366,-0.2988728941468642,-0.09158554225786579,0.04333858868632199,0.11137260497922348,0.14355375057946765,0.16010965315254672,0.17276383230238154,0.20198989610692228,0.25377434925571507,0.3198602025778362,0.3840311712755553,0.43461095637295155,0.4736986952438322,0.5031191693512014,0.5215667447528747,0.5288857882369319,0.5285302451244236,0.5192872441362023,0.4899259347646522,0.42803792724525275,0.3311444186311926,0.21711998745826236,0.11621192317433772,0.046432214129374726,0.004059753459576229,-0.025043944630393843,-0.050661571045396356,-0.07920641715482542,-0.11454340045431852,-0.15594071120625572,-0.1963714479335978,-0.22212458765654994,-0.22202232803214014,-0.1948768784762681,-0.14607715989718825,-0.08365128074540891,-0.0163076546676825,0.042421368376926956,0.08141873748191314,0.1027846944540357,0.11780823853897869,0.14005269750428845,0.17106327845440483,0.20012520309208734,0.21241518790281844,0.20146465138581157,0.17456557119075677,0.14722431394667473,0.13660995977027326,0.14627429315514193,0.16827977283658813,0.18241534531541448,0.16690142588165358,0.1084733791086521,0.00744485530761523,-0.12276795837344212,-0.2527132191996262,-0.3578079390933807,-0.4419838256709882,-0.5227954518983842,-0.6029136800345491,-0.6699277870694994,-0.7278556736654352,-0.7858092239624191,-0.8356143987947017,-0.8664920597309509,-0.8694651418938666,-0.8344277443376947,-0.7442751431128456,-0.5824633289577967,-0.3630858831789932,-0.1349332728646227,0.0610477946073207,0.21570849613575754,0.3242875228663179,0.38208749498206396,0.4067333651006938,0.4309045269747986,0.46808751532061293,0.4967562105579038,0.47698122956298783,0.429364411334278,0.3894047775267778,0.3638983488620079,0.3370852967854006,0.28323845837031225,0.17756017780308134,0.01643447530288324,-0.16705678667223106,-0.32265452368317915,-0.41049925111752283,-0.4061687954038357,-0.3146000646591846,-0.1839383055125151,-0.05899895092230433,0.04589883211025055,0.12750692283652765,0.1880803144851012,0.236467302092161,0.28342591685162233,0.3309655587959577,0.3660318090559046,0.36944299735448577,0.33188140129050125,0.2642657807341371,0.18750076867605642,0.13350580755480795,0.1251139839498735,0.15806263061880782,0.19354535367082265,0.1962943056294496,0.16182930124677886,0.09074376109865927,-0.02056454757685195,-0.16182640732422682,-0.2740855693672589,-0.3137019327527045,-0.29490795864257185,-0.23595171271254214,-0.15197993032837742,-0.07066794391836415,-0.04257922888877799,-0.1367290993572228,-0.3472124664973164,-0.5460215162971964,-0.6555919588901326,-0.6874750649759814,-0.6548104471998633,-0.5501912017988627,-0.34655479923051624,-0.008180730966764268,0.2934003466491694,0.3937077763213334,0.4008940523609495,0.3912649643731961,0.3927133392985651,0.4170264077732075,0.4634617003216966,0.5169040972172352,0.5482732455716938,0.5439585667551374,0.5169892330055393,0.4829688925349609,0.44717778968998706,0.40754789413662684,0.3669872820010633,0.3353370071681333,0.3246277088612383,0.34143732539584354,0.385970399739157,0.43611282708512317,0.4509305235712156,0.3999356282455357,0.2773704410740675,0.07362410113341973,-0.23188692739252958,-0.5639186550645522,-0.5864512001035191,-0.43413748482525355,-0.29302019129695167,-0.19438666820353545,-0.13758863087278897,-0.11271224696694072,-0.11078488204706863,-0.1251080447473833,-0.14569580671500587,-0.15890400040268587,-0.15665044581735726,-0.13653931693376103,-0.1010509396646413,-0.056097910477474394,-0.010213031438850231,0.027154447594134424,0.05390169264185889,0.0922261716594607,0.18323075909048228,0.33736538476249744,0.47561998517775844,0.5125326054677236,0.4120341786904363,0.15468451380052087,-0.19067525224380721,-0.4650277825164737,-0.6053809940864043,-0.61752834048509,-0.4889687071723205,-0.30700999432248305,-0.18268698034023237,-0.1112278813275622,-0.06135360107273516,-0.003412658167395047,0.0794341103479282,0.18196870695228898,0.2696830526648631,0.31564654828918587,0.3289298929085933,0.3260050678216703,0.3174025316111405,0.3045637808895598,0.25189448230358435,0.1630645716284798,0.10892212452027823,0.08688294130203489,0.07703910558521283,0.06195185774447585,0.01712707132494654,-0.09569319689206497,-0.26916048795647474,-0.4084514947983678,-0.47304258222004675,-0.46943931886248186,-0.39783236620175355,-0.2656384496049111,-0.11065862591692567,0.006452790362245787,0.02412537891925409,-0.08029573686334489,-0.26823533471255584,-0.4182074871152359,-0.42764633321684115,-0.30153809909263773,-0.12826375193071415,-0.0018909695461283443,0.038886173087533796,0.004182883549765572,-0.08037722156404874,-0.18459498383248266,-0.2731301673170045,-0.32545105905165633,-0.3418469272571099,-0.33058270713560867,-0.28799714614192296,-0.21280197668992082,-0.11365895812124886,0.004777340423871021,0.13239280582609125,0.21832270054494354,0.1935412072475142,0.07094579227715431,-0.08308140722776143,-0.22491513136107577,-0.3366211181108263,-0.41487080696887896,-0.46382517516755767,-0.48717487488673433,-0.48749246619849596,-0.4409937360977255,-0.2215640266579062,0.06803616432889965,0.22959061663686636,0.325332854374275,0.376899478931867,0.3584366212053642,0.24095085216259476,0.08203248520350832,-0.0360239450884762,-0.09473934065530602,-0.10895743955435759,-0.0928640665157007,-0.05611439458938501,-0.008475154838405824,0.037746161374918395,0.06865568697628581,0.07647602531556218,0.0655277760825516,0.04361672446051846,0.014330033783743685,-0.023101484785156865,-0.06789677128037773,-0.11352452140305895,-0.15139140874631932,-0.1705560866514232,-0.1635203258787269,-0.13031591536699966,-0.07787359109238472,-0.01436499474761077,0.05550146055691587,0.13092359609554532,0.20834855181964562,0.26891046346159675,0.2897956024992031,0.3091653564335172,0.35145344064812145,0.4010157072002933,0.4473694125229449,0.4965229977546161,0.5553659535168405,0.6231690202840783,0.6892919060364465,0.7328307677559835,0.727684609154983,0.6543987706617567,0.5111675574408946,0.3416523669775074,0.2244667915432209,0.1876535939798921,0.1832598615815031,0.12498915993013394,-0.03982069425992197,-0.2230669696550641,-0.3420276424077503,-0.40211775684499923,-0.4198736125604532,-0.4032729134468302,-0.3561477683775231,-0.29168245218834515,-0.23974319918388565,-0.2391282792970128,-0.3074403431708647,-0.4188209074053359,-0.5255916087583602,-0.5953883749525276,-0.6194779198837791,-0.6049693409036142,-0.562515431396533,-0.5027039622713831,-0.4270578891731925,-0.3157685896802853,-0.14416035422147186,0.06022208380879699,0.21976943477744953,0.30838765663680634,0.3474793008477488,0.3606061098668693,0.35969891831393846,0.3489876087893536,0.3315173275346238,0.31117909717134845,0.29594814998522845,0.2986767167595579,0.3289990065416828,0.3839125813460599,0.45521011538096895,0.5364689520993674,0.6188235283111785,0.6656263114709835,0.6267965551491309,0.5294465945683172,0.433279246824488,0.3627337156662261,0.32013234710963473,0.3017240122597818,0.3025685693034165,0.3170081734279813,0.3375193909312335,0.35016346837670126,0.3416899195263742,0.31663811923345647,0.29853775992482817,0.3035004716949448,0.3246357591613224,0.3452779595337086,0.35588013218973463,0.35817978284338364,0.3592363280378689,0.3639630291359098,0.3644973530418815,0.31402739803405916,0.16906145161194047,0.042890460860913325,-0.026462251187108744,-0.06519634769779244,-0.08946748525465825,-0.10420505339032927,-0.11091655647387082,-0.10994244707966287,-0.10641405223001742,-0.11054410271643976,-0.1309001703043986,-0.16227107610681482,-0.19419426797627543,-0.2214402841994052,-0.24047998802078682,-0.24804062937061092,-0.2451074523408838,-0.23665383182975352,-0.2293379920587576,-0.22728449290767674,-0.23405053328886002,-0.25453939027929956,-0.29308157553086106,-0.3482347194047086,-0.4074954827778821,-0.45630298296969524,-0.48644752584738515,-0.5024986465786379,-0.5113372334362106,-0.5171933135265465,-0.5160219838718949,-0.4796621681108043,-0.33371864480980074,-0.02321314439457976,0.2620032732892029,0.4187439436975461,0.49975530240585786,0.5371283109767103,0.5429625639985318,0.5216492550563203,0.4778587542832812,0.4170378105716798,0.3285534680011979,0.19442703306296605,0.018417742074562513,-0.16325454616608515,-0.31571733061560575,-0.4349144442999101,-0.5254670277108967,-0.5795784812654199,-0.5750475111039326,-0.4881005036558735,-0.32322504433837834,-0.12116082179744002,0.07783248914695907,0.25980068686364777,0.42280742497859786,0.5525713967673959,0.631852502565422,0.6576992604028898,0.6296806939919974,0.5334049563197237,0.35859580832235277,0.1829317300710336,0.11793685619951286,0.14863695554466297,0.20707397137658698,0.2578900414033025,0.2782571152824983,0.24163012276441573,0.0954956996965559,-0.19966889473375735,-0.5283745248723145,-0.7133798762862115,-0.7735673123143085,-0.7608916092049092,-0.6830878839295275,-0.5374646922145042,-0.3475360794540009,-0.1615420951510022,-0.010430283121482491,0.09747478650587271,0.16253438169979254,0.18461642438289252,0.16825164227689987,0.11492174072712036,0.03154276299420148,-0.0461047990945317,-0.07859612120761691,-0.06951111436060375,-0.036649049415897424,0.014822397099947888,0.09561244265913543,0.22360906754525453,0.38973562829166464,0.5222924823876034,0.5773244400618244,0.5762627331573086,0.5320738845922215,0.4446379688930321,0.33953736442995874,0.26016936183447364,0.23022501370244491,0.24012891298979758,0.2746954840231998,0.3151297606297623,0.33902190769779544,0.3428903199706834,0.34445271274841316,0.35239655320546076,0.36318839687662574,0.35966970606710136,0.3211030927364391,0.2599729001137342,0.2079640663752799,0.18504386087332117,0.20235399556980183,0.2601534955227446,0.32341233978090345,0.3751533454649806,0.4360917526251908,0.5068778235613863,0.5635670203549418,0.5731338392243518,0.5472201213817253,0.5278990628625417,0.5461768156375241,0.5981363551439113,0.6404254751989058,0.6470135672780489,0.612729212924665,0.5282647083776745,0.3781890583315338,0.1945467067184421,0.0627881413773404,0.016005436074314615,0.08468300747134944,0.3566724745257777,0.7701751409643391,0.9313894817359012,0.944216988539876,0.9207108154450064,0.8766578294664877,0.8168313234006513,0.7496196447967445,0.6992732558439586,0.7002735765387481,0.6685174726315817,0.14702484359724693,-0.09888213216209922,-0.1871151756433413,-0.23764461506188056,-0.28086366193809575,-0.30186287365895353,-0.2492222358478018,-0.11973932451429556,-0.05184493342103786,-0.25868583401699957,-0.7474831799515015,-0.9550140738713792,-0.9716014926376327,-0.9597956209038527,-0.9455152340136375,-0.9324630282448364,-0.9253683015218168,-0.9305157398069367,-0.843407930895351,-0.3615702457598473,-0.1252699564266559,-0.08345014750773282,-0.07418162202073585,-0.042595011218815905,0.02191210758457734,0.09585069708996305,0.14835880297779414,0.16508560743989145,0.1425799815041323,0.07676150508177115,-0.02718342750198228,-0.14292862844917775,-0.2500769463170282,-0.34708868464227144,-0.43011227959079557,-0.4681895257088024,-0.4143317317115112,-0.2703179608294858,-0.10409321069169837,0.03914077471257174,0.15068120754853084,0.23169279505261012,0.2727260868638007,0.26111813611536927,0.18749648392297208,0.047531697792642644,-0.11380317150739461,-0.20684684307660495,-0.21406357216435867,-0.16598993610010213,-0.09620583695163853,-0.03442797225686989,0.002137536256604575,0.007206487476275602,-0.01744593069348048,-0.06771877918912549,-0.13910536456963618,-0.23023096033773752,-0.33810116996280465,0.025273854157512238,0.24428959241945375,0.34901369811788285,0.40928337778123564,0.4062997143036916,0.271947708762825,-0.06548385032600074,-0.3853356210947975,-0.4941752099707751,-0.4433637068965847,-0.23717776283090203,0.09941345742645717,0.3945348622059956,0.5649262414139238,0.6532335708184042,0.6897155229995975,0.686550870307154,0.6586507823978811,0.6199496707746314,0.5640289404835304,0.4387834144856646,0.17399700050917263,-0.12265688686864035,-0.30395974183029534,-0.37730310976180137,-0.3837543621372501,-0.354369835383469,-0.3012966326401863,-0.22321588961706937,-0.12266596134501437,-0.02925336003070113,0.006045598017788727,-0.05464730674631947,-0.2188924163778513,-0.42890972730969334,-0.5630829986789775,-0.5919092370010627,-0.5440301317948756,-0.41444001547632,-0.1936931581322426,0.020878642489263615,0.13839397754041016,0.18197539223599096,0.19238186677667066,0.192554485244369,0.19190425510939843,0.194071603862279,0.20254113160715737,0.21989522687048602,0.24616515732452598,0.27512882127205784,0.2979122912577218,0.30818875894669057,0.3040250497572186,0.28277996258457505,0.2442573081235977,0.20380014700130636,0.1794586952604159,0.16862359646431627,0.15544900096430775,0.12722921498666714,0.0799298690898001,0.01992129272187973,-0.04449625642890651,-0.10570588598578996,-0.15579857844806552,-0.18881405162105114,-0.20348163493486549,-0.2034112934192272,-0.1949735031526014,-0.1872963189519781,-0.18883055259439663,-0.19779843169605862,-0.202273794254922,-0.19024522494496027,-0.15795382264452937,-0.10866321665764285,-0.04695637067452605,0.022952114310194623,0.09596529705094474,0.16240365178565844,0.2048377625588342,0.21392649275753226,0.1898151307460919,0.13121366867659617,0.04237858673540441,-0.05843691397616637,-0.14676746005858046,-0.20920613466920399,-0.24363309057767316,-0.24679162775279587,-0.21409549296454122,-0.1556177305393927,-0.09713665896358493,-0.04404293331281851,0.011913725657826469,0.07369706086401218,0.13750154890745445,0.1959346746415033,0.2430841746617477,0.2799137401780485,0.31176982258380653,0.34368747905617125,0.37742181849083073,0.4098605475385024,0.4336507373910064,0.4404332945533657,0.4243366976161906,0.3816671530869415,0.3121068158681135,0.22937337286341222,0.14244905586205864,0.043885313564853125,-0.0733610348019428,-0.20065332488796997,-0.3134105803709428,-0.3876310803428231,-0.4212178323306366,-0.42895055143881583,-0.42576526974666,-0.42129554244390094,-0.4181513687699495,-0.4157903292172843,-0.41576838577809544,-0.42229439220863413,-0.43719184264812394,-0.45642623945423316,-0.4742487900561196,-0.4829685962278364,-0.482185000230203,-0.47901446227167566,-0.47019000147689743,-0.4400350151098022,-0.36979602199362965,-0.24406734300821903,-0.09517587038396683,0.014467230213331512,0.07306221993005686,0.09749604687563546,0.10434200562079672,0.10446451345028476,0.10511687092132901,0.11007226787406124,0.12212397359770863,0.1435673566307588,0.17476316691614155,0.20982436334528684,0.23803481500706877,0.25795247026717943,0.28204090324166103,0.32476061883021917,0.39553666116739394,0.4938728173258093,0.5962578031406879,0.6526684885268255,0.6472995045305003,0.6124463678851555,0.5753726601231676,0.5440285973288551,0.51365007278995,0.4547998151627739,0.3137561518355076,0.007533741929744633,-0.40288130119282634,-0.556707623856907,-0.5175933789801769,-0.4030418520070662,-0.23283198008288514,-0.03409337354214345,0.12298018074149385,0.1922491249535252,0.18236253329393942,0.1324298603281735,0.08021911580365192,0.04299758018232261,0.020262947042107415,0.0076123635389604045,0.0016774524941750076,0.0010268779824719558,0.005075991418687464,0.010566935135386389,0.013628464911215008,0.008579175424716501,-0.011925794227515012,-0.050913681789538145,-0.106474541243653,-0.1615963562245035,-0.11264815906591157,-0.03891133734426395,-0.01653662386321563,-0.01700886839857568,-0.02381418700497362,-0.030824950475849756,-0.03424129403195248,-0.03049792375707371,-0.020166479837370747,-0.0030955122951905538,0.01900697455855945,0.04216954103534582,0.06439286188691984,0.08701449798338004,0.11203157471491046,0.14346031119200509,0.18519208587918534,0.24425601373276584,0.31823116014461517,0.38199474051673193,0.3854388598680752,0.3079208820654915,0.203189833255577,0.12290812765624279,0.0731125502286798,0.044253212164974055,0.0224037205358778,-0.008970001044578211,-0.06963452338184305,-0.17119814322157495,-0.3055659123488222,-0.44101863889925974,-0.5507696811158398,-0.6245987408421516,-0.6566534972101362,-0.6346561528676011,-0.5560225364565625,-0.44204743109500805,-0.3251144767123813,-0.22262959606591937,-0.1407959435288715,-0.07675680164872237,-0.02674798532095864,0.017192534039832844,0.06329334268300368,0.11677941655429781,0.17745760052589019,0.23948792499186206,0.2947017558534773,0.3365164453346929,0.36469302848167195,0.3789438317358296,0.3813571177435259,0.3801942717885806,0.40062906790775726,0.45475033697217454,0.5090481657698366,0.5302325016669118,0.521304150616226,0.48386414782051146,0.4019251623173385,0.24608349784175398,0.007079233702725848,-0.2524064377186308,-0.4351947965204395,-0.509192305463774,-0.49634621438765836,-0.4373201819940073,-0.36939771205863753,-0.3103516351505807,-0.25857631075141213,-0.2187614119194014,-0.21298008704363552,-0.25801050149057586,-0.36043754407848794,-0.5112856170315787,-0.6662218913989537,-0.7549110886797691,-0.7323295146307545,-0.5339700978050522,-0.15970900807617133,0.16772110730374043,0.31914609513778824,0.31735872085408706,0.17068261107250177,-0.10623399140041868,-0.33818445298897826,-0.3556487145931748,-0.2506199876971265,-0.18621713055148378,-0.25641268789320265,-0.4447920564430776,-0.6312353454527265,-0.7374229284590125,-0.7750344002361238,-0.7700614520438155,-0.7297342090241259,-0.6232977231202024,-0.3275205317847822,0.1171124300681107,0.36239999127794637,0.46938495266433367,0.5337952255153003,0.575853911874917,0.5894027335746794,0.5763045690821766,0.5459511736562183,0.512059763511416,0.4910928385704828,0.4940995761040631,0.49686337839959055,0.44318841841599727,0.3945617858335219,0.38177501563229266,0.39119910943252656,0.4044256648766311,0.4064085135312952,0.3891845003176878,0.34758422751413853,0.28142367330817025,0.19372870424991862,0.09876766314627468,0.01848065423777907,-0.031219732853750504,-0.048602958351895396,-0.035895127997026204,0.001618880388641942,0.06603546424449655,0.15579833112439262,0.27469240436080405,0.437182894519753,0.6146895281811073,0.7446463545433838,0.8035683941713881,0.8015384629068387,0.7676297159087253,0.7373635762994777,0.7349267713017192,0.7696280554447387,0.8304676058975553,0.8448464212014771,0.707917331365058,0.49855567690001806,0.337995495009849,0.23585428434842115,0.1654223868095598,0.11018580868151608,0.06362515645178615,0.013464397012826024,-0.07389007165666434,-0.22533307046191764,-0.397172259788235,-0.5152643562180698,-0.5654772896798556,-0.5661673234364503,-0.5335987313668902,-0.478283648794963,-0.40901401625764716,-0.3388605988649949,-0.28741323132484514,-0.27341815123671037,-0.29903448370652386,-0.34253331763767964,-0.3800231540751453,-0.4019037311704276,-0.40794965667073346,-0.40009585289161637,-0.3791827353462903,-0.33708889051223023,-0.25791477398875445,-0.13325099194293855,0.034717041226567796,0.2210260697564998,0.3935532274733283,0.5378798455794022,0.6498784396188552,0.7251633948922707,0.7582316356497836,0.7359228721188555,0.6406145061806723,0.49170862907042473,0.3516613319045404,0.26068471575486085,0.2111256134310019,0.17848930776204952,0.14228439021028558,0.09490829884922823,0.047098769549290105,0.021919640340985598,0.03755752917171729,0.09699444578885133,0.18420711625312622,0.26211619219710114,0.29160746978293944,0.2563432123420663,0.16403469881216243,0.046342449808822295,-0.05386208885505587,-0.11768862632036577,-0.15125496575501993,-0.16233224817603026,-0.15438966059142925,-0.13249809774779092,-0.10197278099674119,-0.07279586448231336,-0.057438897682834514,-0.06581991996109196,-0.10175901562126921,-0.16106141138862623,-0.2058331296757806,-0.18577349366679458,-0.1322818632591961,-0.060726687057646105,0.02791619601661865,0.11533439684202942,0.1857851394515809,0.2265315819357272,0.20154304349370178,0.03537547718653097,-0.30813574399840404,-0.5733885208415802,-0.6305656995937838,-0.5624338978746389,-0.4218047164606867,-0.2679970713258315,-0.15412328298709332,-0.0919047787926828,-0.06033595387359194,-0.033839162193569625,0.00757041798848426,0.06892107536432272,0.14443644717372825,0.2221111708515856,0.2874260871283877,0.33661664638522776,0.37040682024866006,0.3921866201960003,0.4023463148134727,0.39442780938232713,0.3679099229051244,0.3284368619829671,0.2831596860889697,0.23459975665533667,0.1828699089735421,0.12930768489661745,0.08358274344108903,0.06589001341066747,0.08316843825074495,0.12167930237640001,0.16360463412223758,0.19103858999967202,0.19098631555832993,0.15114896310055678,0.07343905908360557,-0.026462386204217012,-0.12734325863199858,-0.21585555723860544,-0.28523031274791305,-0.32947168415326533,-0.34072055136717344,-0.31389049370115185,-0.25846149142605596,-0.19304254540015314,-0.13897034917240644,-0.11017520785837588,-0.1111312947192384,-0.13100927012401326,-0.15126974833887066,-0.1617004205495384,-0.16049175670353386,-0.15178225616753244,-0.13967943059718516,-0.12517305750987934,-0.10989782118051851,-0.09820836990158316,-0.10279280012481293,-0.1451764625266008,-0.2470270199231221,-0.38137585176206085,-0.4825801008263294,-0.5408915023012504,-0.5670232254876708,-0.5591448391326407,-0.5087432922484129,-0.4029179690644417,-0.23076084503866054,-0.0028770925396617597,0.2357889435328071,0.4260352831240026,0.5297918174948868,0.5077395574745671,0.33543876692769825,0.09983397393264398,-0.05179672802664851,-0.08653426818159957,-0.040950614493351384,0.046290831243566984,0.14653924382781922,0.24304058001304657,0.3210473826266754,0.36954354565645425,0.3794370524215828,0.35490328762833384,0.32518526690015986,0.3133533847913082,0.31988938060621835,0.33911557699486444,0.3664233187852376,0.39838662898816746,0.4242442046505968,0.42986548297335997,0.40456443772487377,0.3455326887502458,0.2575395552044173,0.1541379192881317,0.04705648790718584,-0.05995077015067852,-0.15881306080656923,-0.23171664622554855,-0.261376740044804,-0.23979787105545497,-0.16759854889006207,-0.06144940142905627,0.0520826232661783,0.14943328112661375,0.21780667378350899,0.25510114641689563,0.25855128491775864,0.20050244469271827,0.15009559983787926,0.20008128285293242,0.29025305475499,0.3738630451577887,0.4275160243103211,0.4444994397004448,0.4319101884643489,0.4065998548238645,0.38155014769133894,0.35350930703829053,0.3180537543369388,0.2789192505420386,0.24228429900688456,0.20762145132811974,0.17133059979636947,0.1360553394534111,0.10771012524427706,0.08548166301841419,0.058315759819061445,-0.0028396539770924384,-0.1511369309654371,-0.3481992527921471,-0.45355312625341376,-0.5006644588180905,-0.5344671285705733,-0.5652978263804078,-0.5895157447803923,-0.5921829424975028,-0.5518976598816977,-0.4435262191001119,-0.2372203483674154,0.01777411064427022,0.17308910697704152,0.177347283013765,0.05507784207174504,-0.14762993404319702,-0.3549493246837229,-0.5077506122829978,-0.591270240615227,-0.6009531194537747,-0.5298756914282722,-0.39848729068775235,-0.25349323596917267,-0.1297711293075123,-0.04611786373243047,-0.005721803726300993,0.009241243314403062,0.020835232867258434,0.039703413878476694,0.06567888439650113,0.09646677574713793,0.12298925405672055,0.12975695876653845,0.10589829602444864,0.06234675267982947,0.019415391386672132,-0.009002218900913092,-0.018001816356634438,-0.004228663880633654,0.0283494538561692,0.06822550025036996,0.10297221544945799,0.1259692687912414,0.13722310239953614,0.14089824738501086,0.14484421247550347,0.15980822402772152,0.19499015201731887,0.24772141846157555,0.30407340851045145,0.3505670436659903,0.3799368011755171,0.3922735841422627,0.3901890693422135,0.38045701060984827,0.36915446137586216,0.3597001425368399,0.3522068432734689,0.34167691021226454,0.32240694922488083,0.2940427622390612,0.2579946081204812,0.21965978464724864,0.1844046613154888,0.15814638534641823,0.13907025967918568,0.12404993495722147,0.11153194168713655,0.10660058572392987,0.1226668289023044,0.16497004493583653,0.21210392570683725,0.2531506582873361,0.28997218829606203,0.3159751844059646,0.3136333575776916,0.2808360088492391,0.23481017073259422,0.19469526386138167,0.16338060042357905,0.13582558647448095,0.09993591647887368,0.045269077495038924,-0.022107742129717983,-0.08223126943130148,-0.11543137131155168,-0.1124436991408122,-0.0707620563928078,0.0017212564385892326,0.089974216562459,0.1657709712043132,0.2100273737598038,0.22270661378134998,0.2120911302664534,0.18602794748765494,0.14787092832269888,0.10106730104326057,0.043594081035232254,-0.026051856593993228,-0.09759060114773031,-0.1598094696835525,-0.1992696747461644,-0.20411636831397242,-0.15991019516990496,-0.07253519746298268,0.01066977704665849,0.0286123729659311,-0.09680075987626269,-0.4391422522077513,-0.7554678003857376,-0.8768464203306671,-0.9158508734711125,-0.9202622096776085,-0.8943747897284485,-0.8278280521713759,-0.6975317547835035,-0.4523946091858142,-0.1808819185355621,-0.1284741634195586,-0.19470202667890804,-0.27709874132819534,-0.34278402822375004,-0.38377618967434807,-0.4003989154054047,-0.3940262955001404,-0.36610699104746514,-0.31978756829952354,-0.25576908162738216,-0.17385643595185316,-0.07774049126931235,0.018096298680092056,0.09167839519424266,0.1278857063026737,0.11636012596102113,0.04987225576881332,-0.06840136836845061,-0.195808200404217,-0.25797587584015197,-0.21418497218468474,-0.07466021122419918,0.10541208437712918,0.26106820370117695,0.36970280034724223,0.4400079041730898,0.48636971670502577,0.5164638023480626,0.5324544179506465,0.5311650049790692,0.49775515905018125,0.41000386197246347,0.27630612358094564,0.15364896181822588,0.07380318350200764,0.024677775864180646,-0.011784205775311056,-0.043275060360157186,-0.07097231725453212,-0.09603783911364591,-0.11874205210507904,-0.1212407911460778,-0.03287386104017643,0.16494166525781423,0.34437382607560035,0.4862892544583449,0.5950802392465546,0.6743075800662374,0.7261041627614787,0.7564438649586228,0.7762748397517011,0.7931653135667184,0.8028880725576756,0.7830175227602267,0.7253417020176167,0.6444556364688491,0.5548666734784117,0.47141658187192337,0.4064321738236249,0.3585789765767463,0.30558930271373225,0.21681271362339777,0.08182263809240445,-0.062467327691599336,-0.17017648000683736,-0.2275303095717609,-0.2519872186542447,-0.27279248774331577,-0.33220669399547104,-0.4763039595892058,-0.652548874342311,-0.5929543572157719,-0.392983970356896,-0.19878394588910692,-0.027648373917558516,0.12456538974656177,0.23768174669515488,0.21512845813981893,0.030749560322172628,-0.18742618831192395,-0.35667061550263973,-0.4634138336549303,-0.5297447931494271,-0.5823069254233899,-0.63041152613942,-0.6656411217176847,-0.6649845841659745,-0.6154734917063172,-0.5247717497428787,-0.38160469363479527,-0.14239924055797945,0.19039880344729204,0.48575886175829913,0.6380211486967755,0.6731074001710117,0.6260652893751895,0.45971260872067937,0.07342323083675809,-0.38529582063441875,-0.618858317702904,-0.6877868581638205,-0.6776888224347805,-0.6197724765504742,-0.5279556419699023,-0.4163218535340193,-0.29721887593463836,-0.17105304968362184,-0.02496296112367105,0.1520431468296011,0.3444072266022396,0.5033861340631475,0.6023023179464324,0.6514160964661868,0.6670871449352367,0.6586880913045886,0.6340801940303512,0.6019389145930496,0.5720790378089265,0.5469774345019183,0.5235320214867708,0.49792634504651406,0.46891542259774704,0.43370845693287247,0.3895412865581322,0.3282626834985424,0.2463775489692397,0.1490128350074068,0.0627230376451895,0.016840350940119018,0.026470854622323372,0.07584484873776083,0.10024768407253411,0.045217299230022004,-0.07309328215307478,-0.19624257000597783,-0.27873617811088297,-0.3194091441629481,-0.3297279960043441,-0.3118308166321831,-0.2697374794286853,-0.22562414929881683,-0.20610038533847524,-0.21472073864526722,-0.2323057683087296,-0.24275320374432158,-0.2433271813265368,-0.24408032412250083,-0.2651819434354997,-0.344358559573741,-0.3204548544271787,-0.10993327238409648,-0.021350101994402924,0.026810851530394766,0.06153395236359238,0.09008209057247828,0.1139591978745798,0.13123814208822143,0.14220847672373874,0.1518024531521713,0.17283477941852693,0.2171151121201736,0.2968705462814641,0.4109648002282872,0.38265624593049385,0.2556236431006427,0.17724134758071147,0.13198398142902595,0.10687739957938178,0.09649063091630128,0.09452698630951374,0.09040322702103934,0.07394517030603474,0.04299479113948332,0.007694225726382858,-0.01930736373130837,-0.036526443571104614,-0.047208816410185206,-0.05576672187777948,-0.06576498777499386,-0.07963780925885154,-0.0983095570050027,-0.12160889712955586,-0.1483010777086657,-0.17618891318172886,-0.20278375810223842,-0.22554829155340825,-0.2472587087223954,-0.27337434424284984,-0.3080100040262203,-0.35706146399060484,-0.43366360539369875,-0.5638901900705212,-0.7182405985064135,-0.5400657077220227,-0.294661326913868,-0.1720705992793718,-0.10196425457787184,-0.048059118999285,0.005124258134517968,0.056747662604505596,0.09906212764058565,0.12486323671356334,0.13090500125958981,0.11749056925671598,0.091096017532265,0.06230380571759088,0.04163909939339491,0.03636182418546528,0.051282271119239026,0.08408052427122877,0.12749288828249206,0.16798988616111304,0.1904032387325557,0.18886775165408887,0.17256727080194806,0.16768896288804655,0.20091192942422323,0.2812789212310066,0.3928902024558732,0.5066151283357612,0.6022832031497273,0.6746034039685129,0.7243843702498468,0.7447396550744018,0.7175708240042958,0.6307479123450039,0.4932206227170871,0.3405694175985079,0.2158966208808601,0.12359963696026233,0.05084807878538026,-0.00979837793434616,-0.0636062140833594,-0.11400403505526023,-0.1618076958361654,-0.2068359047549547,-0.25131622518468516,-0.3035822046910457,-0.3875430383484467,-0.5380155794126426,-0.7099733047742511,-0.6696961039735575,-0.5382708778517683,-0.45488194311062397,-0.40979012895907896,-0.36897868887603213,-0.30647546055501224,-0.21305163193440266,-0.0999845135032678,0.00180878173617974,0.06355499192651977,0.07522481401726382,0.047064907866818856,0.0022840513815017413,-0.03599110063230315,-0.05801701298015903,-0.06342041202137416
