-0.009087916256678841,-0.0022603989053588025,0.0029634194290923278,0.0037770613743894677,-0.0005092996118746796,-0.00837450556814875,-0.017129998397556485,-0.024328963776552495,-0.028992667098967192,-0.030991395015423272,-0.030260292670238522,-0.026522259898068088,-0.019482486686848047,-0.009730574870641835,0.0010059614945930868,0.0106045819999211,0.01767383766755269,0.02187765614329414,0.02309811851553792,0.020951989231062756,0.015905050355426793,0.00929567589645557,0.0022382164856001945,-0.004907683018464052,-0.011192772284985568,-0.014989766331966208,-0.015207919774552386,-0.011900289392643657,-0.0060279144977420695,0.0010059614945930868,0.007650704714822092,0.013139844056502413,0.017620773611627366,0.021565172664639972,0.025315003512593057,0.028587261495231123,0.03077466403587472,0.031641369673295894,0.032077672920455366,0.03351628509727244,0.036735489938023835,0.04083316574986309,0.04354530435484927,0.04271398203073741,0.03766703951708856,0.029589574062901608,0.020309330617099764,0.011512557255497826,0.004284113058103153,-0.0009220165301036263,-0.004365255297466818,-0.006428841707617993,-0.007325026163437829,-0.0072130008327022975,-0.006222482702801587,-0.004724909251174306,-0.003504445787526664,-0.0034749658777241364,-0.005261439753286654,-0.008669304666174027,-0.012825952666862157,-0.016617053132970794,-0.019170003208193884,-0.02043173883660609,-0.021015436175758878,-0.02154606945898634,-0.022235898548002658,-0.02290214239949231,-0.023126185784937605,-0.022678095376034133,-0.021451735784905467,-0.019205375607464548,-0.016056937393331784,-0.012495781169566214,-0.008810808815308222,-0.004925371037105826,-0.00021450160525326715,0.006300532631213892,0.014660999107643471,0.02389407571640488,0.032230964231333564,0.03803258705166806,0.04094521654668882,0.04171756668195181,0.04161144584612694,0.041511218591174064,0.04191212761098557,0.04295572798687602,0.04433537161285712,0.04521977254494584,0.04405237059061449,0.03902900240045365,0.029135586435113246,0.015250597303694026,0.0002217992044375729,-0.01229531574562181,-0.019458901449321386,-0.02046711123587676,-0.016334044834702403,-0.009382715354704118,-0.0023547340346448307,0.002303072432686271,0.0032228413984301913,0.0003809901716692902,-0.00514352084167912,-0.011982832266967643,-0.018751387979676182,-0.024234626464458738,-0.027624803358704337,-0.028638906726131706,-0.02778399188846742,-0.025991619338814862,-0.023975207041729892,-0.02214156487392178,-0.020573239347727406,-0.01924075528276098,-0.018303293932759822,-0.017831618286329686,-0.01760757490088439,-0.01737173707766932,-0.0168293057186592,-0.015343526704801696,-0.012383755838830682,-0.008091500907893245,-0.0032686072367090185,0.0009234182564678129,0.003535327423693378,0.0041720913653805055,0.003128506269144164,0.0009528978024690522,-0.001829993968488082,-0.004707221232532532,-0.007077393902452989,-0.008462945661357623,-0.00857496735408027,-0.007437047856160477,-0.005597512107480367,-0.004082250637211312,-0.0037343874832607114,-0.004665947976364097,-0.006617512693792624,-0.009140980312604165,-0.011682139588070363,-0.01381647443477575,-0.01526098383047771,-0.015915433244197592,-0.015832890369873606,-0.015072312844303078,-0.013987457402308608,-0.013079478508719,-0.012778785829821719,-0.01349219651835181,-0.015343526704801696,-0.017295087784217338,-0.017713699374722152,-0.015697283439624298,-0.011658554350543701,-0.006747222405157047,-0.001871265769451363,0.00296931519277206,0.008104695980623338,0.013528976828608565,0.019059385788444436,0.024524943530610983,0.0295247192072194,0.03316252836244984,0.03457166535888113,0.0336165159902382,0.030880792147725367,0.026747722108538128,0.02093430121242098,0.013133946837617528,0.003741685337105919,-0.005709533800203014,-0.013197397420326534,-0.017206647691008464,-0.017536822826317293,-0.015243295811835934,-0.012165606034257388,-0.009989997931383564,-0.009205835168286375,-0.008828493195937114,-0.007254274088870733,-0.003563405243330431,0.001672204618480165,0.006730935021475594,0.009460765283116424,0.008582268845938362,0.004743997904776402,6.260834634624209e-05,-0.003392422639598862,-0.004565717083398337,-0.003775660739429146,-0.0024136934904485973,-0.0017533464940425404,-0.002384213944447358,-0.0041235202553668625,-0.006145833409349603,-0.007366295781593381,-0.006700055568116609,-0.003704908664862049,0.0013715108481790197,0.0077037687707474135,0.014330827610347529,0.020297536179329993,0.024454191456043887,0.02596355934544094,0.02493176432135891,0.022549793575655796,0.02015603566820868,0.018564128542500523,0.017874299453484208,0.018092449258057502,0.01898274013300534,0.02025036934228955,0.02132933120341202,0.02154158742711331,0.020574647258713493,0.0185110644865752,0.01585787988037347,0.013175220093785963,0.010651748836961539,0.008110589561495341,0.005427929774907831,0.0025801820568646205,-0.00037369231782408255,-0.003327567056314074,-0.005868725967978984,-0.007490111912085801,-0.007920517940360387,-0.0071540431959049725,-0.005355777065380412,-0.0029502258115673874,-0.0005505710490366723,0.0013066552648942319,0.002338448106168531,0.002538910619702628,0.002037754335867386,0.001265383827732239,0.0006757878144894141,0.000487117192116071,0.0002984466425029855,-0.0004444440285898916,-0.0016943870382387734,-0.0027851389715155515,-0.0026966996059092567,-0.0007451377988910365,0.0027039970959531756,0.0065186824357871855,0.009289782315583566,0.009956026167073221,0.008470243515202829,0.005545848686515365,0.002291280177724229,-0.0006449065421239882,-0.003197855889744498,-0.005744909837486564,-0.00872236872209935,-0.012366067820188908,-0.016457860965194825,-0.020325607086742564,-0.02290214239949231,-0.023656826344190838,-0.022825493106040325,-0.021039017775272655,-0.01849786213781934,-0.015072312844303078,-0.010326066647564393,-0.004182481530177072,0.002291280177724229,0.00676041747788714,0.007450242928890571,0.004808852760458613,0.0010590251867171215,-0.001340629575813594,-0.0009220165301036263,0.002303072432686271,0.0071200714315946285,0.012155219507473706,0.016235221852722737,0.018835342402999142,0.020014531519074487,0.020421355947835295,0.02083996753834011,0.021783322469213266,0.023404712051332967,0.025114538088648653,0.02589280727087384,0.024625174423576746,0.020592335277355267,0.01427186633553732,0.007067007375669307,1.544069802893205e-05,-0.007159940414789859,-0.016127689467898883,-0.02891012058663032,-0.045483673999547704,-0.06277649530173834,-0.07621928032910032,-0.08223317028717475,-0.0796625503833743,-0.070075695211713,-0.05685104543687278,-0.04344955185574365,-0.03183451541531779,-0.021811389738612956,-0.012254046127466259,-0.002443173400251125,0.007302845198884375,0.015887358698772135,0.02231395939045361,0.02636448291730398,0.028764138043635982,0.030532925355761884,0.03238426281823753,0.03462472577679357,0.03700670379852245,0.0390644002658145,0.04008438993808811,0.039400443515905145,0.03674138351889583,0.0325493485668855,0.027738243876451723,0.02326910512108366,0.019908407045236724,0.01769152204818158,0.01612909374087209,0.014395682466029739,0.011683540223030685,0.007638913915065203,0.0029103561007695813,-0.001334733448332573,-0.004312191241541494,-0.00576849143700034,-0.005615196488109257,-0.003923058469435343,-0.001092999133835195,0.002244112613081215,0.0052746348260167475,0.00750920420370078,0.009148278166449371,0.010769667748569073,0.012620997935018956,0.014525392177394162,0.01540389225258511,0.013464121972926353,0.007591747078024767,-0.0013642133581351005,-0.011316588415477988,-0.020119248081926156,-0.026032892594983294,-0.02830873159082288,-0.027418440715875046,-0.02477116060458397,-0.022200526148731994,-0.02105081221304243,-0.021534278659229453,-0.022772429050115003,-0.02304954012949851,-0.02076780391477404,-0.015508612453449666,-0.008014851614441262,0.00039867782650977615,0.008476140734087716,0.015451059089625546,0.020722048626732575,0.023823323641837785,0.02477846937246783,0.02387049047887822,0.021635921101194184,0.018841235983871142,0.01615267897839875,0.014183426242328448,0.013116258818975754,0.012609207135262068,0.011825044372164879,0.01007984229756564,0.0072203023245603895,0.0033525525649997674,-0.0015057160520641417,-0.007413466256646701,-0.01424098324416545,-0.02126896201761572,-0.02717081573091597,-0.030631741061715786,-0.0310503526522206,-0.02888653534910366,-0.0250305836653257,-0.020101560063284386,-0.014388380974171649,-0.007720056154428868,0.00025717495068009084,0.009454868064231538,0.018835342402999142,0.02678899172669368,0.03145859590600615,0.03134657057527061,0.025833845996063635,0.01562793927604329,0.002821916371361998,-0.009276587242853473,-0.017696011356080378,-0.021097979050082864,-0.019883413896723972,-0.015632428583942086,-0.010037164768424001,-0.00419427232993396,0.0014127826491423011,0.006996255301102209,0.012827356939835362,0.018699735472749834,0.023528524543812504,0.026222978768169786,0.02582795241519163,0.02191303218057769,0.0148437765129461,0.0055871219426838,-0.004848725381666726,-0.014924911476283997,-0.022524800427143048,-0.025920870902260647,-0.024635550036321775,-0.019912892715122636,-0.014040521458233932,-0.009140980312604165,-0.005792076674527001,-0.003186063998583744,-0.0005505710490366723,0.0020849215367091116,0.004001108397847648,0.004608390974527093,0.0038713986864832256,0.002179257029796427,4.49204732249831e-05,-0.0019125372066133557,-0.003250919218067244,-0.003604676680492424,-0.002985601485049648,-0.0019420171164158838,-0.001676699019596999,-0.002985601485049648,-0.005792076674527001,-0.00914687753148905,-0.011652657131658816,-0.012236358108824485,-0.01042040395965815,-0.006428841707617993,-0.0006802822156062485,0.006194404519363246,0.013328515042677045,0.01980817251425808,0.025014307195682896,0.028787723281162643,0.031016395439961788,0.03161189085489723,0.030532925355761884,0.028050727355105894,0.024731298897414506,0.021158348235879164,0.017838923416200664,0.014896840568871424,0.012267241200196354,0.010162385171889627,0.008688393319776123,0.007479721747289234,0.0053335961008269565,0.001112088878841156,-0.004889994999822278,-0.010992310499054048,-0.015314047886403033,-0.01727150618470356,-0.018550926193744665,-0.022383299916021736,-0.030295672345534954,-0.040666653900164614,-0.04999404599294248,-0.054999733440487315,-0.05417430469724746,-0.04793045594477842,-0.038001700322283304,-0.026292315655725023,-0.014111269894788146,-0.0022898784513600426,0.008417179459277505,0.017791756579160222,0.025951764907671166,0.03290900252059299,0.03840402816711955,0.041741141005439825,0.04264915264114539,0.04150532501030206,0.03903489598132566,0.03591004664273244,0.03263189144120949,0.02950113760770562,0.026618008759160823,0.023381126813806306,0.01884713320275603,0.012626895153903842,0.005351284119468732,-0.0016825947832767314,-0.007672885679375546,-0.012808264648220382,-0.018014395691632313,-0.024157980809019635,-0.0314748614616103,-0.03847336869268767,-0.04266537817860781,-0.042541576600166935,-0.038243409898293064,-0.03125081443815212,-0.02352121941394153,-0.01633994205358729,-0.010037164768424001,-0.004453695390675689,0.0006168283586856471,0.005386656518739396,0.009737876362499927,0.013470015553798356,0.016264700671121398,0.01728470489544654,0.01517984522912693,0.009625851031764396,0.002250008376760948,-0.003710802245734051,-0.005155311641436008,-0.0008453690556580847,0.008016255887414466,0.018611295379540965,0.027667491801884627,0.03285593482665478,0.03362831042800797,0.03125813048206175,0.02797408169966679,0.0257159270844561,0.025273730256424622,0.025981247364082714,0.02600482896359649,0.023864593259993332,0.01965488120337988,0.014525392177394162,0.009785043199540364,0.006235677775531681,0.003948044341922325,0.0024268871079735376,0.0012300077904486904,0.00021000727689669062,-0.000450339792269624,-0.0006095308686417279,-0.000196813768512137,0.00043405349999203643,0.000852666545702004,0.0007052677242919419,-0.00024987738787591397,-0.0021129997201474525,-0.004754388069572969,-0.007537278749126238,-0.009518322284953426,-0.010520634852623912,-0.011581905057091718,-0.014582949179231166,-0.020761910333902032,-0.02989474513565903,-0.03993555883100564,-0.04762388059904779,-0.050200430463849074,-0.04663925241200619,-0.03783071371673756,-0.025979828539057972,-0.01356884217379091,-0.002643635913785222,0.0057227288729331085,0.011117530902519674,0.013552562066135225,0.013287241786508612,0.011088048446108128,0.007697875189875413,0.0036296625529794054,-0.0009397045487454005,-0.005680054981804353,-0.010107916842991099,-0.014005145420950384,-0.017253814528048902,-0.01950607192437471,-0.020425841617721208,-0.020066187664013718,-0.018733699961034408,-0.016528613039761924,-0.013374277606744277,-0.009082019037793956,-0.003598780916812691,0.0026450376401494086,0.008806312231383657,0.013599728903175663,0.01592863195494057,0.015710482150367275,0.014000652475038702,0.012202386344514142,0.011229552595242321,0.010734291711285524,0.009177760622860917,0.004997523746633245,-0.0017002828019185058,-0.008728262302971352,-0.013250461476251855,-0.013557051374034023,-0.009689305252486286,-0.0029502258115673874,0.004749895123661288,0.011718916260314233,0.016948632541252825,0.020014531519074487,0.021064014561798287,0.020745633864259237,0.01975511209634564,0.018752795890662272,0.018287013825104136,0.01826932580646236,0.018157304113739715,0.01767383766755269,0.017084239471502137,0.01719036758335278,0.01855823132361564,0.0207102541889628,0.022207831278602968,0.021323437622540017,0.01742620540656785,0.011329783488208081,0.004785271160944837,-0.0005859470863202211,-0.0037933487580709205,-0.004565717083398337,-0.0036223650629354865,-0.002248607014198049,-0.0018476816233285677,-0.003197855889744498,-0.006169418646876264,-0.009960519112984904,-0.013439132462426487,-0.015284565429991485,-0.014765722946520912,-0.011912080192400545,-0.007460633093687138,-0.002726179515711784,0.0006639959233286608,0.0016014532715156442,0.00025127900509971414,-0.0019420171164158838,-0.003604676680492424,-0.004188375111049075,-0.003480862005205157,-0.0016295314549539853,0.0009941696034323334,0.004060066034644973,0.007285157180242601,0.010374637757578036,0.012780190102794924,0.014059613749848912,0.01385915196391739,0.012084467432906608,0.009213133022131583,0.006147237682322809,0.003582494988336392,0.0017606439840864596,0.0005342851205603731,-0.0005387791578759189,-0.001824097841007061,-0.0034336940767608548,-0.005184794097847555,-0.0068238680605961465,-0.00818583458197412,-0.009164565550130824,-0.00967161723384451,-0.009583177140635639,-0.008345026749750087,-0.005196584897604443,0.0003750940441882692,0.008222614892230872,0.017160888764954117,0.02553315331716635,0.03188899829626785,0.03540299495901875,0.036387623146060345,0.03598079871729954,0.035149465479149024,0.03425328102332919,0.03295616935763343,0.03029119395167481,0.0252914182750664,0.01777406856051845,0.008829897468910318,0.0003102385336637389,-0.006540863400340641,-0.012348379801547134,-0.018969537784249476,-0.027689658214386546,-0.037712769339039845,-0.04660978450764618,-0.051562393347214165,-0.05099639130272891,-0.04579614292615034,-0.038950930643964043,-0.034128042429799145,-0.033709430839294334,-0.03747105976303007,-0.04273613752920068,-0.046026101720544936,-0.04554260980826772,-0.04194607027119284,-0.03695220636552085,-0.031545613536177394,-0.025885494864977102,-0.01977138856598844,-0.013156127802170983,-0.006446529726259767,-0.000456235919750645,0.003959835141679214,0.006217989756889906,0.006276947393687232,0.0047734803611879486,0.0028396043900037727,0.001707580291962425,0.002096713791671153,0.004124924528340068,0.007167238268635066,0.01039232577621981,0.013228284149711287,0.015291870559862461,0.01654770896938979,0.017160888764954117,0.017367247769770524,0.017178576783595894,0.016353140764330268,0.014714063163568793,0.012715335247112713,0.011317992688451193,0.011430014381173841,0.013204698912184626,0.015840191861731696,0.018316496281515684,0.01969615082153543,0.01941903974215193,0.017632564411384256,0.015050135517762506,0.012715335247112713,0.011500766455740939,0.011471287637342276,0.01211394625130527,0.012974754669841559,0.013853254745032505,0.014790712457020776,0.015899153136541905,0.017149094327184346,0.01852875250521698,0.02037418911079486,0.022903553948491286,0.02525014501889796,0.0257218206653281,0.023039160878740594,0.017561812336817157,0.011176488539316999,0.006300532631213892,0.004808852760458613,0.006901917989008451,0.010746086149055296,0.013823775926633843,0.014395682466029739,0.011895796446731976,0.006854751151968015,0.0003102385336637389,-0.006481905763543315,-0.01219508485265605,-0.01577393273307628,-0.01669959600729478,-0.015048727606776417,-0.011422716527328635,-0.007065603102696101,-0.0031153122878179356,-0.0001555420403091135,0.0016604127273194115,0.0025919743118266625,0.003252321308232719,0.003965732360564099,0.004142612546981843,0.002869083936005012,-0.00017322994981050133,-0.0040468745999277635,-0.007089188340222761,-0.00805022765172481,-0.006859244097879694,-0.004235545586102395,-0.0014703403785818817,0.000487117192116071,0.0012712795914119714,0.0014068865216612801,0.0017311644380852203,0.0025624944020241347,0.0035235355325326247,0.004166194146495619,0.004372553151312025,0.004207467402664054,0.00398931759809076,0.004260531458589377,0.0053159080821851825,0.00676041747788714,0.007780418064199398,0.007656601933706978,0.005651976798366012,0.0010295452769145937,-0.0066116154749077385,-0.01722433570965024,-0.029434860288985783,-0.04031878710820114,-0.04667465027736705,-0.04696943846135367,-0.04185763017798397,-0.03368584560176767,-0.025266421488540764,-0.01843890086300913,-0.014058205838862822,-0.01197103782919787,-0.01128121237819444,-0.010726993857440316,-0.009406296954217894,-0.007277859326397393,-0.005273234191056427,-0.004854618962538728,-0.007383983800235155,-0.012914392760071027,-0.019901101915365746,-0.02609775108867839,-0.029493821563795992,-0.028933705824156983,-0.024222835664701847,-0.015921330463082476,-0.005467798758103061,0.005056485021443453,0.013977070875524926,0.02069256980833391,0.02555084133580813,0.029135586435113246,0.031806455421943866,0.03345732746047511,0.033598827971596426,0.03118738204550753,0.024996622815054007,0.014666896326528357,0.0013774069756600407,-0.012307106545378699,-0.023768848036913485,-0.031356942550002764,-0.034222376103880014,-0.03238873393607191,-0.026687345646716064,-0.01820896025867895,-0.00819762901974389,0.0019787945162623305,0.01081683458560951,0.017355453332000753,0.02141777129662089,0.023392917613563196,0.023953033353202206,0.023693610292460476,0.022844592673681073,0.021529796627356424,0.01961950516609633,0.0169663205598946,0.013570246446764115,0.009897064892263012,0.00676041747788714,0.005097754639599005,0.005522263448988705,0.008122383999265112,0.012184698325872368,0.016683315899639097,0.02069256980833391,0.02341060563220497,0.02421245641394393,0.02266181890639133,0.01927164201214573,0.01578123422493437,0.013664583758857875,0.013169322874901078,0.013428745935642805,0.013363891079960593,0.01217290752611548,0.009614060232007506,0.006418451542821426,0.0037122065187072564,0.002226424594439441,0.0017724358752472132,0.0014245745403030545,0.0005814526852033867,-0.0006272185234822138,-0.001676699019596999,-0.0024785490737333853,-0.0034926538963659104,-0.005373465084022187,-0.008203522600615893,-0.011322485634362873,-0.013386068406501165,-0.013156127802170983,-0.010066647224835547,-0.004695430432775643,0.0013656150844992873,0.006182613719606357,0.00833463658495352,0.007350012035924812,0.003358448692480789,-0.0029148501380851276,-0.010178668917558194,-0.017065143541874273,-0.022224107748245767,-0.024470464287673802,-0.023149771022464266,-0.018545028974859778,-0.0118059520805499,-0.0045126530274730145,0.0017547482204067271,0.0061708192818365855,0.009124696566935596,0.01096423595362859,0.010757876948812185,0.007267469161600827,0.0009293140201475454,-0.006169418646876264,-0.01128121237819444,-0.012366067820188908,-0.00942398497285967,-0.004058665399684651,0.0015955571440346233,0.005881917402696194,0.007986777069015804,0.007680187171233637,0.005634288779724238,0.0031461942877859385,0.0019080428054965217,0.002639141512668387,0.004909083653424373,0.007638913915065203,0.009944231729303449,0.011200073776843658,0.010799146566967734,0.008794521431626769,0.0059762547147899515,0.0032700093268744936,0.0014304703039827872,0.0008113951085400112,0.0012712795914119714,0.0022559045042419685,0.003128506269144164,0.0034350958031250417,0.0031344023966251846,0.0024563673815773536,0.0016014532715156442,0.0005873484488831193,-0.00043854790110887064,-0.001034039678031428,-0.0006508023058037207,0.0010295452769145937,0.0036355583166591383,0.006282844612572117,0.008098798761738453,0.00915417538533426,0.01041591101374647,0.012556143079336744,0.015162157210485154,0.016789444011489744,0.015905050355426793,0.01180145913463822,0.004708621867492854,-0.004182481530177072,-0.013209191858096306,-0.020761910333902032,-0.025891392083861986,-0.028627115926374815,-0.029759138205409725,-0.030419488476027375,-0.03136873334975965,-0.032677635815212304,-0.03382145253201698,-0.034004226299306724,-0.032371049555443024,-0.028456129320829075,-0.0225660700452986,-0.015573467309131877,-0.008516009717282945,-0.002036352245701911,0.0036768304814237076,0.008788627850754767,0.013470015553798356,0.01808065845830062,0.022744361780715316,0.027337313028562918,0.03155882679897191,0.03477212714481265,0.03650553114362923,0.03667651774917497,0.03557397792655161,0.03362831042800797,0.03121096364502131,0.028227603903510753,0.024613379985806972,0.02048031358463262,0.016093717703588542,0.011760189516482666,0.007768623626429626,0.004396138388838685,0.001843187586013022,0.0002984466425029855,-0.0004090683551076313,-0.0008925366203010984,-0.0019891846810588974,-0.0041058322367250885,-0.006682367549474835,-0.008881557251862435,-0.010314275847807504,-0.010732887438312319,-0.009830805763607595,-0.0076964709169022065,-0.004677742414133869,-0.0013701091218148332,0.001318447156054985,0.0027039970959531756,0.002680413313631669,0.0017311644380852203,0.00019231944015556048,-0.001871265769451363,-0.004489071427959237,-0.007566761205537784,-0.010785951494237642,-0.013610115429959347,-0.01567959542098252,-0.016505027802235263,-0.01572086867715096,-0.013439132462426487,-0.010626759326461673,-0.008633928628890479,-0.008339129530865201,-0.009730574870641835,-0.012147918015615614,-0.014753932146764024,-0.01692364303075296,-0.01817948144028029,-0.018256127095719384,-0.017053352742117382,-0.014895432657885333,-0.01229531574562181,-0.009665720014959625,-0.006741325186272161,-0.0030150813948521754,0.0014835339961068216,0.005999836314303729,0.009525620138798634,0.011412326362532067,0.0115243516932676,0.010044466260282093,0.007320533217526149,0.004071860472414745,0.00098237771227158,-0.0015528839805084439,-0.003563405243330431,-0.005456007958346172,-0.00771415893554398,-0.010308378628922617,-0.012619593662045752,-0.01366907306675667,-0.012501674750438216,-0.00899947616346997,-0.003923058469435343,0.0017016845282826925,0.0072203023245603895,0.01256204029822163,0.01744979064409451,0.020739736645374346,0.020385979910551744,0.014631520289244809,0.0034174081482845555,-0.010396818722131489,-0.02208850081799646,-0.02757173930277901,-0.025331276344222976,-0.016782138881618766,-0.005314503809211978,0.005498681849474929,0.013357993861075708,0.017538230737303383,0.018764590328432047,0.018216265388549927,0.016754067974206192,0.014613832270603033,0.011795565553766218,0.008535098370885041,0.005197989170577649,0.002167465138635674,-0.00010247845732546542,-0.0011106871524769694,-0.0005328833941961864,0.0017842277664079666,0.0056460795794811254,0.010622270018562877,0.01615267897839875,0.021506211389829763,0.026075581038163587,0.029430381895125635,0.031051775115258223,0.03036783960711391,0.026977662712868312,0.020562856458956603,0.011418223581416953,0.0007524352889349557,-0.008616240610248705,-0.013480402080582038,-0.012200982071540937,-0.005355777065380412,0.004667352249337302,0.014826088494304326,0.022620545650222895,0.026895119838544326,0.028015351317822342,0.027219397754968268,0.025998931744711608,0.02537985473026239,0.02556263213556502,0.02589870448975873,0.025485982842113033,0.023616964637021374,0.019996843500432713,0.015144469191843379,0.009826316455708799,0.004985732946876357,0.0006757878144894141,-0.004082250637211312,-0.010449882778056812,-0.018226648277320723,-0.025767575953369565,-0.031651738010015154,-0.035171624615625174,-0.036580765250069355,-0.03662202031617337,-0.0360029542157628,-0.035236483109320274,-0.03454076043943195,-0.03405729035523205,-0.03329671282966152,-0.03107983147061926,-0.026404340986460557,-0.019352776975483627,-0.011381443271160198,-0.004984332311916035,-0.0028028266263560374,-0.005149418060564005,-0.010025373968667114,-0.014806996202689346,-0.017530925607432406,-0.017530925607432406,-0.015337629485916809,-0.012124332778088954,-0.00903485220075352,-0.006729534386515273,-0.0052319609348879925,-0.004288609642027718,-0.0036754298464633864,-0.0033570466023153138,-0.003510341915007685,-0.004147105492893524,-0.004913580237348937,-0.005190687678719557,-0.004518550246357901,-0.0026966996059092567,0.0005932445763641403,0.005398450956509168,0.011483078437099163,0.018116034495584164,0.02431268730690969,0.029347839020801653,0.03320969519949027,0.03585698258680711,0.037519663615159675,0.0382271479807018,0.03752555719603167,0.03492542209370373,0.03058599304970009,0.025326794312349948,0.02012065963092513,0.015899153136541905,0.012644583172545616,0.00938411598966444,0.005498681849474929,0.0015483895793916096,-0.0011755427357617574,-0.0014998202883844093,0.0005460770117211265,0.003812437411673016,0.007137759450236404,0.010103423897079418,0.012385160111803887,0.013558455647007228,0.01333441226156193,0.011518454474382715,0.008470243515202829,0.004867814035268822,0.0015071181422296168,-0.0009456003124251331,-0.002378317816966337,-0.003186063998583744,-0.004188375111049075,-0.0059276836047763085,-0.008492424479756283,-0.011587802275976606,-0.014736244128122248,-0.017330463821500885,-0.019010811040417915,-0.01928202490091653,-0.017489655989276855,-0.013250461476251855,-0.007454735874802253,-0.0026790119510687704,-0.0017710345126843148,-0.006022020916870067,-0.014459133048738745,-0.024270002501742285,-0.03237694313631502,-0.03636260816947029,-0.034965265610808774,-0.028167231079701566,-0.017542716407189293,-0.006310919157997575,0.001961106497620556,0.0050446942216865655,0.0032346332895909448,-0.0016590110009552248,-0.00764930407986177,-0.0134273416626696,-0.017908267579781666,-0.0201487305383377,-0.019488383905732935,-0.015997976118521575,-0.010343754666206168,-0.003722596683503823,0.0026568298951114505,0.00788654253803716,0.011742501497840894,0.014596144251961261,0.01716678234582612,0.02022678410476289,0.02405916146505285,0.028351423672016055,0.032484493711203294,0.035803918530881794,0.037926466215843176,0.03870474631210701,0.037861600446122315,0.035019755767784606,0.030503446537363216,0.025627486991247228,0.022137075566022985,0.02081638230081345,0.021064014561798287,0.02138829247822223,0.02009707439339847,0.016111405722230313,0.009053944492368498,-0.000356004590223339,-0.010426297540530153,-0.01925254608251787,-0.025620178223363366,-0.02947613354515422,-0.03162225919161649,-0.032671742234340294,-0.032683533034097184,-0.031333360950488984,-0.028485611777240624,-0.024317172976795604,-0.01954734154253026,-0.014883641858128446,-0.010620865745589672,-0.006753115986029049,-0.003421902185600102,-0.0012816697562085383,-0.0007982014910150711,-0.0015116121795451627,-0.0024785490737333853,-0.003351150838635581,-0.0045893023209249975,-0.006788492023312598,-0.010160980898916422,-0.013893120090214851,-0.016717284025936554,-0.018079250547314525,-0.018197169458922063,-0.017778554230404364,-0.017082831560516046,-0.015927227681967363,-0.01380467999700598,-0.0104616735778137,-0.005921790023904306,-0.0008040972546948036,0.003859604248713453,0.00726157194271594,0.009171863403976032,0.00993244092954656,0.010451287051030019,0.011677646642158682,0.01394758841911338,0.017054760653103473,0.020338809435498425,0.02316297700923301,0.02519708096297264,0.026222978768169786,0.026122747875204026,0.024737196116299393,0.021895344161935913,0.018180889351266376,0.014814297694547438,0.012880420995760684,0.012744814065511376,0.01409498978713246,0.01627649510889117,0.018298808262873913,0.019206787156463522,0.01849927004880543,0.016335452745688494,0.013357993861075708,0.010280304083497161,0.007267469161600827,0.004136715328096957,0.00032792644316512675,-0.0054265255019346256,-0.014518090685536071,-0.026752200502398273,-0.03968202571312303,-0.049086070737365754,-0.05117327148914666,-0.04476436609213273,-0.03183451541531779,-0.016133583048770887,-0.00207172828298546,0.006223883337761908,0.007078798175426194,0.0021379852288331462,-0.005108144804395572,-0.011239942760038889,-0.014211504425766788,-0.01371624354180999,-0.01059728050806301,-0.006069187753910504,-0.0012462940827262779,0.0029870032114138346,0.006371284705780989,0.009048047273483613,0.011152906939803222,0.012933485051686008,0.014578456233319485,0.01615857255927075,0.01769152204818158,0.01901811617028889,0.019937885863635384,0.020262163780059326,0.019878924588825175,0.01887071480226981,0.017514645499776722,0.016093717703588542,0.015026550280235846,0.01470816958269679,0.015215221266410478,0.01607013610407476,0.01664793986235555,0.01663025184371377,0.01605834166630499,0.015162157210485154,0.014089092568247573,0.013010130707125107,0.012054984976495061,0.011182385758201885,0.010209552008930065,0.008941919161632967,0.00696087926381866,0.003759373355747693,-0.0004916115932329053,-0.0051317300419222315,-0.009370920916934346,-0.012448614332525778,-0.013781098397492203,-0.013220982657853193,-0.011039477336094485,-0.007808496247637739,-0.004306294022656609,-0.0014526527237413956,0.00016873558507379593,0.0006522040321679073,0.0007111634879716745,0.0012771757188929924,0.003087234468180883,0.006129549663681035,0.009490244101515086,0.012155219507473706,0.013505391591081904,0.013151634856259302,0.010793252986095733,0.0062120925380050205,-0.0004326521374291381,-0.008339129530865201,-0.01628687799766197,-0.023509424976171756,-0.02988295069788926,-0.03516573103475318,-0.03845568795007166,-0.03903937073717292,-0.036940419203776845,-0.03262457539729986,-0.026675554846959174,-0.019559135980300034,-0.011800054861665013,-0.00421785756746062,0.0023325519786875104,0.006943191245176886,0.009301573115340455,0.00973197914361504,0.009071632511010272,0.008087007961981564,0.007273362742472828,0.006495097198260526,0.005021108984159905,0.0021910489209571804,-0.0022603989053588025,-0.007997163595799486,-0.013574739392675797,-0.017183062453481803,-0.017949540835950104,-0.016634741151612568,-0.015072312844303078,-0.014694970871953815,-0.015856475607400267,-0.017566301644715954,-0.018397631244853583,-0.01752502838854752,-0.014889539077013332,-0.010827224750406076,-0.005945371623418084,-0.0009456003124251331,0.003723997318464145,0.008081110743096677,0.012485391004769648,0.017001696597178147,0.020910719612907205,0.022885865929849508,0.022272686134285177,0.02005580477524292,0.018121928076456167,0.018104240057814393,0.020751527445131236,0.025208875400742414,0.029613155662415385,0.03211894253861092,0.031782873822430086,0.028746453663007092,0.024236041651470593,0.019495689035603912,0.015221118485295363,0.011382847544133405,0.007910127775563821,0.0052746348260167475,0.004673245830209304,0.0068311695524542375,0.011335680707092968,0.016765858773963083,0.02141777129662089,0.024000203828255524,0.02356979779998094,0.019949676663392275,0.013817878707748957,0.006341802249369442,-0.0014526527237413956,-0.008486527260871398,-0.013574739392675797,-0.01579751433259006,-0.015048727606776417,-0.01213022999697384,-0.00849832169864117,-0.005556238851311932,-0.004088144218083315,-0.0041058322367250885,-0.005261439753286654,-0.007189419233188521,-0.009453463791258332,-0.011387340490045084,-0.012366067820188908,-0.011888494954873884,-0.009801326945208933,-0.006340401614409121,-0.002195543322074015,0.0015719733617131164,0.003912668304638776,0.004065963253529859,0.0021379852288331462,-0.0005092996118746796,-0.0017887221675248006,1.544069802893205e-05,0.005103651858483891,0.01164816782376002,0.016471059675937802,0.017078345890630134,0.013145737637374416,0.0065127852169023,-0.00022629356917427826,-0.005108144804395572,-0.007189419233188521,-0.006735431605400159,-0.004907683018464052,-0.003834618376226471,-0.005715431019087901,-0.011528841001166397,-0.02063219698452473,-0.03089116048444463,-0.03930469101679953,-0.04338468608602279,-0.04232933492851717,-0.037394406831565204,-0.03189347669012799,-0.029759138205409725,-0.033190584717810875,-0.041226762363777855,-0.04978180432129273,-0.05405639669967858,-0.051185058650890666,-0.04127394739088272,-0.026946768707457793,-0.011888494954873884,0.000829082763380497,0.009702500325216377,0.015085511555046055,0.018298808262873913,0.020362394673025086,0.021936617418104352,0.023192455827631676,0.02417118679578838,0.024825636209508263,0.025385755587160157,0.02678899172669368,0.029613155662415385,0.0336165159902382,0.037849813284378316,0.04096879087017683,0.041576084360894924,0.03896417301086163,0.033215592418375156,0.025303209074823287,0.01703117541557681,0.01029209488325405,0.006394866305294765,0.00548689104971804,0.006689665403320043,0.008947816380517852,0.011730710698084006,0.01470816958269679,0.01767383766755269,0.02023268496166066,0.02231395939045361,0.024241938870355476,0.026164017493359577,0.02727246181089359,0.025521362517409468,0.018428517974238334,0.0046555578115675305,-0.013733927922438882,-0.03198781036420887,-0.045259608786025106,-0.05032423204228996,-0.04668643743911106,-0.036563084507453346,-0.023533010213698413,-0.010791848713122528,-0.0004916115932329053,0.006748623040117368,0.011477181218214278,0.014348515628989303,0.015474644327152206,0.014531289396279049,0.010704812892886861,0.0035530150785338644,-0.006069187753910504,-0.015626531365057202,-0.021935205869105377,-0.023149771022464266,-0.019653469654380907,-0.013415547224899828,-0.007006645465898776,-0.0024372776365713927,-0.0005918428499999536,-0.0012403983190465455,-0.003327567056314074,-0.005326294608968865,-0.005809764693168775,-0.003999707762887327,3.902452764460639e-05,0.005457408593306494,0.01104088160906769,0.01566920889419884,0.018428517974238334,0.018794069146830707,0.017048863434218586,0.014189323461213335,0.011317992688451193,0.009224927459901356,0.008122383999265112,0.007951401031732256,0.008711978557302784,0.010203654790045178,0.011624582586233358,0.012249553181554578,0.01171302267944223,0.010250825265098499,0.008434867477919281,0.006943191245176886,0.0060529003702290505,0.005675562035892672,0.0059762547147899515,0.007179029068391954,0.00931926113398223,0.01174839871672578,0.013287241786508612,0.012780190102794924,0.009826316455708799,0.00508006662095723,-0.0002380854603350317,-0.004966644293274261,-0.008604449810491816,-0.011039477336094485,-0.012118439197216951,-0.011741097224867688,-0.010078438024592436,-0.007773116572341306,-0.005845140730452323,-0.005161208860320895,-0.006022020916870067,-0.008238898637899441,-0.011163293466586904,-0.014117167113673031,-0.016393006109512612,-0.017666532537681714,-0.017890579561139895,-0.016917745811868074,-0.014818787002446236,-0.01192976821104232,-0.008633928628890479,-0.0049784350930311486,-0.0010635195878339557,0.002668621786272204,0.005651976798366012,0.00758584985913988,0.008765042613228106,0.009454868064231538,0.009820419236823913,0.009855795274107461,0.009684812306574605,0.009596372213365734,0.00999729578522877,0.011117530902519674,0.012850942177362023,0.014354412847874188,0.014089092568247573,0.011129321702276561,0.006159028482079697,0.0012417996816094438,-0.0020245603545411576,-0.0034101102944393484,-0.0038758916323949058,-0.004713114813404534,-0.0068651413167645815,-0.010479361596455477,-0.01465369761578538,-0.01820896025867895,-0.020213585394019917,-0.020195897375378143,-0.018368152426454915,-0.015042830387891531,-0.010066647224835547,-0.0029914976125306686,0.0061708192818365855,0.016724585517794648,0.02727246181089359,0.03611640928556173,0.04176475170905668,0.043132608173293764,0.03980728249671749,0.03201871164564516,0.02083996753834011,0.008505619552486377,-0.0021424796299499803,-0.008657510228404256,-0.01036144268484794,-0.008510112498398057,-0.005585717669710595,-0.004188375111049075,-0.005479589557859948,-0.008692886265687804,-0.012124332778088954,-0.014612427997629828,-0.01629867243543174,-0.01817948144028029,-0.020378671142667885,-0.021752428463802747,-0.020820871608712245,-0.017613468481756392,-0.014217398006638791,-0.013079478508719,-0.015314047886403033,-0.019877516677839085,-0.024328963776552495,-0.025991619338814862,-0.023409194083205995,-0.01705924996100227,-0.008952309326429533,-0.0016354272186337177,0.0031344023966251846,0.004838335216870159,0.004007005616732534,0.0018254995673712476,-0.0003088369528200676,-0.0015057160520641417,-0.0013583172306540795,-8.14313158674229e-06,0.002114401446511639,0.004396138388838685,0.006123652444796148,0.0072379903432021634,0.008145965598778889,0.00927799151582668,0.010622270018562877,0.011907587246488865,0.012809668921193588,0.01334620306131882,0.01371175059589831,0.014036028512322251,0.014083195349362688,0.013316724242920158,0.011229552595242321,0.007733247589146077,0.0031638819426264247,-0.0018476816233285677,-0.006411153688976218,-0.00967161723384451,-0.011039477336094485,-0.009936933875458243,-0.006145833409349603,-0.0003795884453051035,0.005799374528372208,0.010616372799677991,0.013039613163536655,0.013181117312670848,0.012001924558582622,0.010474868650543796,0.008989089636686286,0.007591747078024767,0.005958566696148177,0.0037770613743894677,0.0009646896936298057,-0.0023960058356081114,-0.005963059642059858,-0.009235313986685038,-0.0118059520805499,-0.013592427411317571,-0.014447342248981858,-0.0139284961274984,-0.011534738220051282,-0.006971269428615227,-0.0005977389774809744,0.006141340463437923,0.0107519797299273,0.011736604278956009,0.009755560743128819,0.006689665403320043,0.004077754053286748,0.002768853043039252,0.0031638819426264247,0.0052746348260167475,0.008423076678162392,0.011536142493024487,0.01368816535837165,0.014525392177394162,0.014466434540596838,0.014089092568247573,0.013505391591081904,0.012007818139454623,0.008835794687795204,0.003847813448956565,-0.001829993968488082,-0.006358089633050895,-0.008097394488765246,-0.006700055568116609,-0.0031742721074229908,0.0011533606798044373,0.005127237096010552,0.007851170138766494,0.008941919161632967,0.008411285878405504,0.006353596687139215,0.003093130595661904,-0.0003913803364658569,-0.003050457068334436,-0.0037992423389429228,-0.0023606301621258512,0.0002217992044375729,0.002102609555350886,0.001625037053837151,-0.0014290685776186002,-0.005774388655885226,-0.009388608935576121,-0.01069751140102877,-0.009241211205569923,-0.005644678944520803,-0.0011460628259592298,0.003152090051465671,0.006642498566279607,0.009272094296941792,0.011099842883877898,0.012249553181554578,0.01263868595366073,0.012149322288588818,0.010928859916345042,0.00938411598966444,0.007880648957165158,0.006506891636030298,0.005174403933050988,0.003812437411673016,0.0024563673815773536,0.0012948633737334785,0.0003456143162863857,-0.0006508023058037207,-0.001611843436312211,-0.0024785490737333853,-0.003262711473029286,-0.004147105492893524,-0.005202482116489329,-0.006369880432807784,-0.007289650126154281,-0.00779080459098308,-0.007761325772584418,-0.007448838655917367,-0.007018436265655664,-0.006210691903044699,-0.004606990339566772,-0.002000976572219651,0.0015248057970701028,0.00546330581219138,0.00928388509669868,0.012609207135262068,0.01540389225258511,0.017827132616443774,0.019790484495616302,0.02098146804946142,0.02117013903563605,0.020026325956844258,0.01742031182569585,0.013599728903175663,0.00914238458557737,0.0045199508813182215,3.902452764460639e-05,-0.0042414391669743975,-0.008486527260871398,-0.012985144834638127,-0.017696011356080378,-0.022106188836638237,-0.026062371413381958,-0.03009520692159055,-0.035501799750934,-0.04300735138969929,-0.051874862273816796,-0.059846221444230414,-0.06395568441781369,-0.062151521068404235,-0.0545044543664661,-0.043142976510013024,-0.030484343331709587,-0.018379943226211806,-0.007572654786409786,0.001707580291962425,0.009336949152624003,0.015173948010242043,0.01910655626349776,0.021069908142670294,0.021252681909960037,0.020262163780059326,0.018611295379540965,0.016689209480511096,0.014849670093818103,0.013534874047493452,0.013240074949468173,0.014413370484671515,0.017296495695203428,0.021223203091561376,0.024855115027906927,0.02650008984755329,0.024743093335184277,0.019466210217205248,0.012184698325872368,0.005551745905400251,0.0020613377543876044,0.003022378884896095,0.0086353292638508,0.017726901723478013,0.02787385080670103,0.03620484574075772,0.04073883207578222,0.04112799031397856,0.03828022658867866,0.033469118260232,0.027490611615466884,0.020574647258713493,0.012727126046869604,0.004384343951068913,-0.003303983273992567,-0.008875663670990432,-0.011175084266343793,-0.010060750005950662,-0.006564448637867301,-0.0024254857454106393,0.0006698920508096817,0.0016486208361586579,0.00031613451562424445,-0.0026731158235877494,-0.005904098367249649,-0.007832077847151515,-0.007254274088870733,-0.004029186581285989,0.0009470020387893198,0.006412554323936539,0.011205970995728546,0.014425161284428402,0.015769443425177485,0.01581661026221792,0.016099614922473426,0.017821235397558886,0.02053927485944283,0.02233164740909539,0.020769215463773014,0.013841463945275618,0.0010649209503968541,-0.015602949765543423,-0.031946537108040435,-0.043113472225524176,-0.046550812318797326,-0.043473126179231665,-0.038231622736549065,-0.035495902532049116,-0.03718805874078745,-0.04166306924895022,-0.04523014088166509,-0.04491763557493362,-0.03963487706614701,-0.030401796819372717,-0.019435319849807613,-0.00903485220075352,-0.0005859470863202211,0.005292322844658522,0.008028046687171355,0.0071200714315946285,0.003317176891517507,-0.0014998202883844093,-0.005632884506751031,-0.007991270014927485,-0.008386296367905638,-0.0074252570564035895,-0.006057393316140731,-0.004795661325741404,-0.0038641008326380176,-0.0032273354357457377,-0.002449069527732146,-0.0008689528379795916,0.002043650099547119,0.006206195319120134,0.010881689441291722,0.01518573880999893,0.0182339534071917,0.01959002634769767,0.019224475175105293,0.01793915430916642,0.016919153722854165,0.017019384615819925,0.0182398469880637,0.019442624979678587,0.018835342402999142,0.015592563238759741,0.010321573701652712,0.004466886825392899,-0.0007392416714100155,-0.004689533213890758,-0.007330923382322716,-0.008916933289145985,-0.009813121382978705,-0.010326066647564393,-0.010668032582630107,-0.010762366256710981,-0.01035554910397594,-0.009435779410629442,-0.008174043782217229,-0.006812077260839258,-0.0054265255019346256,-0.004117626674494861,-0.0030327694134939503,-0.00274386717055227,-0.0036695326275785,-0.005562136070196818,-0.007183522014303635,-0.007289650126154281,-0.005167106079205781,-0.0006213227598024813,0.006147237682322809,0.014265972754665316,0.022473147920216697,0.029536510006976283,0.03460114417727979,0.03693594444792959,0.03595721711778576,0.03172980976650477,0.02517939658234375,0.017986321146206855,0.01168943744191557,0.007031631338385758,0.0038065401927881303,0.001389198866820794,-0.0007864095998543177,-0.0026318440226244686,-0.003321670928833053,-0.0019066410791323352,0.0014068865216612801,0.005115442658240779,0.0072026143059186155,0.006300532631213892,0.002668621786272204,-0.0019479128800956162,-0.0050963540046386835,-0.005184794097847555,-0.002384213944447358,0.0019316269516193169,0.006418451542821426,0.010138799934362966,0.012762502084153152,0.01427186633553732,0.01510909315455983,0.01566920889419884,0.016123200160000087,0.016247016290492508,0.015657418094441954,0.013912216019842714,0.010492556669185568,0.005286425625773637,-0.0012993577748503125,-0.0083332359499932,-0.014889539077013332,-0.020089769263527495,-0.02310260418542383,-0.023096706966538944,-0.01981855540302888,-0.01402872702046416,-0.007319128944552944,-0.00129346201117058,0.002951627537931574,0.005056485021443453,0.005280532044901635,0.0042487370208196045,0.0026273499853089227,0.0007347476340944696,-0.0014408608325806422,-0.0038876824321517943,-0.006080978553667392,-0.006871038535649467,-0.005456007958346172,-0.0018476816233285677,0.003128506269144164,0.007986777069015804,0.011506663674625824,0.013470015553798356,0.01456076821467771,0.015539499182834418,0.016347243545445384,0.015580772439002853,0.011925275265130639,0.00578758372861532,-0.0007156578890885087,-0.005479589557859948,-0.00754907318689601,-0.0068238680605961465,-0.0037992423389429228,0.00030434262446349104,0.0037770613743894677,0.0051802975139229905,0.0039775231603209876,0.0008585626731830248,-0.003138896433940731,-0.0070007482470138905,-0.010119707642747985,-0.012212772871297826,-0.013397859206258054,-0.014087688295274368,-0.014553470360832503,-0.015007457988620866,-0.015567573728259875,-0.016817514918902314,-0.01980676460327199,-0.024936249991244823,-0.031356942550002764,-0.03688734059579999,-0.038939143482220044,-0.03628596251403119,-0.030183647014799423,-0.023703993181231273,-0.019618093617097355,-0.018692426704865973,-0.01941173461228095,-0.019140524389795216,-0.015838787588758493,-0.00874005310272824,0.0015365976882308562,0.012904006233287345,0.02269129772478999,0.028616740313629783,0.029707492974509142,0.02636448291730398,0.019967364682034045,0.012473600205012758,0.0060882764075126,0.00247405503641784,0.001961106497620556,0.003623766789299673,0.006200301738248132,0.008529204790013038,0.009908859330032785,0.009938338148431447,0.008470243515202829,0.005622497979967348,0.002031858208386365,-0.0013524214669743471,-0.0034926538963659104,-0.003917161250550457,-0.003162480216262238,-0.002272190432718268,-0.002006872699700672,-0.002313462233681549,-0.0024962367285738716,-0.001782826403845068,-2.2471725457179075e-06,0.0022971763052052497,0.0044786812631626705,0.006271050174802345,0.007974982631246031,0.009961919747945223,0.012473600205012758,0.015545396401719303,0.01871152627250672,0.021494416952059992,0.02363465265566315,0.025132229745303315,0.026175811931129347,0.027001247950394974,0.028038936555349003,0.029565988825374947,0.031075356714772,0.03111073275205555,0.028386799709299606,0.023015575641213933,0.016394414020498703,0.010527936344482002,0.006866545589737786,0.005545848686515365,0.005422032556022946,0.0047381043239044,0.0020849215367091116,-0.0025493007844991948,-0.007401671818876929,-0.010343754666206168,-0.011039477336094485,-0.011440404545970407,-0.013627803448601119,-0.018368152426454915,-0.02490087031594839,-0.03176966055963557,-0.03730007315748433,-0.03989430376490162,-0.038939143482220044,-0.035224692309563384,-0.030201335033441197,-0.024977519609400374,-0.019712427291178232,-0.014099479095031255,-0.007961787558515938,-0.0016472191097944714,0.003841916230071679,0.00726157194271594,0.007874751738280273,0.0060352123515872765,0.002780644934200005,-0.0005505710490366723,-0.0028853702282825994,-0.0035398214610089245,-0.002466757182572632,-8.14313158674229e-06,0.0032700093268744936,0.006825272333569351,0.010097530316207417,0.012668168410072277,0.014289557992191977,0.014949904624796746,0.014466434540596838,0.01243822416772921,0.008841688268667207,0.004183882165137393,-0.000603634741160707,-0.004854618962538728,-0.008462945661357623,-0.011576011476219715,-0.014022833439592156,-0.01502514600726264,-0.013763410378850429,-0.009813121382978705,-0.0037343874832607114,0.0029457314104505534,0.008116486780380227,0.010303885683010936,0.009861688854979463,0.008375909841121956,0.007568161840498106,0.008847585487552092,0.012609207135262068,0.018157304113739715,0.02407095226480974,0.02893512101116884,0.03151755354280347,0.030792352054516494,0.026505983428425292,0.019837651332656744,0.012721228827984715,0.007031631338385758,0.004319489095386702,0.004926771672066148,0.007579952640254994,0.01035694973893626,0.011536142493024487,0.010156487953004742,0.006453827580104974,0.0016073490351953769,-0.002962017702728141,-0.006039705297498957,-0.007159940414789859,-0.006540863400340641,-0.004954849855504489,-0.0034101102944393484,-0.0025846764579814546,-0.002643635913785222,-0.003504445787526664,-0.004984332311916035,-0.006994851028129003,-0.008952309326429533,-0.01013150208051776,-0.010125604861632874,-0.0087577447593829,-0.006381671232564672,-0.003828724795354469,-0.0018535777508095887,-0.0005859470863202211,0.00033971833432588016,0.0016309331813181718,0.0038655014675983393,0.0069667764827035464,0.010510244687827344,0.013906318800957829,0.01666562788099732,0.01808655203917262,0.017897881052997985,0.01658897858754534,0.015056029098634507,0.013770711870708519,0.012161116726358593,0.00885937628730898,0.00268630944111269,-0.006352192414166009,-0.016640638370497455,-0.025643759822877147,-0.03127439967567878,-0.03258919572200343,-0.0301364765397461,-0.025343067143979867,-0.019612200036225356,-0.014187919188240129,-0.009801326945208933,-0.006511384581941978,-0.003934849269192231,-0.0016649071284362456,0.0005814526852033867,0.0033289687826782606,0.007067007375669307,0.011500766455740939,0.015486435126909094,0.017915572709652643,0.01817499213238149,0.01637672600185693,0.012815566140078474,0.007579952640254994,0.0007878109624172159,-0.006988957447257001,-0.014689073653068927,-0.02136919291058148,-0.026628384371905855,-0.030466655313067813,-0.03297832849410958,-0.034169312047954696,-0.033815555313132094,-0.03129798127519255,-0.026286422074853023,-0.019193584807707657,-0.011399131289801974,-0.004719012032289421,-0.0008276810370163104,-0.0004090683551076313,-0.002661323568625708,-0.005497281214514606,-0.007189419233188521,-0.006965372209730341,-0.004542135483884561,0.00043405349999203643,0.007656601933706978,0.01580481582444815,0.023039160878740594,0.027761825475965504,0.0291061039787017,0.02714274846151628,0.02262644286910778,0.016689209480511096,0.010280304083497161,0.004001108397847648,-0.0015587797441881763,-0.006110457372066055,-0.009618553177919187,-0.012230460889939598,-0.014282252862321002,-0.015862369188272267,-0.01669959600729478,-0.016192544323581096,-0.013745722360208653,-0.008852078433463773,-0.0013524214669743471,0.008016255887414466,0.017467478662736284,0.024743093335184277,0.028451654564981818,0.0286049495138729,0.026169918350257344,0.02239060504589271,0.018281120244232136,0.014490019778123496,0.011512557255497826,0.009649436269291057,0.008882961524835642,0.009236718259658244,0.010757876948812185,0.01325776296810995,0.016347243545445384,0.01892377885819513,0.01934828766758483,0.016465166095065802,0.01071660369264375,0.004396138388838685,0.0004281577363123039,0.0005342851205603731,0.0042487370208196045,0.009808624799054139,0.015368516215301562,0.019926091425865614,0.022921238329120176,0.023510836525170727,0.020769215463773014,0.014425161284428402,0.005339489681698959,-0.004954849855504489,-0.014559363941704505,-0.022106188836638237,-0.0271649148740182,-0.030673014317884217,-0.034546654020303956,-0.040654866738420614,-0.04979359148303673,-0.060583210094261396,-0.06904391837769538,-0.07052968283950135,-0.06245220283326286,-0.04589047660023121,-0.025290003088054545,-0.006623406274664626,0.006412554323936539,0.013582040884533889,0.016807132030131514,0.01813961609509794,0.01895915489547868,0.01959591992856967,0.019725633277946977,0.01911244984436976,0.01803938520213218,0.01713730352742746,0.016783546792604853,0.01702528183470481,0.017567709555702044,0.018009906383733516,0.018133718876213054,0.018009906383733516,0.018015799964605523,0.018587710142014303,0.01980817251425808,0.02131164682278313,0.022473147920216697,0.02279742583664064,0.022048639110827,0.020173723686850456,0.01712551272767057,0.012909899814159347,0.0072792599613577145,-0.00014964613110886565,-0.009630343977676077,-0.02016641855697948,-0.029092894353920068,-0.0338804101688143,-0.033538447871761475,-0.028609427907733045,-0.020667576659821163,-0.011534738220051282,-0.002661323568625708,0.005056485021443453,0.011194176557958773,0.015397995033700223,0.01767383766755269,0.01849927004880543,0.01871152627250672,0.019053488569559553,0.019713838840177206,0.02063950575240859,0.02154158742711331,0.021801010487855044,0.020775112682657897,0.01848158566817654,0.015368516215301562,0.011807356353523105,0.007951401031732256,0.004018796416489422,0.00040457395399079703,-0.0027379714068725375,-0.005355777065380412,-0.007448838655917367,-0.009152771112361052,-0.01029658782916573,-0.010426297540530153,-0.009294275261495247,-0.007189419233188521,-0.004430110153149028,-0.001269877865047785,0.0016191412901574184,0.003476367604088323,0.0039775231603209876,0.0036178706618186524,0.0030813387045011504,0.0028808758271657653,0.003028275012377116,0.003028275012377116,0.0019139389329775427,-0.0008689528379795916,-0.005184794097847555,-0.009429882191744555,-0.011534738220051282,-0.010538322871265686,-0.007431154275288476,-0.00457751152116811,-0.004270921623385943,-0.007307338144796055,-0.01235427702043202,-0.01672318124482144,-0.018226648277320723,-0.016292775216546856,-0.01244271711364089,-0.008686992684815802,-0.006222482702801587,-0.005532653613785272,-0.006204794684159812,-0.007383983800235155,-0.008327338731108313,-0.008510112498398057,-0.007855663084678177,-0.006741325186272161,-0.005739012618601678,-0.005119939242165344,-0.004889994999822278,-0.005007913911429811,-0.005379358664894189,-0.0056977430004461265,-0.00524375173464488,-0.003239127326906491,0.0005107009744375778,0.0052746348260167475,0.009926543710661675,0.013275450986751721,0.014767127219494117,0.014425161284428402,0.01257383109797852,0.009625851031764396,0.005999836314303729,0.0024091990893317632,-0.0002439814059154084,-0.0008453690556580847,0.0016781007459611855,0.00746203372864746,0.014973486224310523,0.02155927544575509,0.024925870740486907,0.024194768395302158,0.020114762412040244,0.01429545157306398,0.008257990929514422,0.0026273499853089227,-0.0027674509528737767,-0.007955893977643935,-0.012071272360176513,-0.013840059672302412,-0.012584217624762202,-0.008905142489389097,-0.00429450322289972,-0.0005151953755544121,0.001288967610053746,0.0009470020387893198,-0.0011932303906022435,-0.004595199539809884,-0.008421672405189188,-0.011864913355360109,-0.014305838099847663,-0.01532583868615992,-0.014972081951337318,-0.013610115429959347,-0.011847225336718333,-0.010143292880274647,-0.008421672405189188,-0.006210691903044699,-0.003109416524138203,0.001200528244447451,0.006683768184435157,0.013086780000577091,0.019554646672401237,0.02506147767073622,0.028658013569798222,0.0301496934405535,0.029742869011792687,0.02798587249942368,0.025427025205315708,0.02269129772478999,0.020303433398214877,0.018611295379540965,0.017496957481134945,0.016571290568903562,0.015433371070983772,0.01378250267046541,0.01137695032524852,0.008287469747913083,0.004667352249337302,0.0006345163773274215,-0.003816930357584697,-0.009040749419638405,-0.015538091271848329,-0.023432779320732657,-0.032335669880146585,-0.04126805381001071,-0.048838467580483984,-0.0533488759540076,-0.053460890370704485,-0.04869105529842625,-0.03969970645573903,-0.028456129320829075,-0.01725971174693379,-0.007643406860976884,-0.0002557733334562907,0.004791168379829723,0.007633016696180318,0.008747354594586332,0.009107008548293822,0.009985504985471884,0.012385160111803887,0.016871986885813726,0.023115810172192573,0.02963084368105716,0.03464831101432023,0.036894653001696726,0.036434771793036363,0.03409408885555322,0.03071570276106451,0.026606217959403933,0.021812801287611927,0.016423892838897367,0.01071660369264375,0.00508006662095723,-7.299865666332419e-05,-0.004088144218083315,-0.006145833409349603,-0.0060868757725522785,-0.004913580237348937,-0.004441904590918801,-0.0060868757725522785,-0.009877976238660916,-0.014582949179231166,-0.018763178779433072,-0.021310235273784155,-0.021882141813180052,-0.020708846277976714,-0.01810872936571319,-0.01419381276911213,-0.009229420405813036,-0.003976122525360666,0.0005048052107578453,0.0032641131993934726,0.003959835141679214,0.0029280437556100675,0.0006581001596489283,-0.0024372776365713927,-0.005904098367249649,-0.009117395075077504,-0.011682139588070363,-0.01363959424835801,-0.01539069354184213,-0.017466070751750197,-0.019936474314636413,-0.022070812799354685,-0.022849078343566986,-0.021375090129466368,-0.017242023728292012,-0.010785951494237642,-0.0031742721074229908,0.0039775231603209876,0.009213133022131583,0.011500766455740939,0.01011521833484919,0.005923190658864629,0.001495325887267575,-0.0005859470863202211,0.0009528978024690522,0.005351284119468732,0.010846313404008172,0.01566920889419884,0.018835342402999142,0.020114762412040244,0.02005580477524292,0.019884821807710062,0.02089892881315032,0.02362286185590626,0.02737858628473135,0.030768766816989833,0.03272622875330325,0.03269084907800681,0.030792352054516494,0.02763211576460108,0.023911763735046655,0.02016782646796557,0.016653833443227548,0.013363891079960593,0.010091633097322531,0.006872439170609789,0.0036355583166591383,0.00016283963949341923,-0.004017392143516217,-0.009718784070884948,-0.0178198274865728,-0.027878329200561176,-0.03761843566495896,-0.0442396191137515,-0.045601581997116586,-0.04120908162116185,-0.03234746431791636,-0.02151659064058768,-0.011263524359552664,-0.0031919601260647656,0.002420991344293805,0.006377178286652991,0.009726081924730155,0.012691750009586052,0.014596144251961261,0.014837879294061213,0.013717647814783195,0.012137531488831932,0.011223655376357436,0.011842732390806653,0.014466434540596838,0.01855233774274364,0.02269129772478999,0.02493176432135891,0.02325141710244188,0.016571290568903562,0.005817062547013982,-0.006464214106888658,-0.017171271653724916,-0.024069540715810765,-0.02642202900510233,-0.025431507237188736,-0.023456360920246434,-0.0224894243898595,-0.022701676975547907,-0.022784223487884774,-0.021428150547378805,-0.018238439077077614,-0.013663179485884669,-0.00857496735408027,-0.0035693010070101637,0.0015307015607498352,0.006937294026292,0.01267406199094428,0.018434411555110334,0.023776156804797343,0.02789743240621481,0.030120210984141953,0.030173275040067275,0.028428069327455157,0.026146333112730687,0.02468413206037407,0.024289105707395918,0.023941242553445315,0.022207831278602968,0.018145513313982828,0.011854523190563541,0.004484574844034673,-0.002342942143484077,-0.0070950819210947634,-0.009087916256678841,-0.008692886265687804,-0.007289650126154281,-0.00684155607923792,-0.0087577447593829,-0.012831849885747043,-0.017754972630890587,-0.022094398036881346,-0.024476361506558693,-0.02395162180420323,-0.02026664944994524,-0.013981560183423723,-0.006540863400340641,0.00018052751261467823,0.0047734803611879486,0.006778105496528915,0.006418451542821426,0.0045199508813182215,0.0019434188427800703,-0.0007864095998543177,-0.003480862005205157,-0.005921790023904306,-0.007802599028752853,-0.008639822209762482,-0.008038436851967921,-0.006134042609592715,-0.0036931178651051604,-0.001611843436312211,-0.0005387791578759189,-0.000662594196964474,-0.0016825947832767314,-0.003056352832014168,-0.004088144218083315,-0.0038758916323949058,-0.0015646758716691973,0.003299488872875733,0.01021544922781495,0.01811013727669928,0.02589280727087384,0.032543451348000615,0.03744890426456681,0.03978370817322949,0.03870474631210701,0.03359293075271153,0.024861012246791814,0.014047822950092022,0.0033348645463579935,-0.005208379335374216,-0.010573698908549234,-0.012660866918214185,-0.012000520285609417,-0.009453463791258332,-0.006251961521200249,-0.003722596683503823,-0.002508028983535913,-0.002401901599287844,-0.0024254857454106393,-0.0014231728139388676,0.00098237771227158,0.004065963253529859,0.006677874603563155,0.008004465087657578,0.007839375700996723,0.006241571356403682,0.0037122065187072564,0.0008408746545412505,-0.001765138385203294,-0.00386999441351002,-0.005544448051555044,-0.0069417869722036805,-0.007826180628266628,-0.007920517940360387,-0.007142252396148085,-0.006063290535025617,-0.005532653613785272,-0.006075081334782506,-0.007572654786409786,-0.009577279921750753,-0.011593695856848607,-0.013657282266999781,-0.016463758184079712,-0.02111566706872464,-0.028031624149452258,-0.03619752242082232,-0.04361464488041739,-0.04801893241811613,-0.04771821427312867,-0.042635910274247804,-0.033968850262023176,-0.02332665120888201,-0.012012311085366304,-0.001399589031617361,0.007137759450236404,0.012827356939835362,0.015722272950124162,0.016871986885813726,0.017502854700019832,0.01841082995559656,0.019855342989311398,0.021205515072919602,0.02094019843130587,0.017467478662736284,0.010510244687827344,0.0016191412901574184,-0.006505487363057093,-0.011192772284985568,-0.011039477336094485,-0.006428841707617993,0.0006698920508096817,0.007108276993824857,0.00930747033422534,0.005410241756266056,-0.003563405243330431,-0.014559363941704505,-0.024216938445816964,-0.029794514242693273,-0.02980630504245016,-0.024558904380882676,-0.015520406891219437,-0.004719012032289421,0.005769895709973545,0.014377994447387967,0.020273954579816213,0.023322169177008984,0.02392355453480354,0.022815113855282412,0.020698463389205914,0.01813961609509794,0.015421580271226882,0.012762502084153152,0.010598684781036215,0.009448974483359535,0.00984400083633769,0.011630479805118244,0.014189323461213335,0.016795337592361743,0.018776381128188933,0.019985052700675823,0.020657193771050363,0.02094019843130587,0.02082817673858322,0.02022089052389089,0.018929676077080015,0.017101927490143908,0.015191636028883817,0.013977070875524926,0.014089092568247573,0.0156927941317255,0.018045282421017068,0.019584125490799898,0.01887071480226981,0.015297764140734462,0.00937232518990755,0.0024268871079735376,-0.003710802245734051,-0.0076610948796186585,-0.009011266963226858,-0.008421672405189188,-0.006888726554291242,-0.0051730032980906665,-0.0034690701140444036,-0.0015410920893476903,0.00043405349999203643,0.001689892637121939,0.0012712795914119714,-0.0010694153515136882,-0.004341670059940157,-0.006759013204913935,-0.006464214106888658,-0.0026554278049459755,0.004018796416489422,0.011559724092538264,0.01793915430916642,0.02175384001280172,0.022443669101818036,0.02005580477524292,0.015156259991600269,0.008440764696804166,0.0009528978024690522,-0.006246064302315364,-0.012371965039073793,-0.017330463821500885,-0.0219882699250307,-0.027330004260679056,-0.0335266534339917,-0.039693812874867035,-0.04359696413780139,-0.042836364784153556,-0.03650411231860448,-0.02577347317225445,-0.013244567895379854,-0.001741554602881787,0.006707353421961818,0.01136515952549163,0.012679959209829166,0.011754292297597781,0.009684812306574605,0.0072792599613577145,0.004702728286620852,0.0017606439840864596,-0.0017887221675248006,-0.005803867474283889,-0.009919245856816467,-0.013621906229716233,-0.01608641621173045,-0.01652271945888992,-0.014836475021088008,-0.011611383875490381,-0.008233001419014554,-0.005532653613785272,-0.0036400538091798376,-0.0020776240466651922,-0.0003206288803609498,0.0019552107339408237,0.004743997904776402,0.007768623626429626,0.010645851618076652,0.013145737637374416,0.015227012066167367,0.017243431639278103,0.019472107436090135,0.021960199017618125,0.024465982255800777,0.02629373084273688,0.026659282015329255,0.025031995214324674,0.02167719435736262,0.017455687862979397,0.013381579098602369,0.010244928046213613,0.008428973897047278,0.007980879850130919,0.008877064305950755,0.011029090809310802,0.014348515628989303,0.018404932736711673,0.022561588013425567,0.025957662126556053,0.027814889531890822,0.027555466471149093,0.02479026017222472,0.0197079452593052,0.013163425656016189,0.006029318770715274,-0.0009161204026226053,-0.006935893391331678,-0.011629071894132157,-0.01506052204454619,-0.01740711311495287,-0.019022605478187685,-0.02055555132908563,-0.0224894243898595,-0.024983416828285258,-0.02790780801895984,-0.03070838671715488,-0.03257740492224654,-0.03279555472681983,-0.03103856185246371,-0.027825265144635854,-0.02442919103150537,-0.021893932612936942,-0.019759597766231554,-0.016687805207537893,-0.011864913355360109,-0.005862828749094097,2.723261101776278e-05,0.004643767011810643,0.007397178872965249,0.008653017282492573,0.00920723944125958,0.009702500325216377,0.010586893981279329,0.011830941591049766,0.012455912186370986,0.011052672408824578,0.006901917989008451,0.0007524352889349557
