0.9177726590238945,0.9079713268261077,0.895467319199672,0.870166183731189,0.8173191467862422,0.7194799592430026,0.5890694041558804,0.5135941998256996,0.5570870773496686,0.6250221809243587,0.6619030718880873,0.6693284554130849,0.6597503789750007,0.6442530727457992,0.6328643265673866,0.6321356820974825,0.6446337712600662,0.6688077188899788,0.6997794117824963,0.7326644734310052,0.7647700751255504,0.7938117776060764,0.8153170808339023,0.8308755792090382,0.8423589643925148,0.8495626357600613,0.8475599062957587,0.8250111562395871,0.7563810046145714,0.5698109558215763,0.0853621887546292,-0.5852306463510982,-0.8848903730994064,-0.96076534988744,-0.9722501888239885,-0.9650058474134224,-0.9499458880391104,-0.93029187106219,-0.9088445234808941,-0.8858879770477533,-0.8583570969613332,-0.8234272907017427,-0.7750213209868144,-0.694297526853525,-0.4960980982022301,0.036036024679523534,0.6029672338314358,0.8190463427669377,0.8969423308580439,0.9328503118613165,0.9480434695590072,0.9442668870437194,0.9163801609508325,0.8628634993918674,0.7865828936178348,0.69511046515374,0.5957073945482626,0.48686258297422125,0.36293051031190143,0.22247313082044892,0.07150075524928387,-0.06848725731891575,-0.18262679237287055,-0.2756683239151123,-0.3604270600503598,-0.44251135809682846,-0.5202404369430995,-0.5881055822768049,-0.640639780017692,-0.6721680792158332,-0.6852014887637939,-0.6870208381234724,-0.6877669179887376,-0.6948101854103226,-0.7135520526041551,-0.7487664851138182,-0.8023444575979835,-0.8686024546543222,-0.9298786381759614,-0.9683080926565835,-0.9796301875494658,-0.9697610690808206,-0.942255048913071,-0.8965142825729867,-0.8387197360286538,-0.7871741890247622,-0.7619498699711363,-0.7679211056742883,-0.7846165114167675,-0.772951693458357,-0.7180652269150303,-0.6472168385477107,-0.5962342010396611,-0.579992520437105,-0.5908948808093779,-0.6095348987046867,-0.621844237660316,-0.6230657466201925,-0.6017207435397973,-0.5555943460426713,-0.48699988649784093,-0.4082867455441197,-0.3370818430462317,-0.27516982013668057,-0.21987310961128242,-0.17987925997602952,-0.16581891475356822,-0.17647586339640642,-0.21072538865078022,-0.2577446593140607,-0.29952714805200803,-0.31939267318601705,-0.3164098731065701,-0.29713195251267027,-0.2764113448572717,-0.24741439935806417,-0.21262250818649672,-0.13957715823162392,0.036480958522013725,0.23015770587171674,0.32721150116038517,0.37310559135821836,0.3887113473511938,0.3771405374741944,0.34574914170424265,0.29784299506221423,0.2388086192862898,0.17919339194252948,0.13019021816448628,0.12973867483343277,0.2467358685839192,0.48904526288511335,0.7093395649332805,0.8262287442389336,0.8732174332753223,0.8824307462191446,0.8654356390753065,0.8235113173467562,0.7486459709458518,0.6270616561518478,0.4375266593814321,0.11601469695450861,-0.43977931240059764,-0.8479129205291479,-0.9452928923413592,-0.9500551893183318,-0.9333871401502268,-0.9123778574393733,-0.88920059105891,-0.8547926761511112,-0.7949560478323535,-0.7295615227967934,-0.7033747343865283,-0.7224815617893997,-0.7610721356936982,-0.7967239938639089,-0.8123843478256099,-0.7758383122489899,-0.5490808092369459,0.13285177729158643,0.518350454211736,0.5977593592725539,0.6126419375492957,0.6461074223781635,0.7195070457538,0.8038902100373531,0.8649820335634404,0.8988577949108625,0.917012232906927,0.9288208373575219,0.9399792098860532,0.9519754994565627,0.9632622750103597,0.9722033649807602,0.9781709731576914,0.9811775187540924,0.9814919625209738,0.978838271221798,0.971918909118018,0.9541791463349488,0.8942521218154519,0.6725165246090785,0.10486042558899525,-0.4984739953342099,-0.793681391354746,-0.826984704321141,-0.8183722585287756,-0.8582049583212904,-0.9034539429596949,-0.9315329798573636,-0.9429600595542424,-0.9431527128842139,-0.939635007845345,-0.9387450285284218,-0.9433942430912485,-0.9537347459507255,-0.9670601515553091,-0.9726586950063307,-0.8650979854949712,0.0761638887253331,0.6171346547454616,0.738355138948695,0.7864975368189283,0.8256039206864546,0.8680839330384583,0.9054707906897862,0.9293819216645176,0.9423890680179798,0.9480394483939397,0.9482527284318862,0.941840274920754,0.9211694962179825,0.8636575987655033,0.7163730710723915,0.4257346396496722,0.05494886754920903,-0.3137034441603089,-0.6706990241362928,-0.9008062909338485,-0.9767811467634847,-0.9941143670902748,-0.9974208036560095,-0.9975454335172018,-0.9967996204573516,-0.9953816227127859,-0.9929698349374732,-0.9885916762623802,-0.9771717513533877,-0.9266948998122004,-0.5431775155755685,0.49569863090086247,0.8010855605524074,0.8756964101655076,0.9054046437874148,0.9226694391183834,0.9352661219260806,0.9451306549881257,0.9517138551267298,0.9490579128511102,0.919069895258907,0.8308356285099416,0.7721065545935187,0.8341988553881791,0.9090855341481241,0.9483219398580549,0.9660520754597212,0.9741814846153274,0.9774107378969663,0.9767340205938243,0.970111429156734,0.9478157589584411,0.860712772889485,0.4232031416693435,-0.4550375874455167,-0.7809105870229067,-0.8787506061354101,-0.9172812178830357,-0.9337715486436566,-0.9396243877605488,-0.938050439815104,-0.9270610183194196,-0.8966244942021159,-0.8040441110206957,-0.5532550084064676,-0.4613052453374131,-0.6804622017517429,-0.8335610523397181,-0.899202721015823,-0.9288089568407623,-0.9438958056088113,-0.9484494642075605,-0.9135023169939844,-0.29857585272801707,0.6672387781293292,0.8065829069468216,0.8218316357527425,0.797947668050419,0.7574084475128904,0.7167708868188947,0.6981086161882785,0.7083579750595976,0.689200656620694,0.6292795587308014,0.5894575694355765,0.5689521370183738,0.5529270387036441,0.5277999988845374,0.4859318994007895,0.431340201417195,0.37991155459260095,0.34341607607009483,0.33513471042368725,0.34765152697477036,0.3613617687822444,0.3646292491734556,0.3474070089989874,0.3123528235845146,0.28545871396295963,0.32754447145630267,0.4864993071819585,0.6893089858046024,0.8289760681792442,0.8974397566032265,0.9204274147337563,0.9126158369274255,0.8696500037816619,0.7456999406825213,0.3326336478369018,-0.5247957170392588,-0.8231188714690971,-0.8478792859495252,-0.8385376243204248,-0.8406944470015677,-0.8603135833603497,-0.8891430333281615,-0.9158188482937623,-0.9306946977170446,-0.9295919160423193,-0.9082731808066141,-0.847986256307337,-0.6716612321723008,-0.20033243912222243,0.36951577475807895,0.6412110406177973,0.7302557765622316,0.7272310088355719,0.6712366975882823,0.5806258145224356,0.40296745477411877,0.014241873993738588,-0.4855852617269143,-0.7633523041488905,-0.8490165971373199,-0.8267943390036613,-0.7046077409817076,-0.49618504980664674,-0.2637158568052111,-0.05877380327146092,0.13399880107822304,0.3624171333496511,0.48987162964241654,0.48044039949355083,0.39196059960102814,0.17584384110401607,-0.18845136413021552,-0.5250013069867409,-0.6945499691731088,-0.7433026673379133,-0.7119055333710634,-0.5836512691787064,-0.2952412019412515,0.13327425819526348,0.4859612834315315,0.6799505002621877,0.7772713753901719,0.8245342347173967,0.8457224351412402,0.856700231794092,0.8642407802659986,0.8706159057977692,0.8734406152614035,0.8688183628446465,0.8496658867090826,0.8072620047081173,0.7401240316617389,0.6555372618840889,0.5348323704689887,0.3149083181623738,-0.06430942259985353,-0.45609144531091117,-0.655077905936285,-0.7042994776774568,-0.677533026019497,-0.6342450736235691,-0.6576852387574146,-0.7609071599797986,-0.8583362877387304,-0.9143326747143683,-0.942939838624981,-0.9581513161286207,-0.9665115010313559,-0.9706268697668238,-0.9697372359345002,-0.9553842916752063,-0.862367518898529,-0.14336710233773778,0.6329360811619043,0.767944045798325,0.7828521355430914,0.7690144996704587,0.7486488700701749,0.7351659493070553,0.7328734026638783,0.7441979840960573,0.7636797006219344,0.7863479910470593,0.8094045280336734,0.8338798044380494,0.8615207850943711,0.8883308916085962,0.9101432659012755,0.9246269159756859,0.9335944686204934,0.9388549084414443,0.9414549590687686,0.9402441517479686,0.9315604120193395,0.9126895631856475,0.8831760774076169,0.8460915770919768,0.7966695225700591,0.7277873952228683,0.6353756429129539,0.5213867772506087,0.4051868808252476,0.290925675903113,0.14674267226582868,-0.08476059758374405,-0.4049958736791704,-0.6663621997640928,-0.7900334343731824,-0.8294816675350406,-0.8269138065937605,-0.7900693528080411,-0.6984681734873377,-0.4973208289176619,-0.17330560932925068,0.0407535592578729,-0.04981467209179131,-0.3838678764874481,-0.668195758428928,-0.8064516547893087,-0.8713904931941452,-0.9064154375460916,-0.928464063822004,-0.9439838941159037,-0.9536980290368315,-0.9561754526088252,-0.9503065897448206,-0.9329595237979955,-0.8986637679596446,-0.8436563665347293,-0.7729405875286839,-0.676953209700664,-0.49420360132092156,-0.06934618066834183,0.5194903436758352,0.8090260503366207,0.8992911804214158,0.927109341680924,0.9347407158009238,0.9348618663451698,0.9268500384812915,0.9041319926909192,0.8654495841257916,0.8189444000137002,0.7698595743440956,0.7240882857294793,0.695837347618091,0.7007958235710525,0.7384063092272669,0.7900926214623071,0.7974836540434949,0.7396433256456992,0.6705372662540521,0.6247074159948635,0.6035769029823169,0.5946737331053364,0.5774129947179112,0.531387940861646,0.41762689318760265,0.12550194437979598,-0.4206034009887786,-0.7953942848478647,-0.9128142941545023,-0.9463099433153024,-0.9519433207778093,-0.9387537000014352,-0.899401878485347,-0.8129140762543048,-0.6660493312025533,-0.5001976347001366,-0.3785496639146624,-0.31073549393465283,-0.26881112718119327,-0.22650902518081023,-0.16607362658196012,-0.08642343464223703,-0.006749361615634112,0.07362125340245268,0.17154563071914658,0.3230162338523726,0.515794616664239,0.6782210421795535,0.773704094878902,0.8179482860648103,0.8352770641189633,0.8410221713142336,0.8321668629834634,0.785894696261951,0.6809422009182111,0.5589731014771377,0.49398445315870243,0.5121441710462937,0.5593371305713233,0.5740328526934744,0.542786856209801,0.4763220060602865,0.3596516402155794,0.1820586450297818,-0.03514158494552623,-0.24337487611464445,-0.40787654813801166,-0.5329975943810141,-0.625083753522475,-0.6321198846371278,-0.583778624876304,-0.5260510600321563,-0.47380543784119394,-0.44454302672448337,-0.4486266753378268,-0.47349102425849915,-0.5072424039842859,-0.5377260486128296,-0.5574408872892568,-0.5528230914834698,-0.5142577930257495,-0.44833202784175213,-0.36754398972755487,-0.28041416888945464,-0.1950627907905949,-0.09816291521659225,0.021661452754419414,0.16871705729219885,0.3159718707856898,0.423660251635134,0.4747305087216596,0.48749754142416596,0.47596755242487265,0.4362958458935486,0.36253929827532466,0.2691076236696899,0.1848054138582111,0.13270155031580202,0.09145712913585989,0.026752483258600527,-0.09006745788649523,-0.21336160790593017,-0.2873973344159392,-0.32589942832350977,-0.34554485910226235,-0.33144494851612083,-0.28461483623417017,-0.19997902114259303,-0.05233418126523485,0.21601428130888273,0.5779415797967455,0.7525956009802688,0.7678768701447601,0.7203483917900747,0.617318266831214,0.4395229471846355,0.20994772354894994,-0.025167310612275916,-0.24976603008822162,-0.44328196684171634,-0.575716491331056,-0.6346275926515926,-0.6312641746218265,-0.5677309057487929,-0.45246562691830755,-0.3053564355158235,-0.15170133600711427,-0.00800229136027662,0.11935555239491859,0.22820211937991117,0.3127701765723958,0.3671218217967762,0.3845919639291591,0.3563929151562413,0.28234531203058544,0.17985753028242854,0.07706632012653981,-0.01880336780433269,-0.11002290206337523,-0.19033058294168065,-0.24082321513924948,-0.25790648242866526,-0.2666319468970564,-0.26280049679154016,-0.22752416846550969,-0.15340737655095177,-0.06377198345098188,0.009591721020594987,0.049737479218817764,0.05449780827228763,0.0034927359696212937,-0.13888374481580248,-0.3832471956290799,-0.6090884448462642,-0.7210577888925448,-0.7450744927650738,-0.7108180297480307,-0.6180050101939495,-0.4627536099222389,-0.2587211889377673,-0.0654123741995633,0.06890361470437117,0.13795754411614655,0.16110471106650692,0.16007165631887602,0.14369708194700073,0.1084647194441602,0.06287827188108074,0.026180386618192258,0.018435560702606508,0.052838304523121465,0.11004999506299608,0.16473654098804663,0.20384495083933452,0.2266410101141376,0.23421864756563865,0.23414206718923317,0.25081835499111294,0.3177729739965817,0.43674326782303846,0.5775625206538041,0.6964634713514026,0.7679699148691967,0.7952679709800331,0.798139423774405,0.7934429352513496,0.7866818997715188,0.775291867145163,0.7607184945424443,0.74571357697752,0.7354798707763568,0.7246857433809525,0.7071278274265781,0.6715136852563665,0.6044699251455146,0.4956468674319355,0.3588879449425503,0.22159218009125695,0.0990038019342145,-0.011163153444550445,-0.1102194744548694,-0.1983070868290037,-0.2633241554011395,-0.30133587374165266,-0.32361676318511085,-0.33970457543931526,-0.35071556579442464,-0.3470648471071189,-0.31887394003646063,-0.25624955089991597,-0.14558304277649023,0.019632347345003055,0.2029920608634479,0.33663685105699126,0.36827864785499465,0.26372873313584844,0.04629526358562907,-0.16768556328797254,-0.2900681578319191,-0.30589918430762947,-0.2082321253128109,0.028463246636438795,0.2578138889068753,0.33481492411043445,0.3490995143803197,0.3619918857115807,0.40060199849828615,0.4617795576137002,0.5193820740391506,0.5426742255697079,0.5002410212861726,0.3704529125278297,0.12215797542671206,-0.22714495357931752,-0.5156736693501613,-0.689842073780314,-0.7759284892649615,-0.7975878102868104,-0.7747562637937586,-0.7185950735917461,-0.6323802335717198,-0.5080646315144038,-0.34759060251388946,-0.2168699794982165,-0.1400323528731455,-0.0763477055392062,0.006922864577695943,0.12041289453204278,0.25990831683029175,0.4226677651210153,0.5954308177867073,0.7425255412050368,0.837746171284572,0.891250443905151,0.9228905305507936,0.9448518829733535,0.9601712981752193,0.9692382135008402,0.9715091418287791,0.9643868950728062,0.931397364968013,0.729922054233457,-0.3440669679884829,-0.803696480654461,-0.880365436672588,-0.9017870660150455,-0.9109619594771717,-0.9161567939438612,-0.9176262803511481,-0.9127046579721793,-0.8945314315512796,-0.8471885007196066,-0.734767757632502,-0.5052686494878186,-0.17965846014869782,0.07578693085419398,0.16878526057557203,0.15227736514219814,0.13080174342514914,0.1826974275369433,0.3026956923982989,0.43846590670867447,0.5515943264048536,0.6323427071561958,0.6770862544326286,0.6809980989055576,0.6307853557788764,0.4787491766393544,0.14413694193484658,-0.25302881220464624,-0.5003006025244938,-0.6286982082496807,-0.699369064572913,-0.7356287371728423,-0.7368954119376792,-0.6921514390755085,-0.5890463898769925,-0.4260768929440573,-0.22981665930007028,-0.030725182343630673,0.1856660368981513,0.44762952636497816,0.7023375439586818,0.8670957423945348,0.9447091613926217,0.9775934428159971,0.9902852341467147,0.9932705744636217,0.9904877448978047,0.9806366029377908,0.9474677402238126,0.851688331418213,0.6765538161262081,0.4626055335859102,0.22485588653997093,-0.029243348082201727,-0.25181944554064495,-0.413204824934709,-0.5205319957962442,-0.58041202722486,-0.6019948691347887,-0.5878918278417384,-0.5340522952979238,-0.44482628707958116,-0.3335040179356148,-0.22867397094039,-0.15764816547572416,-0.12757946562718023,-0.11414731904859511,-0.07664599447243099,0.0028373223694595326,0.08135606367970617,0.05856802491107956,-0.15107298885186604,-0.47966650209763023,-0.7116496568489473,-0.8206698449651961,-0.8658021845164793,-0.8784826907079059,-0.8713809483405786,-0.8507190285438807,-0.8282470330459343,-0.8215379052225741,-0.8347299224008551,-0.8423800417998045,-0.8393261386057022,-0.8328208922733686,-0.8272770479899801,-0.8161652863841043,-0.7899223078642329,-0.7185330833873524,-0.5216177225962135,-0.15220013827521037,0.19794445719530665,0.4379277456152528,0.6125668458555398,0.7394462835120049,0.8224262091669308,0.8740121373004773,0.9063978382084324,0.9227727643325884,0.9189545082691613,0.8944421035805183,0.8562646082437696,0.8088277195340001,0.7455051216794798,0.6604147400105838,0.5601504701190974,0.46092094735784656,0.3916298374182978,0.3903272890434704,0.48290157217896024,0.6394557915558694,0.7808907256376381,0.8466175656241756,0.7391689853759608,-0.26200316006171886,-0.7880108393961197,-0.8648256987433325,-0.8764360656178951,-0.871672722463621,-0.8636878276673425,-0.8571173432095337,-0.8508818263799054,-0.8334427575378026,-0.7586011664264868,-0.48688494001220256,-0.20370604037904552,-0.15131672886557226,-0.1665989908141744,-0.16214876948392384,-0.1373607103923011,-0.10177493468188745,-0.05312890111762123,0.016033584168423525,0.11478780001337902,0.23707294813561258,0.35323046004593484,0.4407546115467843,0.4880940789314058,0.501333106125868,0.48879622898506486,0.4585826220665682,0.4192817267573515,0.37679972556820396,0.34101135245738434,0.33206642191842567,0.3805719842821403,0.49986551516182115,0.6474250548156337,0.764635124263852,0.8393419634709417,0.8861106426413677,0.9143538539622084,0.9271226766657387,0.924842211653592,0.9124678786209137,0.8951913398001538,0.8755385589362542,0.8525899117756689,0.8214826010014594,0.7772703295267659,0.7107120211756998,0.5917294737902307,0.3650214251048756,-0.004662449674486136,-0.41263978900205545,-0.6947420463249012,-0.8405656602379312,-0.910156956673548,-0.9443929133735184,-0.9611486634547218,-0.9677723973399356,-0.9652344555909856,-0.950832912047211,-0.9192065065801337,-0.8627910010745189,-0.7720549676435378,-0.6417163437279679,-0.48883458163689286,-0.36029687137736355,-0.29815068754458746,-0.28663597219805065,-0.26684524467369014,-0.1883033681163939,-0.07456167408392873,0.039877443228212676,0.15072543399786073,0.2614765201574418,0.3687536223012431,0.4604343423207886,0.5253868815862559,0.5658600369009127,0.5817275062102555,0.5582107993361548,0.45062226147128337,0.12634078732176013,-0.4397334861577664,-0.7508217100499638,-0.8233745378257191,-0.8014285288157904,-0.6601619219422777,-0.04770057212754864,0.8077237576836375,0.9491110325939303,0.9664581719993097,0.9696987375084959,0.9701372717287609,0.9670714543137564,0.9593156746974388,0.947302896239484,0.9374297327506789,0.9371418548742488,0.9444694213202468,0.9474881123042711,0.9372082270060238,0.9116159750259124,0.8755902053276567,0.8413537243679025,0.8214894293890581,0.8107346359578866,0.7951979533489787,0.7662180804427093,0.7185931649696642,0.6372562397072967,0.4994397176893169,0.28721421291287647,-0.0005284512229660879,-0.3285717923347053,-0.5899986824470876,-0.7289959108085126,-0.7780077522358989,-0.7726349240210565,-0.7417860466039903,-0.7246075676063429,-0.7471500667441919,-0.7932008324320395,-0.8241527230813644,-0.8163496028761279,-0.7586218512069616,-0.6417066186607504,-0.49108423346980135,-0.3775099625222766,-0.3633443839092829,-0.4202457713341273,-0.45330964998379475,-0.3528746709398214,-0.005279102083674103,0.43838983068771536,0.5855205207311723,0.10086379894047684,-0.8165426596028317,-0.9467711240184299,-0.9675768588987929,-0.9685117786025585,-0.9568538648738503,-0.9189966389398945,-0.8087223950193576,-0.5678810030566487,-0.2912103704994381,-0.13068162283985357,-0.08323311228943779,-0.09619657982606933,-0.07038677724385267,0.0988001850684205,0.3491565044431373,0.4707675160691791,0.37287589763075996,-0.016150408443951655,-0.47488163445954706,-0.6703371742614297,-0.6874413068570592,-0.5936885705623844,-0.371293180115176,-0.05518197122850344,0.16592671272392662,0.18743536564373642,0.009924464504166574,-0.2530094694546093,-0.40432343446685337,-0.3679925574597591,-0.08224705509885015,0.37307964127425824,0.6743658513294946,0.8135738802721708,0.8871892700258234,0.927807265308572,0.9508147017230156,0.9624103629934148,0.9644697862250436,0.9612731791787335,0.9578299501778302,0.956501376535639,0.9565604602626859,0.9499609260010246,0.9221768919375907,0.8554892923451266,0.7340000419715961,0.5620233342255675,0.36538865137133364,0.1572376957990087,-0.06587130318454718,-0.28696486964342693,-0.4277664868003922,-0.47780206383621515,-0.4966023641345868,-0.551359824334062,-0.6707933074414222,-0.8033697593476844,-0.8898178429802359,-0.9315583573335403,-0.9486040679669221,-0.9521551504311235,-0.9421611052062608,-0.9000044259815608,-0.7291331722352931,-0.12483504838531988,0.48508333226080186,0.6914193466685058,0.7612136053113778,0.8031420862652155,0.8457982316960767,0.8727176193160341,0.8607105611555692,0.7830646932890308,0.5789727030727538,0.21227189648993403,-0.13525916573246555,-0.2877445532563562,-0.21953954269852952,0.13506732995752999,0.5554151729269688,0.7331189658222407,0.7941395624706454,0.8199276669516092,0.8281898641918429,0.8144107183622723,0.7642350085492948,0.6324258115743177,0.32556947123997,-0.12765551955465093,-0.41941865474022,-0.47434463619231676,-0.3191351065306008,-0.021539032900419027,0.16996027779610182,0.15703074496024955,-0.013270242478799802,-0.27750727537805187,-0.5484327300203468,-0.745026654372598,-0.8432448052059869,-0.8766432361266712,-0.8806565830033874,-0.8685338764304548,-0.8370089694604458,-0.7610311127369814,-0.5670977376836942,-0.18201247367064857,0.20605073941873162,0.4546655627474379,0.6155604118678144,0.6977180011536552,0.6746482720118082,0.5590245251997364,0.3900775357566309,0.1957102465859066,0.016577367139367548,-0.0843915083341399,-0.05285094415078371,0.100698330531876,0.3098984083258949,0.5064179291548386,0.6422942294202274,0.7138149641843493,0.7364010348644019,0.7121948298083316,0.6434041468059074,0.5473907266311079,0.4667895216525477,0.43209643832091355,0.43371360757820016,0.4441597579882246,0.43645659241866425,0.3863463573472298,0.27058919276062726,0.08272702223478806,-0.1277624185607858,-0.28330388499305376,-0.3650184563600347,-0.4115591337475606,-0.4805382098742094,-0.6076057861970285,-0.7384761823290085,-0.8129527356975579,-0.8483887464162142,-0.8656993266290685,-0.8557765582865038,-0.8003712012164393,-0.6927782284415887,-0.5616830867609508,-0.47921212746006614,-0.4949847814583255,-0.5786551583359849,-0.6637957253039624,-0.7115971772458735,-0.7160341294873965,-0.6650754003901059,-0.5151103006278457,-0.21595937209647104,0.1352129138106785,0.37174071745658743,0.507354950692968,0.5980958862338714,0.6710395551590957,0.738084385988903,0.7881124290418697,0.8152588320724138,0.8215767688347471,0.8093967192728871,0.7764471598933925,0.7177370783541125,0.636082626474903,0.5428891855885245,0.4579228600510959,0.40030378152920526,0.361271775642699,0.3178929634380616,0.2531435010290831,0.17784248228269472,0.128224773142022,0.13750874103479077,0.21609353211845167,0.3267238252681947,0.40823861820646884,0.425882227826971,0.38712013300075404,0.3173356579767215,0.23955451754191712,0.1501302394752933,0.04656427565237666,-0.061954402129924806,-0.1595227631000269,-0.24120835807456187,-0.326333488144301,-0.4353868656534087,-0.5602445917053901,-0.690658636257711,-0.7939342148811495,-0.6960871123714478,-0.44814888847879425,-0.30142940578365296,-0.24341376998585387,-0.23366247904133597,-0.2476257785128097,-0.2613403800889099,-0.242979515896734,-0.15002357662945243,0.061639866368065,0.3442400265254881,0.5651667260762774,0.6992388984109265,0.788130160743214,0.8487969235375431,0.8759673650157487,0.8689973053739393,0.8397314333098427,0.8003824631190297,0.7564165074103861,0.7015748913308132,0.606570666070847,0.44436345768704355,0.21639964951777138,-0.039443060515431,-0.27657706161995743,-0.45320362318426555,-0.5553357666081206,-0.6054881501471198,-0.6295083459509895,-0.6263597885783777,-0.5618498680215487,-0.3304107177466849,0.15631783523242815,0.499783915456655,0.566069167421497,0.5060008218039744,0.4061577825986633,0.34047956730150514,0.36367757475043583,0.481432135977486,0.6354334285250968,0.7610042388676944,0.8352443842685249,0.8647307707837868,0.847980595047639,0.7108551117495743,-0.03309757174943291,-0.7969033091500264,-0.9250940096147203,-0.948809773901499,-0.9484304354589447,-0.9330554633541474,-0.9004348620215507,-0.8493222818650444,-0.7889007217188928,-0.7304972509825168,-0.6785212101321234,-0.643310236507467,-0.6376287030835717,-0.6578335643910996,-0.6907911613380204,-0.7233343950744782,-0.7439677145842891,-0.7452689698244598,-0.7232281432288151,-0.6728644608250182,-0.5738982449647467,-0.38443923142438696,-0.07530252570355728,0.30544336469631284,0.6078408078279396,0.7748614145931023,0.8545576103263788,0.8898228535400495,0.8995192491219782,0.8916387799320853,0.8763413665187493,0.8672176131525248,0.872575380496846,0.887241445408108,0.9008215130802019,0.9068041577758587,0.9022160605657873,0.8821438553629294,0.8323040753255085,0.7158567584262869,0.4519753401130585,-0.02620416524466419,-0.5221493124060584,-0.7974572475792046,-0.9074916068834195,-0.9450957306317685,-0.951479889360156,-0.9359116444924326,-0.8970387254348873,-0.8518579821509912,-0.8453888319306797,-0.8769833466800546,-0.9112114396421063,-0.9332928119231025,-0.9441267643471408,-0.9466320486021438,-0.9407366974495063,-0.9184556827498691,-0.8583874077233462,-0.7184312476057383,-0.5332275176114606,-0.5297197534539928,-0.6510518743541052,-0.5568429448929914,0.0968137568128201,0.695916216966795,0.8672189610945609,0.9209825452194114,0.9376497625360951,0.9274391772825635,0.8825933392522602,0.8062871659508403,0.7193043007224328,0.6280814559350516,0.5340365694910977,0.45650987551245753,0.43012588095137194,0.4930996029149826,0.6403564749913752,0.7916813931151623,0.8897135214406385,0.9350721535440205,0.9386505152714224,0.8978266359335555,0.6746912504918716,-0.5615131956079474,-0.942598069666097,-0.9816942430401043,-0.988245773908814,-0.9871503030972241,-0.9797914762126304,-0.9552885281501029,-0.8390253164914463,-0.24146009163117546,0.37344902838062466,0.4592667549946989,0.3448023398346231,0.20188175774166034,0.1720543451897826,0.2939648597425478,0.5013929174565589,0.6824338160212513,0.7952681424416265,0.8576155084035895,0.8904612973493459,0.9048155354416134,0.9028851941584095,0.8758704938007624,0.7950315447889166,0.6000494612408833,0.28241469369919464,0.00022632390031313116,-0.16605626156059988,-0.27362782324084306,-0.3618610751500616,-0.4308322875154437,-0.4680656743605934,-0.4630689731168803,-0.40941653819503343,-0.3041977214587843,-0.1472823830175992,0.04704489390420461,0.25754922523849977,0.4561975440203219,0.6092121069362022,0.707335358433532,0.7639364835847001,0.7967619966074119,0.8202557723594143,0.8428410836917727,0.8662231279817298,0.8858893438210057,0.8975536497747427,0.8991334034361584,0.8882704801948577,0.8577413268885702,0.7916070730207343,0.6705168333094909,0.5252408805950659,0.45700769939439906,0.5044766030216312,0.5954522966979265,0.6571812524920561,0.671832326131203,0.6494796908142817,0.5882137393152516,0.4672119465577527,0.24350124809186843,-0.12781974333212476,-0.5417946014206498,-0.7781901165911469,-0.8548689084956328,-0.8502085279736168,-0.7714436128711365,-0.5397372418796831,-0.026253514511063263,0.5131412859785269,0.765865865710486,0.848422904959413,0.8329356568442207,0.6396268932035675,-0.1737276548898546,-0.78152059782446,-0.9124012205751273,-0.9498658542172087,-0.9645084437943892,-0.9712565844529677,-0.9740698600513983,-0.9746500008533134,-0.9734431712699598,-0.9703041542824697,-0.9648432186648862,-0.9568614988154815,-0.9463281794802687,-0.935263381455484,-0.9251321594182674,-0.9135832917562788,-0.8962922491872649,-0.8666778188968175,-0.8076538933893256,-0.6523159052094978,-0.13947419806267466,0.634128759161601,0.8886123782691384,0.9438444631223633,0.9478089531060514,0.9270199488963388,0.8962468307374646,0.8777670727168895,0.8865786419649352,0.9118569239119623,0.9332713663177187,0.9434078004114406,0.9451706827525244,0.9432802885014075,0.9395949855631727,0.9320931191382945,0.9082334912257496,0.818611415561116,0.550119482223289,0.20994864455617104,0.03260615742608528,-0.0411278089775127,-0.0916272958006175,-0.12270256575708977,-0.1327734749060581,-0.17151226738631997,-0.3149367997113786,-0.5328970374508004,-0.6974836622201374,-0.7650610620965186,-0.7548018237143266,-0.6795830375489277,-0.6197347444727248,-0.6938499850930998,-0.8156422126299221,-0.8873137559372642,-0.9186191653287741,-0.9283324826919154,-0.9193523074203152,-0.8678767106043838,-0.6189268063097246,0.226152646018688,0.7082904180839931,0.8251493530594992,0.8605539539611113,0.8743043235885246,0.8828855781095338,0.8913086065240228,0.8991795693360306,0.9044941165107105,0.9049766093469138,0.900161718718867,0.8903522946056314,0.8759934609905199,0.858143471559945,0.8414273167416838,0.8302334004165208,0.8256771617338087,0.8216116110973769,0.8075955017854669,0.772280867122815,0.7089299912295995,0.6168151058175039,0.4902152340641552,0.33253812821654155,0.17554296278762016,0.0689606277960651,0.029718851252690293,0.05335934989548331,0.14434320066507234,0.29653196869621884,0.44787408371296095,0.5560954448460547,0.6151852481434916,0.6349803702378102,0.6335775156527604,0.6200810329068691,0.6018598078949275,0.5778667619413952,0.5255201783984959,0.40170735546888026,0.16377689987818408,-0.2137666660872078,-0.6121849835166682,-0.8401162417262575,-0.9232868883377334,-0.9260714675091749,-0.8710048928632438,-0.7685039692488183,-0.630253532498077,-0.45166503761194515,-0.2003406518874062,0.12034913012778366,0.3725824249502786,0.45432194350539695,0.40003686422187157,0.25930701334030914,0.08151765998682739,-0.08369662359631229,-0.21359250990553078,-0.309959918473009,-0.37674981852975226,-0.4225263529551764,-0.4563842231784236,-0.4758174225856778,-0.49333181998238673,-0.5218711798660813,-0.5635094837046684,-0.6045196282252648,-0.636463319089519,-0.6467931244787138,-0.6469979184278554,-0.6465917848830423,-0.6576967796425374,-0.6811559597372692,-0.7136895009957946,-0.7560042288062753,-0.8073965232571687,-0.8502546300301442,-0.8740281186319909,-0.8824920367791289,-0.8776013140457158,-0.8480649009203323,-0.782697303656215,-0.6647622471863679,-0.4495416485290267,-0.07754904231864707,0.3576058695203784,0.648405519773794,0.7909991884510258,0.8580517975561852,0.8908857606393535,0.9073695908297519,0.912014046355894,0.8961274400591349,0.7899921652859804,-0.04869082284265526,-0.827925697116358,-0.8792194564845576,-0.7969079937884579,-0.5959888738207495,-0.273135733956165,0.09146716000341482,0.41020756474417414,0.6457113783658236,0.7836539063117096,0.841293735802308,0.8603672113782994,0.8673585726785095,0.8704374168575482,0.8707732331249088,0.8705645177398615,0.8738121277269982,0.8837415891349385,0.8945780477315632,0.896550608853487,0.8629144284694642,0.42186721639989166,-0.9162685668838552,-0.9750267088357826,-0.9782805685195275,-0.9749703579462914,-0.968744729179983,-0.9607156348115773,-0.9543765845456366,-0.9540788489744311,-0.9600470121504036,-0.9676534718668997,-0.9729642223018915,-0.9745050966256261,-0.9723302948508518,-0.9664490874249444,-0.9573506112321425,-0.9469354840088725,-0.9382878439756734,-0.9330489059821452,-0.9267975423133216,-0.8976654056541494,-0.6218593385951517,0.5068192359953564,0.7577889712772066,0.7869271572955602,0.7814414309141741,0.7793516711213789,0.7983292252381827,0.8335375337767784,0.8692363815747328,0.8946022497791757,0.9091996507534794,0.915984254178297,0.9175934348493495,0.916402187961803,0.91310460666199,0.9071480985472323,0.8990191104015305,0.8897578083540743,0.8836208884091792,0.8840970865522441,0.8916719332036069,0.9048615757464286,0.9200011289115464,0.9322798833479233,0.9392006812689252,0.9412769925751258,0.9399512958651206,0.936885808932037,0.9335946344176508,0.9318874936313085,0.9310904703334543,0.929416853857761,0.9254938678045525,0.9189111702451955,0.9100595670000784,0.8990854410531985,0.8853825086264207,0.8670881757542983,0.8383224606140082,0.7901741602886685,0.7127163307557327,0.595512104776241,0.4404538147284981,0.26697047655297,0.10140086163347635,-0.0366088302800774,-0.1304961743762659,-0.1850089208866298,-0.22124979266683245,-0.2487258833531836,-0.2466237956902318,-0.21544856449085023,-0.20762403132541632,-0.24304824478646694,-0.27133782716997906,-0.24104678066617088,-0.13504516739188085,0.019319854603865285,0.16244288644921845,0.24573406971312164,0.26018636006076495,0.20645955331115634,0.07405515945110504,-0.12462793939088916,-0.3260702127838683,-0.4814441107196963,-0.5917219989323562,-0.6779250824286414,-0.7505684565732605,-0.8134483930111305,-0.8683516072014485,-0.9136545836987742,-0.9405758527453058,-0.934212592875662,-0.8835953649296698,-0.7870791626106343,-0.6510534703135338,-0.5065486837518975,-0.406565133691419,-0.3755322499847042,-0.39038364603219844,-0.41539819370077474,-0.4316292767765561,-0.4318516472642194,-0.41731409878541487,-0.39346423604000985,-0.36351877310526914,-0.3304960427443705,-0.28897446816974115,-0.24096060043900808,-0.20249833565393993,-0.17800711393067675,-0.14223503858989406,-0.04545638101533355,0.12629868661976626,0.32235883027786505,0.4758002559742317,0.5709300062987354,0.6276319130709054,0.6635285748964146,0.6891725527744366,0.7092028815739508,0.7243493963545783,0.7341341610946683,0.7408378394685882,0.7544131934610211,0.7718574565958505,0.7660819118866078,0.6348063653944701,-0.4315105895719026,-0.9690007086091758,-0.9921110162896514,-0.9928284966066542,-0.9916440498922575,-0.9893765815775196,-0.9845251677625646,-0.9743229241679233,-0.9563556809583674,-0.9361910082909582,-0.9280692186390258,-0.9357568424147189,-0.9480381141608681,-0.9586262982683641,-0.966485031579195,-0.970442601107092,-0.9689867906785729,-0.9570855811047589,-0.9196423558591221,-0.8169325994848884,-0.5796717986744607,-0.1871270081000568,0.25597095394749986,0.6296795131602467,0.8120332179419222,0.790537426069187,0.7506024097526315,0.7596766704746223,0.7936556907270249,0.8264046132492833,0.855120163538481,0.8787305190714241,0.8953525894001069,0.9060034748485005,0.9142712080412748,0.9229116407154918,0.9314591744494604,0.9384194405054431,0.9447127663970495,0.9517996396232278,0.9582426311845894,0.9597712298936575,0.9499487079329303,0.9208138018962108,0.865502359478322,0.790742379909212,0.7265004413647027,0.6974430101185115,0.6980030625595317,0.7118076655189022,0.7296876469652723,0.7517098098712162,0.7833757866840332,0.8325250091702517,0.8976416850250829,0.9439546427627992,0.898878870870109,0.7768431852589355,0.6669943430285796,0.5955627617963639,0.5510861781207245,0.5270559769729712,0.5255951209094071,0.5464199308155894,0.5814853256604514,0.6184567107370762,0.6459565305868558,0.6583242773297219,0.6497767823570809,0.5964530201199765,0.4236052111250103,-0.02474201837213731,-0.5733705583774488,-0.8257413876085643,-0.9119727020702106,-0.941295225183495,-0.9491697203805584,-0.9500075566089232,-0.951787015414037,-0.9584665991800505,-0.9702662236791654,-0.9834003357762996,-0.992491524465084,-0.9948089231595233,-0.9898866194072407,-0.9784742314650982,-0.958575506800176,-0.9105549923607755,-0.6979891313823615,0.34273298559819965,0.8633275169988033,0.9366057870667046,0.942869312414207,0.919308079728773,0.8640602724967544,0.8012201368029443,0.767907788850874,0.7661620525654002,0.77287643253244,0.7729442300697783,0.7519686368575983,0.6788187697454331,0.5041638651982724,0.1874644738959488,-0.24948686754450525,-0.6221705663007537,-0.8185989697264279,-0.9034782027015846,-0.940028654912314,-0.9514509801747073,-0.9447204385030424,-0.913336855745797,-0.825613365298123,-0.5649574466155503,0.007957228341984613,0.5109160619920965,0.7304867643712207,0.8157703460581086,0.851319436881821,0.8638143903407041,0.8630888430386487,0.8522802321730416,0.8307220286801873,0.79794024169893,0.7522651255427135,0.6767246854143989,0.5100354072105623,0.02256913619132356,-0.6419614997434525,-0.8329765961555752,-0.8655223163682557,-0.8663752916029458,-0.8550466554016654,-0.8423221603401209,-0.8312585435760114,-0.819602548810763,-0.8025494141307032,-0.7766335040640245,-0.7389386167474765,-0.6973500391209435,-0.6647073529534351,-0.6492348528729559,-0.6453941362283595,-0.6402043868167882,-0.615928531207953,-0.5601000911275732,-0.47487197924743996,-0.38100213528859617,-0.29913700128722703,-0.242183880041609,-0.2087471202284407,-0.202756745092106,-0.21809334124821278,-0.23795546232004686,-0.2532790291208204,-0.25725334819023027,-0.23549952034132082,-0.17350410996238444,-0.07158553223035352,0.06180698377402888,0.23219648169310822,0.43471763334833874,0.6073626642002309,0.6934401462254067,0.6955865710614678,0.648045382506917,0.5801549264594207,0.5222266252973639,0.4991038118785978,0.5164733051807355,0.5606362494922232,0.6081046412839952,0.6463428150163135,0.6711176453565758,0.6777131014001151,0.6642109170502477,0.6234617878745627,0.5676243090203017,0.5243244949302277,0.4991133487513004,0.46914908908826414,0.3724279603256586,0.17386982514607413,-0.02414427319471448,-0.14377743658774603,-0.19705240669061871,-0.21763695352125112,-0.23128993772764142,-0.2587129952956772,-0.2944794952099007,-0.3084085433075228,-0.2456635213300388,-0.11813627196674577,0.0017638874061205632,0.04890216559621076,0.02832957383232457,-0.020968010486947075,-0.0671335645052665,-0.0822804540109256,-0.04070863726688261,0.060871119878046165,0.17982392572346872,0.2839097992029953,0.3678029764846171,0.43221666710934675,0.4557626452326734,0.42192778975852074,0.36387019492018846,0.32459139435528395,0.3170234584862001,0.34473277059761637,0.40682164345568045,0.49483904518999966,0.6013414399793214,0.707365872079619,0.7821019399450786,0.8176370305768191,0.8238086418562558,0.7994232741267968,0.7191173100989514,0.5058693816722541,0.05940862508792474,-0.40758571965713103,-0.6411549152244324,-0.7199174910687729,-0.7078433626134716,-0.543965159624076,0.035585333944726634,0.6037215911228604,0.7741687000793246,0.8252883436681393,0.8483254438364317,0.8652857686480833,0.8828715509231259,0.9063666944668639,0.9334360437115745,0.9564361977816173,0.9719787550891262,0.9812658376518998,0.984785819274185,0.9784215502502601,0.9237382353662137,0.10390903947281176,-0.8379340236415364,-0.9350445503151631,-0.943927135953681,-0.9279315637917331,-0.9160227949881249,-0.917538958192302,-0.9265543539994271,-0.9355021650515294,-0.9391857929038706,-0.932002181472377,-0.9018253177495219,-0.821986120256201,-0.6877169875849544,-0.6334348896094067,-0.7395679760705781,-0.8579825095519368,-0.9178683626214796,-0.9411311199956357,-0.9444367677085906,-0.9251657857957282,-0.8453108485227125,-0.5311690780062641,0.2821374147742153,0.7679677984541199,0.8897976625919068,0.9112941625794172,0.9060077598272673,0.8972255369262246,0.8894710500927645,0.8788378622250649,0.8634355361641913,0.8423127533975279,0.8152885047358694,0.781450068641166,0.7387113383783079,0.6817296950339325,0.6039522047457379,0.4990998936728052,0.3716749759088069,0.2569475603237982,0.2201320062491759,0.315013077267209,0.505213825102068,0.689671457126296,0.8104525125659287,0.8748732122775108,0.907164852299686,0.9244205328294257,0.9343586063001452,0.9392291472081663,0.9397296747371953,0.9365496079263337,0.9292214314525373,0.9145957509567343,0.885694540560749,0.8246675391807458,0.6722067987126816,0.2332294183086695,-0.46764094413856955,-0.7849277482688226,-0.8859795581379301,-0.9308903979063314,-0.9549297892174217,-0.964720101831663,-0.962634617499205,-0.9522042598135201,-0.946034467912819,-0.9536701670140465,-0.9658575104442684,-0.9746191600077796,-0.9792315809811808,-0.9809035989509588,-0.9798116428600497,-0.9735904250983509,-0.949872326049023,-0.7787315641828356,0.6516323854756638,0.9398223710285085,0.9738270223389732,0.9841121610671298,0.9871450367291525,0.9855342964317899,0.9796942901200183,0.9687078070133041,0.9451642834653003,0.8568567908995712,0.23375666495543376,-0.7462058792732067,-0.9079525078446788,-0.9421377816919517,-0.9510306096627331,-0.9478394848038842,-0.9282936437865028,-0.8647810801059899,-0.707084614129769,-0.501313809578709,-0.4090056673901314,-0.4782687327481896,-0.6160352698679276,-0.7003567429022771,-0.6891395579369447,-0.5394245753330119,-0.14803823371348165,0.3294109453416031,0.5726063743498757,0.6353039512451734,0.6294235353452114,0.6311887254626035,0.6837554752188433,0.7600374174682852,0.8199597020964197,0.8568979950049167,0.8768699016762468,0.8859485149624621,0.886674266959586,0.8817274061824455,0.876083408942331,0.8769153364005415,0.8905868563324638,0.9154544196118773,0.940307113341166,0.9531528392613741,0.944422163497371,0.9079260118164656,0.8497875524960516,0.784558028333611,0.7451518478607988,0.7582757434583365,0.8049202603840357,0.8491707350888146,0.8730882148156295,0.8697679285751913,0.8281005829733878,0.7320397230771747,0.5904528858222128,0.48210452472967485,0.467224547653875,0.5158948477931877,0.5634257603351461,0.5750895164772961,0.534893046793931,0.4169421306247514,0.17281033866117712,-0.19682823901833196,-0.5321106375915741,-0.7267326148995135,-0.8278989603398879,-0.8822076485055353,-0.9077049024155157,-0.9108297493720761,-0.8883395000352298,-0.8060170607713927,-0.5947723067464422,-0.30744724558001263,-0.12136605691700263,-0.043942387004472894,-0.02666213762143885,0.0029362240500310235,0.1468547554468705,0.43426110955323305,0.612122256280499,0.6038250022887198,0.33751658833382536,-0.4049413935299354,-0.8653975691483567,-0.9649126941190262,-0.9851073326052765,-0.9817786469561479,-0.963610295664901,-0.9309537316367191,-0.8853525218915447,-0.832113330721865,-0.7735728715938652,-0.7090689195618404,-0.6393272909544427,-0.5693066477610521,-0.5099773750352639,-0.46224432520662717,-0.4111096150027782,-0.3352466018337242,-0.22778739206012802,-0.10347582630440896,0.020263044368446118,0.1336601231004745,0.25472388519182704,0.3817091437012825,0.5067831993278052,0.6007949820232555,0.6368004884270813,0.601298523547572,0.4891546191439547,0.31798492338235773,0.14058198994581717,0.00768912749860421,-0.0617226207676528,-0.07856414994653939,-0.06231558999506718,-0.020738504097950267,0.02913409258014245,0.04655048057982155,-0.0036654172402723604,-0.13969538020782443,-0.33064355781353755,-0.5038444448420594,-0.6133130783273827,-0.6631660525325901,-0.6714680477113406,-0.6498029915573946,-0.6005033460264616,-0.49631447302301024,-0.30063614762841934,-0.08266997421430347,0.05057032059166149,0.10176448924576591,0.10411194991911137,0.08115604961981898,0.05845761411097035,0.05183921613044933,0.07210840246799867,0.14696825231549798,0.29927945078049817,0.48696902178657164,0.6389938831928952,0.7266502486034099,0.7660165596199294,0.7637032953963278,0.7118976068439268,0.6048142423561165,0.46803792332440053,0.3575742467151342,0.3208301981116084,0.3770566559478521,0.5039187977525953,0.6355183744998544,0.7271942394907732,0.7822530626813033,0.8158937047114112,0.8438041245403406,0.8672864119409368,0.8659653408367569,0.7915969114263466,0.5890344480047802,0.2581439167057826,-0.08798828078565471,-0.3468991224569614,-0.5199823132891395,-0.6322062924354059,-0.6890570070938541,-0.6966747988948868,-0.6784554249335474,-0.6430331764639976,-0.5885853084473776,-0.5280715453740904,-0.48942607367761815,-0.4979330333286055,-0.5493667079162879,-0.6097431107629115,-0.6455933140838196,-0.6389655383714969,-0.5702040200203405,-0.3979085343811283,-0.07710040618858059,0.3232850707178178,0.6302464860042841,0.785924103408232,0.8296198506162573,0.7808729203694856,0.5463163873262445,-0.07592537942214238,-0.605708165964149,-0.7951595448550387,-0.8543694020570385,-0.8607842820997749,-0.8315125609517818,-0.771664622915103,-0.701221130468937,-0.6539128604568553,-0.6429881763949894,-0.6477038598690057,-0.6305518066737814,-0.5372199251637834,-0.2973921086765823,0.09356375023678011,0.44277049529176393,0.6610800024344169,0.8079407715061301,0.8938126019789175,0.9299578499956912,0.940079476088886,0.9388593068896454,0.929600417144417,0.9079684316852328,0.856991428105686,0.7269774117088433,0.4077146835018886,-0.07050311289976477,-0.4059204928196576,-0.5684249018712886,-0.6569873688463622,-0.7238052718410051,-0.779696028759173,-0.8223491550337284,-0.8574448312049471,-0.8864209805361193,-0.9092134540154226,-0.92313521796569,-0.9211508630707869,-0.8861679404292174,-0.7744218665528505,-0.5180217040138638,-0.20544545313819979,-0.05126166834555713,-0.07093532370242163,-0.18661257577337625,-0.33276138142316025,-0.45633968309873346,-0.5155167977191876,-0.4173894206490846,-0.027367645845246542,0.43195999434343135,0.6809811832396726,0.7941653642815694,0.8528425353701243,0.8874073373504455,0.9065526766360679,0.9129674849836034,0.9052484515198713,0.8772267346115205,0.8225041895741767,0.7471734711863651,0.681607749428513,0.6542875781854567,0.6634737183441627,0.676013164137936,0.6529388237460823,0.6165771256308512,0.6156464514302777,0.65874951415554,0.7192979142417361,0.7685534019331614,0.7998112757536581,0.8245753029324271,0.853920100236129,0.8851039393218166,0.9061713491751154,0.9134075197596965,0.9095514401737562,0.8984934047926355,0.8804855544719526,0.8473475017236213,0.7802242839894585,0.6317822226349771,0.28925755527635433,-0.2684655516276058,-0.6822167533886628,-0.8594722987406842,-0.9332453009740463,-0.9686001520611426,-0.9848333221843948,-0.9862774201888752,-0.9754889179351952,-0.95421057544765,-0.9252526122792589,-0.8999032503487776,-0.8876242935609682,-0.8857252508636396,-0.8827947857717767,-0.8693852840375923,-0.8361621124015255,-0.7650462274945676,-0.6124039844489326,-0.31969140314842065,0.07426655693380092,0.3982388557409789,0.5905744411832721,0.6872419707839544,0.6967839752836489,0.6162652557486595,0.4778373485324813,0.3374964624859188,0.23559724291348072,0.18333372749651888,0.17377474692332037,0.19276382531008387,0.21807963683596607,0.22100328711699968,0.1611674411676807,0.00411272615403431,-0.2222960671736834,-0.4071639740097531,-0.49121359569501005,-0.48102291955371773,-0.39679921040983984,-0.2592689000614716,-0.1067080064546622,-0.0010586949331397144,-0.007454687633890014,-0.1770733620468313,-0.4460443947005761,-0.6104318332085421,-0.6096106485006271,-0.3266165244745313,0.5308797992029897,0.8648382080894225,0.9022385334910327,0.8944086815798451,0.8673854347972176,0.8130083294943973,0.7061733556681195,0.5154092740940436,0.26070973905513223,0.02105044258283606,-0.16720768893299828,-0.31784661716700235,-0.4443992735016357,-0.5339273182207067,-0.5474181308806283,-0.4660868818105889,-0.27714120923903024,0.006258072729586546,0.2419432839657808,0.27704499102646263,0.037904141492366046,-0.42851073431562303,-0.7312553751586757,-0.8318988377709421,-0.8516884753448791,-0.8227940468517364,-0.7040001526001751,-0.255177590885454,0.5230646350164877,0.8073876219271174,0.8741480821702219,0.8695016943207351,0.7619531303524815,0.08948960846319592,-0.7990385503813423,-0.9377499507201081,-0.9639572550386467,-0.9690373722422858,-0.9632471034521036,-0.9255659132038299,-0.4095882548125446,0.75916494213761,0.8730338774745711,0.8827695341814628,0.867039728929243,0.8363542234772597,0.7980558978888855,0.761903744122599,0.7383188782263668,0.7345816435168128,0.7496199621319568,0.7724988194660164,0.787668246484258,0.7848791017562343,0.7577167704477643,0.6988475436432883,0.6088325934220247,0.5067929456303063,0.42364318797741557,0.38619060700674573,0.41509953738691324,0.49206035739917103,0.5771818063019574,0.6410780204896844,0.6737890119148988,0.6759828834449296,0.6518145346641958,0.6113605317765874,0.583614277665565,0.6070477533705474,0.6780102490633827,0.7474377646631588,0.7976009777690476,0.8323923695690699,0.8494131257447722,0.7510822933049757,-0.5349002628834851,-0.8296053388555166,-0.8701472406869996,-0.8816695320791484,-0.8851023612708765,-0.8879281830242995,-0.8944244903224556,-0.9036547480749836,-0.9091060323434779,-0.9013168851726744,-0.8733027310001272,-0.8222739714976268,-0.76554180881241,-0.753366265465603,-0.8028799379299643,-0.8549132023107375,-0.8840623924237795,-0.8964772653733376,-0.8955195220647816,-0.876823637418846,-0.8208385024379659,-0.6692700277010917,-0.31475715907002033,0.1434782233955286,0.42697306035388527,0.560512171230492,0.6208507060984313,0.6223772699860166,0.6031440266459203,0.6294569783204776,0.709747817724642,0.8050508859784468,0.8763143147137301,0.9184013616957714,0.9400655631847383,0.9486552314318139,0.9492966132672127,0.950910343919245,0.9613133237656462,0.9662518668590991,0.9313169006162431,0.8377655433679175,0.7189016552616384,0.6188162861070794,0.5589299315375974,0.5320746792011327,0.5285531303543752,0.5415050315626702,0.561150326702431,0.5705485768007583,0.5647517400245327,0.5393519468218243,0.5005444856452155,0.4579883835413901,0.4221905347787808,0.3957051142823002,0.37120625178916455,0.3460429670442251,0.32203605102134025,0.31778412716017135,0.33269135128158306,0.34292937297514353,0.33072309013264334,0.2959348268779918,0.23468679711676435,0.1347338669442053,-0.0021244430968715973,-0.13470410287989454,-0.23030114630913887,-0.2725139360089341,-0.2706597980301604,-0.24108663396469024,-0.1966665801054013,-0.1423317879574308,-0.07246955423046741,0.04684844470442416,0.2506279487134005,0.49976869975244353,0.7031997330095108,0.8201392884577069,0.866923923203238,0.8694456068702813,0.838269973548113,0.7645068445046581,0.6387140370631125,0.4744409190743988,0.3177374572199392,0.20663931991146822,0.12739395410721308,0.027955230355720652,-0.14525664085181977,-0.4176267762976628,-0.6979327695487632,-0.8418018149790271,-0.8597655003127112,-0.829174071161567,-0.7945361281245878,-0.7729974299248253,-0.7705149785130596,-0.7833817020660617,-0.7989506121468998,-0.8005043400469072,-0.7885999960366872,-0.7862132662885725,-0.8079258477982117,-0.8446024808492917,-0.8789164325267648,-0.8983318689323072,-0.8956244462742817,-0.8561778614276875,-0.7241212065107305,-0.4002026043720802,-0.006446861930518435,0.24330048543039737,0.3795159081088783,0.4653584887898691,0.5477037710545648,0.6388869602926566,0.7255203694990605,0.794438800676839,0.8397917959210072,0.8582834787328802,0.8089280160678171,0.5019567939576266,-0.15675215328780034,-0.5317726574354372,-0.6433368087980359,-0.6375136311876511,-0.5297184591899204,-0.26683900013645173,0.14465231090838887,0.5070966731402132,0.7192177823234513,0.8325012385123934,0.8954940823764218,0.9318437362697305,0.9523640542980352,0.962936371611405,0.9665384494673911,0.9601037951890943,0.9283265973523873,0.8273145160596039,0.5981495575570001,0.2813227468758347,0.01866466375464014,-0.1379117026413029,-0.2286490972424242,-0.28794474956079547,-0.30502304388550416,-0.22983200953884872,-0.020053045279581308,0.23921167119714443,0.3978944127102011,0.38906025185696447,0.11873027159781355,-0.4474439833512582,-0.7948144791840669,-0.8940211554185695,-0.9143834695359485,-0.9056870155395679,-0.8763329857718336,-0.8332106645900313,-0.806803737545095,-0.8308585197557314,-0.8780312926589039,-0.9077349106662022,-0.9118158370110977,-0.8864137654898124,-0.7988951310167468,-0.5294206548026128,0.013584264734003005,0.3344081331156232,0.26251135005039344,-0.09249963082369086,-0.4151220784751469,-0.5344948049924602,-0.5035970777772334,-0.32900026561707435,-0.005843847195011938,0.3321047166172051,0.5406386493213825,0.6348709313317271,0.6680108465816159,0.6834265366504912,0.7124417694038788,0.7595367244503501,0.8047087105981233,0.8349794962883085,0.8500039196435977,0.855932620686214,0.8582358462196814,0.8607079974558615,0.8672249739379487,0.876667689608785,0.8884594719793326,0.8995856418494482,0.9087725630464227,0.9172934417799653,0.9262765411151349,0.9347679292153761,0.9370643062712652,0.9240750718607382,0.8763460742690077,0.7393699461139074,0.3521743787688987,-0.3406628166439673,-0.7561245120711488,-0.8793407021978812,-0.9066758535611831,-0.9077284196016948,-0.9020316978983395,-0.8877364726291023,-0.8488044384970854,-0.727390254075385,-0.3065911123715311,0.37639202880889505,0.6816057971032558,0.7714706527526093,0.7892458152870121,0.771787600258742,0.7318334464648315,0.6743376008170238,0.5904476736980738,0.45226367441836274,0.255629448863394,0.04414403943661105,-0.12985344174460048,-0.24168568740260632,-0.2984124509140569,-0.3226483859846213,-0.3320608699988622,-0.34182067207255884,-0.36379307781274506,-0.3773994633945371,-0.3685587916520822,-0.3397187968947041,-0.31317726288624076,-0.306620476876277,-0.3134670871567948,-0.3183727261599571,-0.29607937328862177,-0.2553201376330499,-0.21157956252246027,-0.16679272365061887,-0.10756790272970142,-0.012963996837185795,0.1359207333873162,0.31191846867134254,0.45676681014642323,0.5235576341531827,0.5257437739809414,0.4792221932349376,0.3773286448284974,0.181699314038006,-0.1457627081712472,-0.5526266149032383,-0.8246707820289434,-0.9225612217637851,-0.9436021219853415,-0.9339571308419651,-0.9011652032527668,-0.8304132259871967,-0.7041538065440698,-0.5448709564364838,-0.41756620367313696,-0.36237457011939445,-0.3839534267043251,-0.47940870587389306,-0.5986841874527321,-0.6802907327499919,-0.7186531523826889,-0.7311793756677285,-0.7247514360142703,-0.697793498803838,-0.6465974434043584,-0.5781515606341875,-0.5196709180590074,-0.49342527730148406,-0.519606470068024,-0.5532561631020755,-0.43802792748203584,-0.3737472621798252,-0.3513933384708868,-0.30670421621256116,-0.186686348449525,0.029253689867869633,0.294297606442822,0.5289149940055173,0.7092070743237059,0.8352779800675283,0.9102248259071323,0.9464341431462513,0.9614627820580504,0.9671192355191267,0.9694509073327946,0.9700465104050267,0.9673196074364788,0.9541820211488201,0.9120624812237108,0.7965191387992521,0.5086067432750687,-0.052098266515799956,-0.6064908065556855,-0.850576166834869,-0.9306823917709754,-0.9585682562812777,-0.9696617252919738,-0.9750543186704169,-0.9787046250442403,-0.9820218688633536,-0.9856028492642513,-0.9891885858944599,-0.9912978123772429,-0.9880748376668939,-0.9741382584735696,-0.9441155179663906,-0.8996948979665499,-0.8604599414990581,-0.8404769230607061,-0.8291090430084681,-0.7702259995308864,-0.560252427268447,0.023878487639821405,0.6855491831930269,0.8930052360330305,0.9440108937439226,0.9558830095183011,0.9514151006513614,0.9344507530126753,0.9064186973052193,0.8756737186856834,0.8568573114208722,0.8618035534318943,0.8876483002589134,0.9235256946430523,0.9575707823681419,0.9784210873683679,0.9858127387243395,0.9869288767930701,0.9850843558753329,0.976744349905796,0.9590543600244147,0.9331927486771148,0.9038457374285659,0.8747771332416393,0.8430722251928601,0.7991249551652979,0.7164732099667176,0.5354762706126092,0.19591578013115202,-0.20370788358499808,-0.48038770810086906,-0.630417512009784,-0.713474045125619,-0.7623233685561706,-0.7923281243398703,-0.8161016902349351,-0.8387638940330037,-0.850398653986081,-0.8280518616370972,-0.7769710589429866,-0.7375533100213523,-0.738073077710003,-0.7390032394941662,-0.584308582288229,-0.2718359307499395,-0.02874102192862834,0.10844465067803029,0.17941004291212717,0.2223839904909699,0.2615036007774512,0.3123521252271498,0.34216864371359496,0.3057873538297341,0.21891612826723597,0.12329733528508767,0.04477642464944427,-0.004574237852718066,-0.021869165583499224,-0.018400380968507327,-0.028168178334520493,-0.06328886220831245,-0.10212674133612387,-0.0986979977701262,0.014558220761783373,0.2733594164042157,0.5564600565986555,0.7225623022661557,0.778941775989515,0.7802423564090631,0.771535994193104,0.7776236165972814,0.7904950060009307,0.7848576190631309,0.7333188743178111,0.5863311362132605,0.30315748683216814,0.05538162865677019,0.022267403903687952,0.12085673411099995,0.21997527774388786,0.25321317570182067,0.15680647971787834,-0.2842729359998929,-0.8480212611660057,-0.966000738846041,-0.9788229155048673,-0.9782156938977496,-0.9742759162392568,-0.9679824297944926,-0.9585717917080602,-0.9432341729369725,-0.9100838823141383,-0.819572751966576,-0.5760887026489797,-0.15427980161956453,0.17404456326488404,0.27925170997732135,0.19473154151396796,-0.053868889544215454,-0.35682162131694295,-0.5489993523628731,-0.5604572105933926,-0.13796826010098026,0.7163938887398656,0.8969695549178619,0.9134753307639706,0.879562240159531,0.7552558337345789,0.3571725066052927,-0.16778429418991406,-0.42029897828926455,-0.5164105461135085,-0.5588842526811099,-0.5709777799077579,-0.5277091014170033,-0.3631487166683268,0.05124837468179763,0.5996277222977985,0.8630724465874597,0.9387557183616108,0.9589359977824784,0.9550239873874171,0.9064643069553445,0.530873706108566,-0.5560061819462591,-0.7964998521313145,-0.7092263830092419,0.05346160928838171,0.7074767640352099,0.8384466106913548,0.8723693125339149,0.8817180894187507,0.8828118355363923,0.8803668334226252,0.8753719804619328,0.8662046929915262,0.8492303425585649,0.815432557106049,0.719308373608228,0.3662209578419911,-0.3631835963997132,-0.7210137329686742,-0.8375445820697789,-0.8885931687466591,-0.916220126012859,-0.9328664553174063,-0.9412789857117358,-0.9412277088311204,-0.9326361709659031,-0.9149807392229928,-0.8897580866766002,-0.8626235683020379,-0.8407165281938185,-0.8258662914690834,-0.8139686876768739,-0.7991433176732978,-0.7725594676288126,-0.7240973557409073,-0.6291635609865986,-0.3505612308833926,0.33972207868043275,0.7792361228256527,0.9021458368061095,0.9402451117581996,0.946947752989095,0.9345076155778276,0.9080032391983279,0.8739554096131928,0.8426977068192897,0.8257740101373588,0.8270564216985108,0.8437707833945585,0.8680027882249953,0.8899958115615555,0.905046486371463,0.9108515803082831,0.9063505116777621,0.8913102822911215,0.8653555107576937,0.8257735244996158,0.7723475092367821,0.7105016268786059,0.6495328743033815,0.5919044954754129,0.5349231189658589,0.4830538780679831,0.45169462146123096,0.47468445071698573,0.572211514403247,0.7020264329243224,0.7850622339518706,0.8174817532454025,0.8219809612646484,0.8067591162127824,0.7776808168032139,0.7505187733202008,0.7282865403715482,0.7004361056300786,0.6593001519033492,0.6102267334281234,0.5707819547843849,0.5511141512612284,0.5441497511883001,0.5325797588076596,0.5072184793055325,0.4632487779665195,0.4006922315325896,0.31727868944776255,0.19959984402576592,0.03587662015424499,-0.15917575326056052,-0.3041160572594199,-0.29274107702092916,-0.07970957840109341,0.21500377397653844,0.4028818790951644,0.44025225167658927,0.32955710754939743,0.09172823657378854,-0.16214572099758368,-0.36429408229395216,-0.5465653178315848,-0.7109118207944808,-0.8277505031378314,-0.8965879263110005,-0.934947468454209,-0.9554211352657758,-0.9645783123480302,-0.965030743147453,-0.9567112024352682,-0.9370723426881306,-0.9008801039492388,-0.8433114382168337,-0.7724534020216443,-0.7132541548518877,-0.6795925370769932,-0.6619615216645561,-0.6572313797080185,-0.6714707626172032,-0.6996445271335133,-0.7281263132258458,-0.7469121533847753,-0.7428453277002353,-0.6820909456358017,-0.4523753812221586,0.1468501646516696,0.6693665790608613,0.8611394333204627,0.92719276426218,0.9436250162075115,0.9412474288834379,0.9349884121022389,0.9287427926877067,0.9227909860874595,0.9168636440241686,0.908114367766364,0.8927085833140943,0.8649096906642887,0.8253375846768658,0.7857472210666999,0.7563597362117199,0.7347986846073874,0.7009782621989644,0.6263971049883692,0.48050661074236783,0.252640327812478,-0.009089781251824419,-0.23305444341148948,-0.3924413642187844,-0.49235219236683814,-0.5305241708463261,-0.4866409861532747,-0.3333527993975452,-0.11004479430735749,-0.011333703466385955,-0.19595326139819527,-0.5283242551694679,-0.7321300820694875,-0.8140590594205417,-0.837202945170911,-0.8192741989579524,-0.7488723509952775,-0.611343746854911,-0.40916249366524715,-0.19028415158440304,-0.021849206118656216,0.058158583515217945,0.02321270452290034,-0.14009279780540299,-0.39919650182638183,-0.6304722758213084,-0.7515964256643776,-0.7870688914910996,-0.7639036455840393,-0.6628725420241395,-0.40836590298208425,0.04760571528425158,0.4700920186254596,0.7040785995078536,0.8181530862649851,0.8735298743558086,0.8966326405865244,0.8950701913980578,0.8576581190944098,0.7229612063441083,0.3000504555814454,-0.32334181582782345,-0.6188809273087862,-0.6624854173893382,-0.3981352272380336,0.24726298908349792,0.3960245440676159,0.10614247838836216,-0.44126874924155995,-0.7532057759973825,-0.859142660182489,-0.8970796923273661,-0.9109428400357361,-0.9142289924452308,-0.9127433979347841,-0.90998374786299,-0.907216924240732,-0.9042034936577816,-0.8987847654282349,-0.8809213858991894,-0.8177271250984366,-0.541245737393015,0.3389610025534932,0.7818908595811924,0.8729708362113476,0.8880957693269005,0.8806676148040866,0.8703806308102818,0.8681786778086036,0.877024614305241,0.893417994288472,0.9122571966017686,0.9255523857621168,0.9244439607737102,0.9003807922692001,0.8461812344381058,0.7617059349433652,0.6546296127388302,0.5317001880215984,0.3991994699464131,0.27398332209442383,0.16823170004049223,0.0747634352713809,-0.05518196750993992,-0.2907443027707591,-0.5937717849774096,-0.7860869932087184,-0.8515580349443753,-0.8491409654990292,-0.7776580716694994,-0.5353833842649075,0.023652713051827985,0.46953041889145564,0.6129571512885775,0.6097960519309723,0.4972328171551102,0.2585210908119041,-0.03550165274378627,-0.2287946382513988,-0.27484411154857663,-0.1972362921291571,-0.04635043742230369,0.08705147548647242,0.14429398390854986,0.09715764889202574,-0.0686504803490995,-0.298648696693676,-0.4860878132006696,-0.597501604278564,-0.639456910608818,-0.6134449307748828,-0.4813901804117588,-0.15314140575209326,0.2980610004056071,0.6096576765608682,0.771530307767485,0.8593636434428209,0.9106111324684564,0.9402890309846229,0.9560166152985411,0.9617065247639653,0.9571804144051363,0.9386612233715931,0.8974342624863557,0.8154806343265253,0.6517790155158937,0.3227550308103266,-0.21174641549921575,-0.6670225723186439,-0.8715065373456439,-0.946105107385251,-0.97129646869603,-0.9755405353331791,-0.9697705771570749,-0.9608856885938332,-0.952183135724795,-0.9418573221218013,-0.9227020465389559,-0.8790943030360717,-0.770644508248918,-0.49724868842170783,-0.003545741062340602,0.43342142653066984,0.6805046675406361,0.8186178572894863,0.9019242846709111,0.9513446480543,0.9776609766942247,0.9886441250489864,0.9898463699684619,0.9851785690227685,0.9766382769112335,0.963583748448399,0.9376349336961154,0.839750839817984,-0.2785957295720301,-0.9467614659183377,-0.980945920825164,-0.9864345242451631,-0.9881716875182596,-0.988866433391255,-0.9881163933270288,-0.9832680056507457,-0.9680822707878716,-0.9370758592862891,-0.9135912663423638,-0.9226002221404198,-0.9432591367595108,-0.959257083425801,-0.9695974812894675,-0.9764369154627907,-0.9812950936731086,-0.9846630898853368,-0.9844818560851676,-0.952086364072149,-0.30134902922549606,0.6808976434413427,0.8035780941427196,0.814994094989733,0.7996421989723677,0.7776281114818857,0.7607517037907494,0.7510331781856849,0.745418835197933,0.7340713820841671,0.705347737077967,0.6483549338564513,0.5685246363942758,0.49555368312665826,0.45827970931717416,0.450992197696464,0.4556057578331107,0.461884175936562,0.4761322716363563,0.5231150319026582,0.6342991075987627,0.7760960028564398,0.8769693992449709,0.9265547984383398,0.9479338070747899,0.9567595572978048,0.9610702180227704,0.9652224852114271,0.9707965531265489,0.9758401349841198,0.9780778530881235,0.9766161965784609,0.971987614500457,0.9636395996144473,0.9479725019773765,0.9147328258201888,0.8414388308238825,0.6874300906393325,0.41609347861970114,0.09074068402491502,-0.07510964719961714,0.007935874728455375,0.2442334279772238,0.48054257848635684,0.6439836366105707,0.7486537639600584,0.8172589948128336,0.8639066390614932,0.8931163407418623,0.9050699056925441,0.8957268305521501,0.849861209562874,0.7173325054178024,0.3976977563232487,-0.08518727813176202,-0.4729865786642962,-0.6670025861622637,-0.6718316753364448,-0.33006598250328545,0.6095238962803129,0.9438602309289954,0.989599361265035,0.9913634391477795,0.9793540592894235,0.9501782009329052,0.8793399559324208,0.7103244071898385,0.43512060185175916,0.23472774416651046,0.17158501522667594,0.14870807130389488,0.14237671287075543,0.17872475789548475,0.17373722261829125,-0.08389568923641272,-0.5983387835943422,-0.8562988381644137,-0.9321280517397306,-0.958243575175305,-0.9688668275604307,-0.9736041517558452,-0.9757394198799816,-0.9767070345491433,-0.9772205086002007,-0.9776177018663577,-0.9780678777756436,-0.9781250405427443,-0.9768667279786699,-0.9726406922908751,-0.9617135976298294,-0.9345746018376548,-0.8622936042363685,-0.6471324165564581,-0.0865893262697087,0.5355854987439211,0.8171848971470582,0.921520072953286,0.96216442850621,0.9789055471409616,0.9850077865759719,0.9846969517416305,0.9771546272495945,0.9576009696327558,0.9248000868600471,0.8929278543741783,0.8786732182293231,0.8842726528179441,0.9027603895670867,0.9268306203332025,0.9487087997579232,0.9637617124512006,0.9701307369609976,0.9664852677206682,0.9474808014686129,0.9012236331372471,0.8308950320370182,0.7948690443936911,0.8301405099548562,0.8887535082732978,0.9296621566645176,0.9507922883734105,0.9601996089689229,0.963991395645174,0.9657882484090532,0.9672330816723432,0.9670115507339395,0.96257890467841,0.9500049294499824,0.9158770059395283,0.810250331484238,0.48757245295858487,-0.09612189674981797,-0.5053195627667811,-0.676006258868576,-0.7339930930703548,-0.751913789570314,-0.7868860317030646,-0.861082922164751,-0.9315536198929223,-0.9686991974545583,-0.9810083168175727,-0.9812551168120855,-0.9758887333470632,-0.9650102392604786,-0.9385442199360041,-0.8326992744818316,-0.08700231610608479,0.7798330668216716,0.9030203283725844,0.9152271886289666,0.8644402312718776,0.5148174283351385,-0.570130395818659,-0.8709739488637374,-0.9266434147945094,-0.9391398626709678,-0.931381534564185,-0.8918584228426509,-0.7490020050642237,-0.25331689120680884,0.41104823742205365,0.6318970712932198,0.6348698863667802,0.5954091431633546,0.6092133961755869,0.6967392986655733,0.803673661656,0.8739457144149965,0.8948784470446565,0.8775859150182259,0.8333992424803731,0.7705088407915501,0.7026593957081765,0.6479535349537796,0.6132159932172693,0.5872900539977365,0.5551579420934514,0.5090304140450451,0.44932550766505147,0.38501363353963824,0.32691530273864094,0.2808145666229093,0.24126755082441192,0.19475021073145485,0.1191765576223262,-0.008242250193617011,-0.19641147329624173,-0.4013538795579348,-0.5558469093550666,-0.6249243491353432,-0.5782298301942919,-0.3343223511734662,0.13208676554716203,0.5087807567039655,0.6731526837035101,0.714063784034477,0.667909735698617,0.5267325687415283,0.3341740782392504,0.20145597280026442,0.1635149349423395,0.18389415252228447,0.20158022706010503,0.17046896882757276,0.09053356296369049,-0.022423298873341414,-0.16752151953126113,-0.35107175296275017,-0.5435646667485474,-0.6906652847731003,-0.7765644504932947,-0.8069612030672784,-0.7832669915697059,-0.7250609702913717,-0.6589277835068214,-0.6026787758046688,-0.5644371246457185,-0.5438770200422677,-0.5343067105195057,-0.5208267313643532,-0.48960266192148894,-0.42136002569216996,-0.294524659388641,-0.1157348413366651,0.08780188496865006,0.28646650253716605,0.4619054997787776,0.5991513684547919,0.6930382041514008,0.7524545144277577,0.7755986823650887,0.7459310666166197,0.6461839111109844,0.4569603356151251,0.18919065785842543,-0.060881499783399136,-0.20666411748434604,-0.2104605736648785,-0.16460655254612208,-0.140262395581946,-0.1258520342435858,-0.07892463014037675,0.046824846442438346,0.2419664202696319,0.3770939506184985,0.39943882496864724,0.3671938614668075,0.3106805832093591,0.21140499418096198,-0.009483090194986193,-0.44720195703776294,-0.7735016991435807,-0.8672255537863862,-0.8948278583627952,-0.9029279772214064,-0.8979955038010679,-0.8807748806942969,-0.849705888527111,-0.803463066149247,-0.7466165836491552,-0.7010773017196515,-0.6969650146132236,-0.7274192276884417,-0.7551521449993615,-0.7482344771181295,-0.669279641189558,-0.39957409971445856,0.18493121101879323,0.6184468340664967,0.7748752553503734,0.8232750335635185,0.8120304554503843,0.7174961748368921,0.499264144816732,0.24211934391295273,0.08726204215694526,0.07774090300500275,0.2254982884013201,0.4806233580810016,0.6970496842361342,0.819330474757098,0.87949088280288,0.9036329719289622,0.9041913201246333,0.8874535035302088,0.86094584361115,0.8357088473991157,0.8137578721630931,0.7729339802271248,0.6617117738503195,0.3928030275902301,-0.02847553342700399,-0.3165980205411027,-0.3845219365578275,-0.2955292309525123,-0.08864097628647662,0.13492036034588556,0.246653086682114,0.16763317070227282,-0.18683015917663964,-0.6675457278131423,-0.8959540662765146,-0.9594065408360059,-0.9746795204453574,-0.975249270781277,-0.9687469547435363,-0.9542117445079829,-0.9268804194725506,-0.8768385848833322,-0.7834519410496288,-0.6148898793141535,-0.3593485272567069,-0.06197595811947525,0.20887150032907997,0.41678380133141435,0.5667096960456385,0.6807347068665339,0.76045770923217,0.8017579831760784,0.80598106023481,0.7659133055772606,0.6391007293386455,0.29979718302104863,-0.23854064446008538,-0.5428686620540031,-0.5562338816252187,-0.28401098651893397,0.27188873636324074,0.6543932203618852,0.8044853231462563,0.8685146275136639,0.9064706900972642,0.9367221918081553,0.9601764971948215,0.9742104127474785,0.9799254905663572,0.9795499759710672,0.9715213532872006,0.9448154397034415,0.8707584968239263,0.7453084566979274,0.677679497276473,0.7434513160559107,0.8425330996878571,0.8873569121287864,0.8982373341114657,0.8970775656713615,0.8893579595827589,0.8752494534091128,0.85155191857169,0.8142914477483368,0.7625903483417429,0.7123978064693464,0.7078527171435324,0.7730357077389589,0.8620634991316771,0.9165240879832482,0.9352417257411152,0.9308534613844566,0.8969512109899421,0.7429908715893353,-0.14921313484482696,-0.8373845589674864,-0.9397237517275083,-0.9626785201226543,-0.9678787297853588,-0.9654956397731235,-0.9584745635577505,-0.9515729215952485,-0.9511058623829823,-0.9535292420563156,-0.9506567039622764,-0.9373270180092981,-0.9081296237520329,-0.846696836925454,-0.7148132430446078,-0.47244509884135755,-0.18953885608102986,-0.03930409421783093,-0.10582689321476155,-0.3130245662805795,-0.48076695186997787,-0.5146585926479529,-0.4270608795120736,-0.285873911039065,-0.18975518644056993,-0.20602354518514285,-0.3682964870405912,-0.6469205875979136,-0.86532448524903,-0.9460428161207414,-0.9553397488972649,-0.9363108881566403,-0.8998283588749308,-0.8380386445887168,-0.7284146398529089,-0.5807987785355984,-0.5176795271517378,-0.5974882233311283,-0.7136464773353729,-0.7912893261441987,-0.8208438538081794,-0.8020843701963072,-0.7111548110339742,-0.4447495078718175,0.09542454604094171,0.5478213153653834,0.7333279608765645,0.7805527832117612,0.7394403830987856,0.5867486604983133,0.33707263665616743,0.25809897871008225,0.6140387410929968,0.8990903368004599,0.9588375747926002,0.9709545281312587,0.9733376441961391,0.9722454629982001,0.9692142432873353,0.9647486781906668,0.9590980715794334,0.9520118710484465,0.9427896503496265,0.9289864855584311,0.9074553285071423,0.877499503857723,0.8393986016604333,0.7849495893316637,0.6618582385907041,0.22264809304619557,-0.6427293828300149,-0.904799714503605,-0.9523771850368258,-0.9673138825221335,-0.9760185872268313,-0.9824152415435414,-0.9865043332750805,-0.9882090791429976,-0.987918553429281,-0.9854551762660826,-0.9793036373721081,-0.9655746742159099,-0.9403512584685347,-0.9066625460421612,-0.8763162150707725,-0.8574491527305264,-0.8483600607265575,-0.8394227273300522,-0.8121603464083577,-0.6856193428732382,-0.09981550266302865,0.5468894810017616,0.7246866770888977,0.7763573916230534,0.7914351471848255,0.7876251027316592,0.7697724561331563,0.7442405529298732,0.7204086352275082,0.7083750959816438,0.7124367540118698,0.7279318101393183,0.7479484271657562,0.7727686375132554,0.8092516437721111,0.8605975641423077,0.9116482187481872,0.9398223876112005,0.9427467670940305,0.9320704138478534,0.9165515128013296,0.8991646766788032,0.8806256276354795,0.8648484606112754,0.8626578151578388,0.8806919169070243,0.89585124619008,0.8742757490432218,0.7840155967583814,0.5889517995230602,0.3085860741713863,0.1100837576612509,0.13504043627597526,0.33690901784690674,0.52179323811898,0.5937679894721487,0.5704693165687562,0.4781894279029913,0.3779535004954649,0.3951707218474475,0.5665641497671244,0.7529047480601387,0.8564527910660019,0.8967876347783146,0.9058428498387465,0.8986331623909036,0.8817455228722624,0.8586109764398879,0.8318163934689874,0.8045914049149923,0.7748623845406307,0.7198131775519164,0.5662858967610553,0.16055638204371303,-0.4019940106725568,-0.7096775695027037,-0.8367829974991758,-0.8993022347437484,-0.9362276410539887,-0.9607625336083304,-0.9781371686262147,-0.9834159588237558,-0.9611943142116123,-0.8942105782816442,-0.787878542091656,-0.6779607564683251,-0.5945770161796811,-0.5421817065353914,-0.5136865189204326,-0.49550882432944626,-0.468836328236107,-0.4088691021290758,-0.286924107365357,-0.08293539969257882,0.16846513934008933,0.39548812080943935,0.5641377727098873,0.6674818339591804,0.6994169411626334,0.6586896761515728,0.552719167824114,0.38222210943029167,0.1439233171503484,-0.14411209398198638,-0.41571958895689687,-0.5893907760823037,-0.6515410099296279,-0.6092380366562989,-0.4139057745414441,0.06404931728192205,0.5983480784862171,0.8352965833392785,0.9135265372997283,0.9424976206295776,0.9527969871715387,0.9545193020466729,0.9516170377839122,0.9449182621791903,0.9340872190276805,0.9168916087720019,0.8937322199305735,0.8640138228863978,0.8243225189897597,0.7608081560372403,0.6209601632099694,0.1588889432374604,-0.6488890672113685,-0.9046789319314802,-0.9570390678082847,-0.9692575199118438,-0.9680986888683579,-0.9591298229576877,-0.9382234950335058,-0.8940475464476029,-0.8075678760556205,-0.6412928760651103,-0.33805609855052754,0.04818942149280445,0.3360985003519421,0.48309924485796074,0.5373438739752167,0.5373752337507702,0.5105784575306914,0.48020771532367773,0.45601296773985395,0.43079678773263214,0.39257474408044135,0.3391594434036146,0.2972650751771777,0.3235164771974122,0.4277181286213213,0.5240422203600265,0.4957174370818443,0.1357748370048758,-0.548220405168163,-0.8266789163197034,-0.8991440174954685,-0.9226842491180378,-0.9300409639109553,-0.9293754763850199,-0.9228083330088708,-0.9091774020136,-0.8828270116295712,-0.8284573897890986,-0.7096758184513123,-0.46870612763902925,-0.10655354654232994,0.2478625311363772,0.5275161551875782,0.7099004235588294,0.7926961684958711,0.8146921079026278,0.77910606147875,0.6394043696324239,0.3417881791384284,0.035420540096768004,-0.12505099535689398,-0.1608415304637373,-0.12891723531939042,-0.09599045994862436,-0.10725814440529288,-0.1399119540811681,-0.14221383591614878,-0.05167639605000803,0.1878927315787449,0.5311735923479697,0.7926828730127063,0.9068430687822526,0.9471323315990728,0.9582253604186519,0.9517779939785167,0.9139313740220238,0.738293431456428,0.10171689969949431,-0.45059340634560013,-0.6207279335162885,-0.656719066420495,-0.6307200215889656,-0.5455564833258755,-0.3900575739039303,-0.17264495912965985,0.035882794113857065,0.15848440316787837,0.20456502611016295,0.2499201446934089,0.36122327922430275,0.5424425186995752,0.7116119597633165,0.8216765573412654,0.8777750587313627,0.8845588155803579,0.8430732499665008,0.7705164340709851,0.6934273657339003,0.6233110489902616,0.5405999938275862,0.39038336330039985,0.1283515656129263,-0.16779417182125378,-0.37806125514196515,-0.4950603218656126,-0.5427761571541887,-0.5320645128307114,-0.4314730313691689,-0.1955844221780521,0.09089657627999984,0.2736912640473769,0.37437216253049843,0.4601716948568887,0.5648604057665437,0.6744139870680236,0.7670830636815944,0.8273990322691556,0.8571573634860707,0.8643863216607046,0.8576113597046219,0.8374786805375117,0.7996025084712163,0.7297282841143358,0.5559017797746723,0.09910221594473417,-0.4361459670158939,-0.6459869211171708,-0.6524765021332599,-0.4576390695970766,0.1424401698364653,0.6815604294995365,0.8208752876449961,0.7730776519393676,0.03745681841739783,-0.8911531485814144,-0.9695830792577452,-0.9799997582540431,-0.9721628956973031,-0.9161069284323012,-0.5481541100755224,0.42205518557315674,0.7593264658568918,0.8233590417158124,0.7595874617077203,0.5295661390778259,0.30635669353530626,0.29598986616040773,0.4490874515539616,0.6436903551418471,0.7903219076363508,0.8741974770122205,0.9147147814730442,0.9306684177803345,0.9319678713232405,0.9198905948764603,0.8875965920116685,0.8135448561846608,0.6365934826923809,0.22295211234890386,-0.3457866592749367,-0.7082270434664008,-0.8716815769242088,-0.9415955111762725,-0.9713405491290291,-0.9832046808888967,-0.9860027030002263,-0.9807027836816709,-0.9635485059354592,-0.9381967620733661,-0.9200963962784741,-0.9169524509415722,-0.9258499951166264,-0.9421009700877834,-0.9599136148274287,-0.9737795481457694,-0.980998028453762,-0.9758103139505189,-0.8786600100760339,0.4260059043672966,0.8513736106694371,0.8987819531594937,0.9030082768763927,0.8918772702503877,0.8714930557075915,0.8448288364515183,0.8169879905200844,0.7943689752129429,0.779775477856571,0.7694372735566634,0.7606475628836402,0.7525044633633687,0.739860956444359,0.7199210226501468,0.694083067088891,0.6692479455839635,0.6518739741847343,0.6447151648870744,0.6464715102268133,0.6473709272562087,0.6450319644991833,0.6444761965206067,0.6432342676945402,0.5957841887095596,0.27570349647557635,-0.7283156104778752,-0.9380876260470675,-0.9505193270061452,-0.9492987070293905,-0.9449231214227763,-0.9357883143386481,-0.9200300038906694,-0.895479863506586,-0.8621018414768663,-0.8195370402572622,-0.7708508964839671,-0.7271022675215316,-0.6992093327658553,-0.6821029323380574,-0.6413968187574107,-0.5031590420118818,-0.26087691336212987,-0.11055601867976392,-0.11760901308049315,-0.22829340256631167,-0.33202532912413996,-0.18306338196353747,0.5609914575800031,0.8880990444403425,0.9471089677250568,0.9611325689775256,0.960863529241878,0.9559333318110864,0.9524414787704438,0.9519845872164007,0.9517057518090561,0.9446040593995448,0.9198331618951132,0.8585780501951825,0.7065297133602704,0.2970650497769502,-0.3780066188146813,-0.7497580237386342,-0.8743848139416022,-0.9223971003682736,-0.9447883287979926,-0.9530548663340721,-0.94303214261512,-0.8938067663620216,-0.7365156504338708,-0.2647019171446438,0.4739686021250039,0.8203539107175669,0.9163514626588062,0.9431548068770671,0.9512132163460136,0.9545180823577247,0.9530685788156742,0.9277324554499496,0.7932537287190016,0.2386427927345267,-0.4895891594603145,-0.7419537452838478,-0.8157871648134527,-0.8498723999495067,-0.8779196997117025,-0.9061771623465187,-0.9207363142193418,-0.9036219162846953,-0.8655885438291042,-0.8386675897140627,-0.8322329670744252,-0.8323484037535841,-0.82340773854181,-0.7860138420470659,-0.6730435164780614,-0.3729303312935203,0.1343353435489758,0.5052906269368073,0.6648734155264994,0.7198789328389482,0.7161154252695482,0.6510952563707086,0.46737022283746055,0.0350100476706006,-0.5357017069112794,-0.8357310038142169,-0.9337695944406055,-0.9598349492693207,-0.94614768346095,-0.8254358409363082,-0.06474023884160297,0.6866259547704896,0.830330144945042,0.8478620633513125,0.8238258358671751,0.7835588461950908,0.746617433153655,0.7316788248959453,0.7478664744355383,0.7846323153378264,0.8227559563297348
