-0.9045159752633353,-0.8721675251475413,-0.8127321422264595,-0.7328414379252997,-0.6574377148127885,-0.5957568238341088,-0.5539790434377512,-0.6004297273125431,-0.7561498860873253,-0.8799486123267123,-0.9346626536006675,-0.9538466836706184,-0.948754383063492,-0.8400557399555059,0.549883793485203,0.9384037604965884,0.9767789536888063,0.9870338698085991,0.9912879029139384,0.9935923876717976,0.9930861862760494,0.9875072666013465,0.9768025516124951,0.9638152773280516,0.9522841571828371,0.9462870443713945,0.9456889555589854,0.9354147261793719,0.8611564083381066,0.649890431138925,0.3237718787139693,-0.020302473368898823,-0.3753707396659844,-0.7215239274725477,-0.9105615964188916,-0.9664629532586881,-0.9780541175831265,-0.9798714793952548,-0.97949287959207,-0.9765318087192618,-0.9666422433483409,-0.9382479439094227,-0.8529552198791753,-0.5561505542030726,0.18778956068906041,0.6507468371298993,0.7517463942409135,0.698370373243154,0.4649331601252182,0.09957996378250171,-0.046451646035523875,0.11694699305678023,0.445710343266748,0.7064414648277929,0.8454831661292257,0.915990498364083,0.9470423362385841,0.9289993251073774,0.8421639636057981,0.7050691710464888,0.5732166375715407,0.4860946365179395,0.4600314243306632,0.48900677003523657,0.5353312563684195,0.5588774721791127,0.5501654125705983,0.5169129434492268,0.4693183786414717,0.42235292555079423,0.4090759273476796,0.4580179558014627,0.5523174385469201,0.636618190226416,0.6893391777715466,0.7201670987009253,0.7393384113308971,0.743995539326871,0.7258821488758825,0.6755553396993138,0.5630686714622553,0.31615730284524024,-0.1322696561197724,-0.5775028957818721,-0.8042266032608727,-0.8923061886859462,-0.9240420008154551,-0.9316324081091394,-0.9255404804384093,-0.9135362916062006,-0.9096418831750078,-0.9201728593929975,-0.9345128137541026,-0.9415857265187735,-0.9315790668471493,-0.8616962859821371,-0.4642282044870861,0.40506152629825676,0.749074465244837,0.8626520845186166,0.897405290342777,0.8265793584292984,0.6591908159008386,0.5240701174208128,0.4884917932634537,0.5476881878569377,0.6834408517437135,0.8370646625595373,0.9173753095047102,0.9169437831488089,0.8703936483924118,0.7746240113779604,0.5921112468271378,0.35470155919991675,0.28849398224048545,0.49331265723808343,0.7270332035170248,0.8561619879040765,0.9182702707138327,0.9492941343191973,0.9633259537791506,0.9660262098935071,0.9619451091531439,0.9536326102354907,0.940941935530151,0.9178148290386192,0.8636055373967246,0.5905347349461413,-0.8832473607885846,-0.9711378579002052,-0.9703191395111508,-0.9749237722157137,-0.9820422190841032,-0.98730994292583,-0.9895755316560845,-0.9891885707166554,-0.9860138478548574,-0.9785168064132244,-0.9620509559508502,-0.9222206135944404,-0.8054733726653833,-0.43050546439737736,0.20948951836612242,0.582369040525041,0.753878249786717,0.8659407500636458,0.9409371601766011,0.9629456333004874,0.9392081099041402,0.8951945578224504,0.8487296049509553,0.8054597435814117,0.7662783409831199,0.7299019221281328,0.6981146991838508,0.6723916310157,0.655717179061296,0.6470175870579663,0.6419362183641346,0.6380864064731322,0.6410745394043966,0.6640215225362184,0.7141616605898694,0.7827359909527282,0.8486784885219454,0.896574081590486,0.9250982905152925,0.938849860787615,0.9420089810380223,0.9367321175474536,0.9253060633920333,0.9141048180597792,0.9127532693200398,0.9235256826181836,0.9375836920448453,0.9422552327430437,0.8989485343786423,0.2017535686014615,-0.864937953231705,-0.9582483730191999,-0.9780325978097707,-0.9851966352567012,-0.9889912689476296,-0.9902306896925883,-0.9871980385287,-0.9752167588965004,-0.9374716542440578,-0.791359119305219,-0.14829574087883154,0.6317511991790474,0.8502402857054614,0.9071446825066964,0.9098565510782205,0.8378262853128379,0.416193341554475,-0.3332948097863125,-0.3867805190040147,0.11750896640954593,0.6268575333574596,0.8041959970115142,0.862167585348334,0.8804763507845687,0.8767815690352087,0.8467967716245713,0.7658347952642292,0.5438876474603347,-0.05422727111654876,-0.6784945839014859,-0.8761538199066169,-0.9194496842416956,-0.911107285478648,-0.8659417714681561,-0.7671286024298731,-0.5739009204177815,-0.22527799273993834,0.2585908230204239,0.5883889712144074,0.6188341712872734,0.22988355483727538,-0.5458983980004333,-0.8373080269355386,-0.9113436596884871,-0.9321448609350873,-0.9291894927610151,-0.9010534593375154,-0.8187952554815598,-0.5465028224802371,0.34155061971642553,0.8543894519905099,0.9300990986979739,0.9406323453253965,0.9393296755347643,0.9306931928305336,0.9092195314737531,0.857462702596027,0.7218930941407571,0.3748761920679249,-0.12828919303076866,-0.4007885644132397,-0.4524267367194436,-0.39061249394842446,-0.29250224076458825,-0.24140696748117332,-0.37242944287261376,-0.6769039266889317,-0.8739500557696261,-0.9419570813970155,-0.9636110269219447,-0.9691973992530533,-0.9653314574771964,-0.9524888446806152,-0.9322245697891776,-0.9110979546575495,-0.8953925739059225,-0.8795469147166406,-0.8419438013518851,-0.6970857205056675,0.1074360307524662,0.8770444732617975,0.9689158279691622,0.9841202973186834,0.9877274421380273,0.9892608745764067,0.9906962115336311,0.991104411518653,0.990018680687948,0.9880238551644265,0.9808681443228113,0.9628957421454486,0.9379106722230381,0.9150529908776942,0.8987894422793035,0.8859009823893402,0.868867910007564,0.8401906081022098,0.791585204024716,0.7075817958915822,0.5347617878712931,0.19141914759795567,-0.2539401228118837,-0.5810952493674563,-0.766538041395496,-0.8679375373470181,-0.9207061201387048,-0.9452151718785543,-0.9515888884046044,-0.9365012251550087,-0.8531617103259035,-0.4122306523219769,0.36260040894580503,0.6065153968832756,0.6290363922149782,0.5818301807557889,0.5242445124816674,0.5014551013376429,0.5301986419509027,0.5897149728064779,0.6518731755676012,0.7054639166115289,0.7476872525347927,0.7789354337555167,0.7990678662841949,0.8111297490856201,0.8260223173230088,0.8582823283013682,0.9033452246849466,0.9400089368266962,0.9584200597375447,0.9570876817056642,0.909329901178482,0.25687620171782094,-0.9081103050096246,-0.9778433778224922,-0.9869109902364422,-0.9861962003740585,-0.9806226087328193,-0.9689428494636194,-0.9491264886341455,-0.9225545575564742,-0.8909131845012613,-0.8424836401685123,-0.7494214771285752,-0.5590800407699358,-0.1588090120533379,0.44047899726788153,0.7933917825671544,0.9076363279291417,0.9470057359939027,0.9642871879639234,0.971549358658171,0.9706664534662495,0.9587862686283157,0.9260888778837009,0.8507271658960921,0.7239643681962549,0.6157472356673273,0.6080283084593442,0.6692767489994338,0.7335708327450043,0.7750094400920156,0.7949780592349157,0.7899785669594699,0.7373701337461374,0.5359186879164023,-0.07509880056354121,-0.6487627338045757,-0.8311565227064278,-0.8850443210562431,-0.8961373252028132,-0.8823592853373093,-0.844527755433555,-0.7833683292527711,-0.7226798428106714,-0.7060169867193198,-0.7384764887576168,-0.7766458361819935,-0.7910185803695958,-0.7706403672092853,-0.7043856634253373,-0.5815162442067795,-0.4481670169115487,-0.4323607193269571,-0.5460921873162238,-0.6564960127983714,-0.7112592359960291,-0.7112305522076771,-0.6451161854400279,-0.4888069023010868,-0.2556631974425931,-0.039011179017271636,0.07999217157044987,0.10357946188012514,0.0386104364247648,-0.0416687343851614,0.02964519610184912,0.4281741823821997,0.8399890138357174,0.9611140211697505,0.9656167041845238,0.8451842544459084,0.030998211512594017,-0.7160533607395958,-0.8731561474140161,-0.9219051184958461,-0.9429292601725296,-0.9521994961848471,-0.9500269002613378,-0.9114482872586369,-0.6450501181579824,0.13885293364979298,0.5135724001336782,0.5952493281719502,0.5849082786893866,0.54541984500155,0.5138905162742164,0.4919331485207439,0.4730306334818318,0.454309820893011,0.43329270670007186,0.40118204514337574,0.35464560459953537,0.3095699164190386,0.29160446934155787,0.32318100085807433,0.40501771102697015,0.5136020392042868,0.6114303136857742,0.6815755278898736,0.7254755286628918,0.7486998205374505,0.7466294208645083,0.7087899093350597,0.6338550496675465,0.5488938082203264,0.4820143855651634,0.44298777001134226,0.4335013901375196,0.44492000224342315,0.46415029782712824,0.47292907583941796,0.4552906954560452,0.39489499435604286,0.2813433777104778,0.15286149112074876,0.1426409702283128,0.4349131604406268,0.7268952026338309,0.8186975638609034,0.8197185653955552,0.7248301169903079,0.3822765000913794,-0.26526117874718713,-0.6447278111644905,-0.7587857707474288,-0.7567293315866197,-0.672841079116065,-0.5221796411533073,-0.33095101217995226,-0.1096443719780184,0.12196664085955593,0.3091010637036574,0.4033186371686056,0.39276537205617734,0.2684259530262184,0.07464912400449586,-0.08061899339758558,-0.11506581073278102,-0.010813492438192103,0.2070875682814402,0.4637599396160343,0.6737333646038627,0.8027104479094851,0.8675887783770831,0.897522752961839,0.9114025060677873,0.916981854367198,0.9139098120719267,0.8987989016117118,0.8700269143120649,0.8298837663810855,0.7793559207410384,0.6544679323517366,-0.3932340510678174,-0.9583690745106098,-0.9746789501249105,-0.9738737162860227,-0.96942090677886,-0.9605730910846256,-0.9428831447255785,-0.9112854106446995,-0.8752047046213174,-0.869019943188686,-0.897729969746155,-0.9286269758271833,-0.9467694000339191,-0.9537430376694883,-0.9519712950356145,-0.9402785408265015,-0.9097647865585836,-0.8367720731803991,-0.6740277422341341,-0.3484939852449383,0.12205540271680958,0.4762100502698237,0.6425992947912831,0.7084842985874032,0.7059933726110091,0.6178563766224411,0.3770240352151437,-0.031737715612291446,-0.3329551647313783,-0.25611159896339963,0.43839298396950666,0.8350141084183073,0.9215910845598427,0.9495336274125352,0.962337408244254,0.9698280609561529,0.9753018891307658,0.9791662116115541,0.9802390889033884,0.9753275922085647,0.960486776363922,0.9381797855546383,0.9155673081145493,0.888660210473107,0.8360049142778911,0.696206731257239,0.2278835755757323,-0.5555147590845214,-0.8364123542718687,-0.9048429658559933,-0.9316706901479344,-0.9497120461856189,-0.9619865859952885,-0.9687229751268793,-0.9701103233513377,-0.9641241962835393,-0.9445231605971013,-0.8892722465601236,-0.7187677660932652,-0.1499917859051421,0.6101169895442563,0.8702900407638328,0.9401264863294481,0.9569704116327422,0.9505561536630582,0.9232961406782602,0.8679281153417563,0.7830403153841139,0.6960568323457637,0.65782761338838,0.7105457921217737,0.8227764659482051,0.9103290114071054,0.954601852210506,0.9743699558650701,0.9836518850714162,0.9886265878831729,0.9916527527514006,0.9932660679933761,0.9931791589588241,0.9871108509971781,0.6487843351082423,-0.9728872717318026,-0.9900482280392527,-0.9919518693442411,-0.9900769062164563,-0.983118048528526,-0.9656178887984629,-0.9298837752541923,-0.8825214373317092,-0.8561927491942234,-0.8661133964595713,-0.8950894551582115,-0.9258313510775203,-0.9502206255135953,-0.9644426310821979,-0.9697290853545314,-0.967830700238486,-0.9561691437050186,-0.9159945149063058,-0.7564354726545598,-0.27812315414436506,0.1624133503072151,0.3371999251274772,0.4627939524711223,0.6102785062456838,0.7198917769481868,0.7726995161850241,0.7883806961336861,0.7884940348615994,0.7950012480291657,0.8256226943182434,0.8795773776540738,0.9319982139156877,0.9639246294716964,0.9784026882174852,0.9832141132556426,0.9827636768383946,0.9778490819081489,0.9684413717541542,0.9545483983577551,0.9333656350933749,0.8960132853249685,0.8067876356703463,0.5102005595094433,-0.3125069536967822,-0.8069374057702542,-0.9238678840722968,-0.9555171845268338,-0.9562710240109231,-0.8949982598745791,-0.39900725619006344,0.5001249709083163,0.7019023838583356,0.6866208420921425,0.5574800608241421,0.30706030319650435,-0.008244876962476104,-0.25853344647271687,-0.41454161343692436,-0.538158586220495,-0.6682348606881969,-0.7867944396352972,-0.8677749433260348,-0.913833425817402,-0.938082189245082,-0.9504308057615902,-0.9559645739592504,-0.9567587773152955,-0.9491053929948006,-0.9076794963725932,-0.8656536210958532,-0.8839941764588182,-0.904563987468454,-0.8999039822078161,-0.8308836276234479,-0.41965854453718876,0.5313775600847112,0.8052159946496513,0.8661649477209138,0.8873067304143992,0.8982572504208749,0.9074781545517525,0.9194913782924428,0.9367808640451581,0.9562929725953769,0.9712650435130699,0.9787067052175046,0.9772603010759475,0.9658082044035952,0.9429031213739529,0.9084382949485916,0.8673150799555385,0.8310271159636383,0.8114704529092606,0.8106785720268471,0.8166604787539914,0.8178150302566534,0.8093026394970019,0.7924023627620396,0.7714183586753695,0.7529826766370891,0.7420982594145449,0.7362777088513814,0.7268754903377908,0.7033418511893722,0.6510272539123498,0.5380749039311221,0.30878476846868974,-0.08833254647601294,-0.5453244366655352,-0.8111127440632511,-0.898548371478098,-0.9105744124987608,-0.8915475356746183,-0.8575969345927178,-0.812784077442943,-0.7468590497816208,-0.6313116029029097,-0.4183915408481089,-0.11658921282520045,0.10621194146853949,0.10185998925785637,-0.1579639683203499,-0.5189510198724903,-0.7458147637130668,-0.8483100862233494,-0.8934361557840704,-0.9132845012958644,-0.9195568260710283,-0.9166340928942509,-0.902700678264663,-0.8621071934423434,-0.7260583141778859,-0.1734603747926896,0.6672360559894058,0.8873435014601562,0.9226725507736349,0.9068752533529215,0.8384558563246395,0.6971760244355305,0.48718309709024854,0.2363167836697826,-0.055333035970822154,-0.3629711100736379,-0.6105304325774593,-0.7524063526250361,-0.8083345808795903,-0.8104925920140383,-0.7613704412761158,-0.657113589432992,-0.5552388855022405,-0.5389059372478253,-0.5671180243840358,-0.5815656465683549,-0.5706261156699503,-0.5584247605327592,-0.5851886928184701,-0.657809307929388,-0.7466684885947729,-0.7851851447210307,-0.7327419105539726,-0.6179778288658166,-0.47916587722174064,-0.3268781819348358,-0.16032554995462373,-0.00305338125868057,0.0979517799828046,0.1453435192574274,0.23004561471482432,0.4302371207928889,0.6656422425940436,0.809924091253157,0.8771397447443204,0.9151397178091298,0.943973939379515,0.9573745390285207,0.942544856162743,0.9004861880244359,0.8409263981474122,0.7633104382484928,0.6554008007720571,0.49202213887571705,0.25587182023066546,-0.03394033511136222,-0.3469553988323435,-0.598783438047531,-0.7369161523655118,-0.7947697533849618,-0.8080338118748558,-0.7976745718095523,-0.7720086928718419,-0.7397732785017324,-0.7082799381559934,-0.6779120201734554,-0.6337317315386581,-0.5439370362804289,-0.3790877177468058,-0.18522471262239412,-0.03183941882664089,0.07981867974882668,0.18164820225216424,0.3072901055060355,0.4824893026792124,0.6776148697239855,0.802633184141002,0.8452233869615146,0.8522237078311036,0.8472015208640603,0.8358214206676629,0.8180004721968044,0.7984871673807666,0.784134909449745,0.7788411683560359,0.7832522017634423,0.7995068848420602,0.8266494875279534,0.8535693320081638,0.8671959977670588,0.851426729408141,0.8110236608769285,0.7782844932268552,0.7669555486670904,0.7707041940852772,0.7760855748100091,0.7726303395240013,0.7541189713851268,0.7139059097211492,0.6402099142160205,0.5283388696050767,0.4090131370564087,0.32816256031106217,0.30121303554852685,0.315987478735268,0.3130877761979918,0.23696237112362772,0.07121001934423798,-0.1927789297575143,-0.5022708320441418,-0.7466863291531126,-0.8810924055826748,-0.9264481039296704,-0.8925139192034187,-0.7283991378473711,-0.30805493493844754,0.19063452208369674,0.4344995119081092,0.5163412174885038,0.5256732006119008,0.48147087072204514,0.36248655579694844,0.10450485344610463,-0.31053908273114206,-0.6562258496125005,-0.7668108063641926,-0.7189178660050086,-0.5269351143780888,-0.21368658735511512,0.02416425008656298,0.03400095075216195,-0.21171923441124155,-0.4678241383492341,-0.49334424924798115,-0.34485764440434785,-0.0907792788728076,0.15996410518211013,0.3002208406189049,0.2768989982586594,0.04978246791007631,-0.2482933112868808,-0.34346634572295887,-0.18928398527289017,0.011003458124002335,0.05350436263576474,-0.1621505435229108,-0.6556993911591212,-0.9153676171014695,-0.9652854820900695,-0.9764065423206517,-0.9802225616470682,-0.9815869398807318,-0.982144251532009,-0.9833221039590917,-0.9861819929344278,-0.989635088383129,-0.9920847672094372,-0.9924130084670364,-0.9894510291449676,-0.9794999989422005,-0.9269302464486201,-0.05887476140514588,0.8422977927285461,0.9223380052182838,0.9348907361167765,0.9237078782628769,0.8785865728263181,0.7532306598632174,0.5262642830971782,0.4708762970511918,0.7057637069968717,0.8623450992254443,0.9120645747753165,0.9264356696820701,0.927597578684351,0.9198193804866092,0.9042312964092399,0.8871510808847254,0.8813582027513084,0.9050949523481948,0.9525735732450686,0.9860308610825242,0.997074958819948,0.9989298496172694,0.9984766378917662,0.9971412932815876,0.9954062405754854,0.9936679336985894,0.9919716733464481,0.989689264712747,0.9849203552690469,0.969587927122913,0.8469979936302015,-0.8239951373329527,-0.9819106458618566,-0.9941095852941118,-0.9964430911950604,-0.9966286452172851,-0.9957612757139997,-0.9936045210737211,-0.9897110144100879,-0.9844721324381037,-0.9795542437376845,-0.9770615483104993,-0.9766124558749749,-0.9758993557358359,-0.9719180790867081,-0.9585104779785901,-0.9091021942214764,-0.6630525262708596,0.14432696615102927,0.6425684225884329,0.8020889169955828,0.8691987193735679,0.8960216659406436,0.8929294341789203,0.8602924112049576,0.7909021781685316,0.6718722721352645,0.4994265403881025,0.3075385190587929,0.15045351009255872,0.05857017701735329,0.05788657397299005,0.18376779139393795,0.40607566850452537,0.6170088969081216,0.7557143992515858,0.8314954622048394,0.8677977830890155,0.8802982322518798,0.8839957592373082,0.8991681918609229,0.9271280741630299,0.9455389890049558,0.9540236808909427,0.9581645704854648,0.9589617101532455,0.9547985846178125,0.942801194059258,0.9145168148744715,0.842620067442441,0.589639087541694,-0.31564311174935394,-0.8568555550186121,-0.953595772000599,-0.9757523703840868,-0.9802376192860413,-0.9751213544534179,-0.9530861047655564,-0.8623470407784495,-0.5634364421068093,-0.40232600319147177,-0.45001091359594786,-0.5207164283092648,-0.6013487473615453,-0.6911128073418944,-0.7719962814211843,-0.8275584306048096,-0.8543738065041793,-0.8468013539324655,-0.7729366011617376,-0.5143078829604173,0.04728716700629813,0.4973100095377573,0.6839284396520943,0.7589674992261546,0.7926067612955264,0.8097490456112724,0.8185558983780881,0.8222704568654754,0.8268088278204524,0.8364183151209238,0.8494286008783013,0.8576678559020438,0.8476030216002466,0.791758650035072,0.6067580431759847,0.14615309773310878,-0.2876953300040267,-0.35127842638139617,-0.034708109077162104,0.5166210328145665,0.7623700243029473,0.7731189367328261,0.605951068582912,0.12671173798464314,-0.4585517378363638,-0.7451167368671585,-0.8445477898333118,-0.8667664645171391,-0.8404453553780209,-0.7348152349896787,-0.4167536845769465,0.1436337937216537,0.4824444852003589,0.5173920465138045,0.18618680913050753,-0.558166161319187,-0.8509947876351008,-0.897375641596263,-0.8658644331636528,-0.7273848616226084,-0.31316140691181177,0.27570402381876163,0.5629399650367395,0.6134253630631223,0.5090789054724201,0.2816780251951452,0.03089551337869097,-0.1740078751654917,-0.29796211085220614,-0.3308769946386528,-0.2665891127176512,-0.08459947557093765,0.21133964164841137,0.5256103055549098,0.7425378978816494,0.8580912777587655,0.914385254679488,0.942181848708418,0.9559380369705607,0.9624825799118503,0.9616445355900849,0.9400504032784804,0.8624428234184364,0.7117753838578783,0.555260505372456,0.4517898598593489,0.352277356695808,0.11005615942714095,-0.41118408999900213,-0.8156549526938321,-0.9358077586168697,-0.9650663933933606,-0.9650997401505539,-0.903733598586993,0.11474090407378196,0.7371517033771734,0.7534246186028669,0.6356885770020829,0.30739187884924113,-0.2919658855265631,-0.732405514306601,-0.8898844566872324,-0.9397842111279763,-0.9539286263886088,-0.9487886460470427,-0.9250258051814498,-0.8936752028249555,-0.8882936389915058,-0.9156242979912899,-0.9482767681800497,-0.9691376786267065,-0.9789326983309912,-0.9816230576951304,-0.9794568065190564,-0.972818614981082,-0.961468415637532,-0.9447035897156841,-0.9232528717872788,-0.9013517219848254,-0.8793322875085893,-0.7624191011840593,-0.2707627000040894,0.2725281293683308,0.5913176685605082,0.7629132395524134,0.8506858701263663,0.8914679481907531,0.9035805025564647,0.8936678850325815,0.8637875798034627,0.8295522506110412,0.8340138273551859,0.8918482372075702,0.9427919658993436,0.9573306363294661,0.9530914512725168,0.9435723528304902,0.9316070169249134,0.9142888119633238,0.8854963073702318,0.8362316457004381,0.7596432870884929,0.6720280080833576,0.6132538091731897,0.6023225097769246,0.6241708653982333,0.6511403247391094,0.658179404937999,0.630426401849101,0.5735174878656119,0.5060169176081436,0.44516125647911214,0.4004621405096502,0.37427992326130477,0.35547749717420035,0.32741367083316486,0.2678332482944152,0.13254712283640543,-0.18779583353021229,-0.7212239114296467,-0.9476946588434796,-0.9574242891740047,-0.9289542766549175,-0.8653971443186635,-0.7497972539541259,-0.6054825708932013,-0.4700399847476715,-0.3536789305389452,-0.24784066932155752,-0.144431164927649,-0.05472243729421934,-0.02492721907258099,-0.13114934334340353,-0.4068587270499136,-0.665244380835348,-0.7843524330672784,-0.8284129625589036,-0.8257122499599421,-0.700945525793353,-0.2707623174699382,0.11178380132313429,0.22967287310713955,0.24442032821832038,0.23269347306959687,0.20271898829847676,0.12122295705146234,-0.031150503981543117,-0.20916562052366341,-0.3457689300888239,-0.43336282126855963,-0.48591427954381183,-0.5051331876797136,-0.47630142753863686,-0.35499313978029623,-0.12852433845102404,0.047592462237873445,0.005722242670624735,-0.27873511066968015,-0.627923228782674,-0.8152246878023917,-0.8739761910624003,-0.8566815290751281,-0.7236329539761197,-0.3517444494856112,0.009496058729077394,0.05259655011604225,-0.11335601823682731,-0.3196824760202074,-0.46341999290574254,-0.5349838543328544,-0.5566632482187395,-0.5430166547039104,-0.4985037403415213,-0.42977071936726696,-0.3525469331981742,-0.28700421012396266,-0.24529311810560475,-0.22951790476661565,-0.21923838801214282,-0.1737545419316007,-0.025429980412506843,0.27266761913179033,0.5879277599572189,0.7417183027874705,0.7689821226631425,0.689837641867481,0.24943120691862175,-0.8264693630566826,-0.948960864592127,-0.9177156334211083,-0.8870063565261204,-0.8647568458220392,-0.8466826764863197,-0.8255846609581107,-0.7905327103044104,-0.7155806995749725,-0.5158799712512413,-0.06621826118711578,0.3024954592062454,0.39772315397369945,0.39559681540624747,0.41048999008774345,0.507584589272846,0.6795546105635645,0.8321218005933735,0.9124410064945686,0.942331600930443,0.9470883210791797,0.9422823011287392,0.9399379218968261,0.9485053315962939,0.9667288950800939,0.9858350218123769,0.9975230180604241,0.9973747770087548,0.9855589816517587,0.958120013395021,0.8502733390757138,-0.30138011886272603,-0.9310038291215661,-0.9767518573959427,-0.9845602796544604,-0.9838581948653853,-0.9730202468838739,-0.9142004618834032,-0.453726291057311,0.29269464406144774,0.2859341141177393,0.11251269855543815,0.2585981864813107,0.6650297216544682,0.8717209981170947,0.9350878590225933,0.9547171966119394,0.9584919307830237,0.9507588209700737,0.923986486213169,0.8426096418191923,0.5158746656963542,-0.4127963739316687,-0.8414006504973716,-0.9356116015210524,-0.9646542744915529,-0.9747758898179932,-0.9756831067396782,-0.9684469501082761,-0.9460840525519834,-0.8867594080220245,-0.7780808756106615,-0.7131753860966069,-0.7576945857506368,-0.835119265456098,-0.8896285126912283,-0.91902137808685,-0.9311506230881782,-0.9204472816801017,-0.4156802446980793,0.9251787175673547,0.9470123473604547,0.9476133694183687,0.9463163800955425,0.9443737114873949,0.9421456951987492,0.9407731214468522,0.9417209000777274,0.9440157785720773,0.9455591776230967,0.9450799514800001,0.9428403538180367,0.9400222152331181,0.9364631298979713,0.9319213512086671,0.9251149449188281,0.9130265375675185,0.884953110834205,0.8325101939575447,0.7730941452086741,0.7307598261237003,0.7023582355368531,0.6770072290055186,0.6346634626716728,0.5328497400969103,0.3007961673821702,-0.06567217468906811,-0.37546428733437415,-0.489346402416198,-0.3537369595131454,0.1277664296198992,0.5543011662722443,0.7232091298433428,0.7752564518783933,0.7709659486553323,0.749009127115989,0.7621570591974717,0.8227492331889643,0.8808257326041763,0.9110575350059683,0.9198770456696308,0.9151945206269192,0.8958356847628374,0.8517025433665375,0.7351390260430183,0.3150327876102674,-0.5779146529120023,-0.8882474306493051,-0.9438631350145853,-0.9547736868999763,-0.9501442772324245,-0.9263804267814458,-0.8743611344298597,-0.7940484205298702,-0.6977986084930842,-0.6778112281713616,-0.801477156832716,-0.918778163779638,-0.9658205266206837,-0.9796149388392198,-0.9803672133425201,-0.970384369910362,-0.9430419745764694,-0.8917201649537221,-0.8225992127867712,-0.7501560055547295,-0.6746929744005972,-0.5814612589885559,-0.4693506042453026,-0.330621816214186,-0.10433806844966834,0.2819738602502568,0.6671624203470394,0.8560974565161305,0.9258126449323475,0.9522636187193285,0.9602589641266163,0.956003350103281,0.9399481783236538,0.9127362885815669,0.8843128911701686,0.8683509677241689,0.8586852435577474,0.8306611412884647,0.7336168597338213,0.3370902098186428,-0.5854225871210941,-0.8915611596751861,-0.9460455724030297,-0.9579718269900248,-0.9583294020132355,-0.9533907581202029,-0.9438980790994381,-0.9264314379979539,-0.8912904220747729,-0.824694537826789,-0.7372244073043903,-0.6713934683916237,-0.6293873663104098,-0.570533366091305,-0.4326257385554797,-0.13547604977844793,0.2058646206697712,0.36463069901473,0.3597055262832196,0.19375339596311197,-0.3195714990684433,-0.859823306071474,-0.9395548740366674,-0.9404065199533693,-0.9338143476496646,-0.9230650906459343,-0.9097357362806358,-0.9025705968424261,-0.9114432156641926,-0.9326002586763583,-0.9527506545764809,-0.9640143392140397,-0.9607373790456062,-0.9239521684964588,-0.7226632483151195,0.2853259458757241,0.8547883918174269,0.9525754079982215,0.9777236365576359,0.98474369112602,0.9847074421597665,0.9809152816285485,0.9743490790017401,0.9664221486360979,0.9594852325870037,0.955156244064471,0.9529656421317123,0.9507859293581141,0.9452743857481101,0.9302850435122949,0.8923400217365963,0.7917100197735527,0.495397546433132,-0.15932459364596419,-0.6466453534514889,-0.8104116036459992,-0.8539351300055915,-0.8433029656491032,-0.7574461751266222,-0.3798385327894586,0.5324006033410453,0.8499045456948913,0.8730124208899471,0.7176415686103008,-0.10783473929628666,-0.7853728624266144,-0.9195831629770789,-0.950660361440234,-0.9303465240481529,-0.6987161590074595,0.07150547356198414,0.2545783287433127,-0.24639780779566736,-0.7514463764717678,-0.879306896722182,-0.8932655987732078,-0.8376506225611837,-0.5535749636560529,0.27069613160866285,0.6949721576747802,0.8036362983455487,0.8512850907969487,0.9002994231196959,0.9465685536001336,0.9720532413693882,0.9790889722924404,0.9738441327284666,0.9466433357485842,0.8096837329118495,-0.012278173320993261,-0.7336848354316979,-0.866561800724161,-0.8920128978321409,-0.8764282550311141,-0.7854609623115663,-0.27740945993322214,0.6835165748548396,0.8728285291693142,0.8948296320948356,0.880234356811308,0.8433360174374225,0.7800493890359849,0.671262068433462,0.5394616295814548,0.5596897787061511,0.7276675283284606,0.8368024924407936,0.8803080710210672,0.9019751182921727,0.9233342388124881,0.9372221146680694,0.9093446427145417,0.6978110340459,-0.13867861694304026,-0.7040022899139002,-0.8474759746893228,-0.8886029690228177,-0.8884518030436722,-0.8548109307802588,-0.8349413148755406,-0.9177771023499312,-0.9769126557419511,-0.9889519872923569,-0.989787609965195,-0.9887934175931613,-0.9875749363628383,-0.9860216439719007,-0.9832170224910468,-0.9764109481843372,-0.9508073062710238,-0.7802937110363742,0.41297190779898796,0.8938617264962647,0.9629219251918375,0.9815741091320797,0.9868203856165962,0.9863165989486282,0.9826904815414924,0.9772219965142275,0.9706950498443992,0.9602460780901424,0.9313296206002717,0.8778931563915591,0.8391397262062075,0.8545792159605973,0.9022580718468897,0.9401927604877551,0.955159879991268,0.9589334900236797,0.9619775264989706,0.9656320567343448,0.964124297294694,0.9488336463127975,0.9086898769905081,0.8401703335380077,0.766238597023839,0.7249294250795899,0.7350601006560303,0.7894894140202178,0.8598595804783161,0.9128960039710957,0.9347561037455947,0.9329596576680571,0.9215313798867419,0.9191916548364015,0.8820507580599412,0.8283789150518645,0.8156225828408211,0.8174385836324704,0.8115446517980688,0.780131003307461,0.6739554820428801,0.25389297919258175,-0.6780550184438293,-0.9474012963702035,-0.9839987025386244,-0.9890453996017188,-0.9879151822874833,-0.984287443773387,-0.9774916772532802,-0.9648304521533413,-0.9454383819249633,-0.9261307190753403,-0.9159636479786241,-0.9159844905920286,-0.9225028831754097,-0.9314189877138438,-0.9388736568053133,-0.9423702892546428,-0.9396116834190921,-0.9244651473818928,-0.8702574914499506,-0.594470887739877,0.4505616296716308,0.8363721342188054,0.8929016642881642,0.8949538562388291,0.8823100150663226,0.8729425242477549,0.8752306373119656,0.8862586297662973,0.9010099283716095,0.9185726046761175,0.9366397623491697,0.9484382289004876,0.9421839516587406,0.911817863547861,0.866825505684585,0.8266375146610523,0.8012432823092862,0.7904136351746447,0.7876629587764497,0.7869918212653071,0.7873612523276808,0.7899823399674318,0.792158934478642,0.7895441832835458,0.7818068508670796,0.7724249936014169,0.7642106665787488,0.7537473072883324,0.7342476761053232,0.7091399370773083,0.6861022436294034,0.6701199890663787,0.6630722431956811,0.6731099975426466,0.7050347208218302,0.7366874918359679,0.7487256945312338,0.7527363285028363,0.764885682540261,0.7867638252155948,0.8115773475551785,0.8310273020236351,0.8416880013575946,0.8330365711089927,0.7693487920180999,0.5841138108697251,0.29704912149274854,0.0655945807036625,-0.04678764278868235,-0.06263381090649206,-0.006148965161723475,0.10490636267888183,0.23254396470624036,0.2840346695193198,0.1665471110178381,-0.030698852315748048,-0.17244720530859653,-0.23816638469609902,-0.24521350246287582,-0.22144308307640923,-0.1943699677637322,-0.1893584485352954,-0.20654881879979273,-0.22855424435219582,-0.23912645275712058,-0.23470842484956786,-0.21420191404335154,-0.17341077525279264,-0.11369215276531397,-0.04741778075233857,-0.0034933614487935626,0.006235404514164683,0.011234272070737725,0.04951578843160459,0.14517356450558594,0.28291692297652704,0.4317063151840889,0.5599805176111947,0.6558040341416597,0.712673887643372,0.723413104892166,0.6676324681845432,0.5104733695016487,0.22462498020657184,-0.12232841663917815,-0.4103018490723427,-0.5948586211491305,-0.6848426557757934,-0.6844139104392568,-0.5190732409524346,0.03954631588968737,0.6252774012234863,0.8104226135498083,0.8390496566241104,0.794084327372307,0.7037554995644291,0.6153830174900129,0.5317166821661649,0.34430020103702097,-0.06435673765748551,-0.48149299287941366,-0.6927725753282473,-0.7725574987917037,-0.783982528270844,-0.756738533740437,-0.7328600107602178,-0.7553946357172401,-0.8096449084899066,-0.8552702103669102,-0.8859759853992678,-0.9064238751172043,-0.9205253108156911,-0.9295281943512919,-0.9317681577865468,-0.9169883893239767,-0.7927576209520589,0.5106169917722876,0.9110347589306282,0.9411437893882453,0.9270561945258858,0.8354097154305015,0.296181317335357,-0.5922033327332115,-0.8055038515854145,-0.8186403044868538,-0.638368076577534,0.3278284819116164,0.8439504795247642,0.9152210133724886,0.9186684683934013,0.8981746080448134,0.868453933980557,0.8526690147216567,0.865150328235755,0.8936765289542854,0.9161454901289428,0.9226032243348616,0.9116663007569095,0.8779024470725181,0.7902571313155707,0.5500052991651961,0.11960581315782268,-0.20318578903866602,-0.34344114137605614,-0.40885728369617785,-0.4462761321997402,-0.4622617406602166,-0.4418556453018113,-0.3677787275177355,-0.24122907727469434,-0.11055290854652032,-0.04796155230364176,-0.1195281031895572,-0.23887374982515364,-0.2260792570080457,-0.13041480142759768,0.04270336068780642,0.31227015080893056,0.6248698355498931,0.8372725161064899,0.9281317162689319,0.9626531583585943,0.9773403476368896,0.9842395819014504,0.9876681957112542,0.9889761646510269,0.9886445192911058,0.986583497086517,0.9822777247900697,0.9750329958405692,0.9639295656045704,0.9462603347691575,0.9132094315679041,0.8281804197486609,0.4317551598688969,-0.7186160776702034,-0.9616195283498287,-0.9909047056775282,-0.9963537947814208,-0.9969621807832441,-0.9953616560234998,-0.9913274184939709,-0.9833241038651805,-0.9677770805431221,-0.9351971643334203,-0.8558713697870666,-0.6614112723308563,-0.3778386029259016,-0.29148834765518733,-0.49384103362294574,-0.7412116248695334,-0.869342336656778,-0.9216287389114262,-0.9425375923124816,-0.9479490920871197,-0.9331198703432653,-0.7454648681227118,0.7251325815943819,0.9071590205093697,0.9207074004482282,0.9094635696523066,0.8843990664149883,0.850580235093312,0.8212913999566809,0.8154269732223393,0.832705385951871,0.8493589076372934,0.852628323815464,0.8447342370270611,0.8394284637266252,0.8482886998799448,0.8706233615976867,0.8947084494921995,0.9130505093456617,0.9235113369845751,0.9266662473951272,0.9194422345319585,0.8860981569660483,0.6811368793346171,-0.771301123809057,-0.9685538701608477,-0.9777173494847804,-0.9746193963911779,-0.9634140210305672,-0.9325429219905189,-0.8296845025504717,-0.40039483854456814,0.4226163926696666,0.7557113478836225,0.8491415465205275,0.8805457033364149,0.8934227325971442,0.9009034474068081,0.9067890773060017,0.9125561539199251,0.9182613010071061,0.9223885065116334,0.9231811848222905,0.9190984725901609,0.908665108323464,0.8935705744726248,0.8808130087705116,0.877982627696016,0.886039975230892,0.8978924149772959,0.900560313223528,0.7908875541357634,-0.3219608344585931,-0.7803232510294121,-0.8653830312461951,-0.9016705419860322,-0.9297910475134763,-0.9572778698562517,-0.9769274109998587,-0.9867583780081141,-0.9909730952030708,-0.9923606240861884,-0.9907986605594188,-0.9826872539482161,-0.9525051317881721,-0.8461665275642178,-0.72137997913675,-0.6722800193572293,-0.6019765949924631,-0.4366257400017498,-0.1865185611809998,-0.02432690644356607,-0.12248602110050408,-0.42509334209288374,-0.6442321963711184,-0.7049166018887913,-0.6519237497323555,-0.4628257168285893,-0.07792089319902341,0.3839782380564168,0.677048296184663,0.8057521323949443,0.847732556342967,0.8268826993965608,0.6949403237976974,0.37286938723222085,0.17315869978280918,0.3381335779819896,0.5980377756709048,0.7361697795278409,0.778790908527123,0.7551282757336091,0.6634261285344707,0.5165351580153692,0.40921810943771997,0.4042602803975687,0.4696456444887348,0.5536849874909525,0.6230182423070006,0.6572757443118343,0.6189793069901921,0.36514589528991725,-0.3671320543189028,-0.777385387928126,-0.8521371430695311,-0.8373281871497192,-0.7541187514900729,-0.5532350008709437,-0.222641263713288,0.06695968471061034,0.19957663922697225,0.21496457167736463,0.19549386284330267,0.21195203550925149,0.2532746971355835,0.27222973623676533,0.2239778238582527,0.07417267457796214,-0.21619553115940482,-0.57207312538925,-0.8000557370067282,-0.8796820294698557,-0.8614109605722332,-0.7343617376040663,-0.534790926579601,-0.4103306985956941,-0.42505574922121087,-0.5342458046065882,-0.6583689406521734,-0.7390296029268222,-0.7649416916253069,-0.7397565210704447,-0.6374581810428701,-0.3864402253848516,-0.050531717706471864,0.1255582983026062,0.13664788416536083,0.06883001351241326,-0.016758413560365084,-0.0774092029776015,-0.10692234155986251,-0.1358503879506447,-0.19167269746925414,-0.2743425353373343,-0.3582765211794735,-0.4136183468638358,-0.41332450760027006,-0.3255243111569025,-0.10953604859669087,0.24530404126327343,0.5789613521296625,0.75472564122026,0.8199667552612118,0.8302486379260611,0.813725250116274,0.7856774975631855,0.7589280822600372,0.7339560754497162,0.7057201830371678,0.6789779960572774,0.6465011101109948,0.5818432839232502,0.46005755324788844,0.25396767167720297,-0.05279690581200857,-0.38125095340466897,-0.6049202251228655,-0.7191528394844457,-0.7671879989008822,-0.786738512616489,-0.8235765218928379,-0.8873514794860738,-0.93340252863784,-0.9468034091249358,-0.9310505039989134,-0.88128921007582,-0.7818060681253908,-0.6001177363034932,-0.35789257371106753,-0.3149615163123526,-0.6546246691450008,-0.8502393165572494,-0.8909312756895755,-0.8923841551094532,-0.8441549550707811,-0.6046835438770795,0.0003330966142423375,0.4262080465575734,0.5939324932404209,0.6726846717202234,0.7180255275471085,0.7487138369746339,0.7765490516285758,0.8012943872623524,0.8095809241886017,0.8013237884064539,0.7806018233649176,0.7489557397907054,0.7078161336046835,0.66265563792513,0.6226817998984597,0.5829241046536607,0.5397587561916402,0.495862775563077,0.43508075091074383,0.3264940457276008,0.1760655984125652,0.024856109781561334,-0.0790059785723749,-0.06225523768981638,0.15525511043907766,0.5129492986875025,0.7604253464153075,0.8611055829473787,0.901497065970737,0.9258397327190616,0.9451958590194685,0.9581514684862568,0.9605712381007765,0.946905389252048,0.9057902199867669,0.80178546805959,0.5111051362025167,-0.08724666433774328,-0.5351130200423746,-0.7030693607018027,-0.7598041621428042,-0.7543686363399192,-0.6235740251922942,-0.32854371963552825,-0.10456708374616364,-0.022631635087383216,-0.0314278685037226,-0.09502779656128164,-0.21110799269924813,-0.3958777232549778,-0.6060512891900758,-0.7609280639794191,-0.8456041374186458,-0.8845252796736462,-0.8992666277487149,-0.8995094853846484,-0.8842008668449806,-0.8406405472012757,-0.73430653070089,-0.5026761144286088,-0.1374751140445752,0.18590193831730867,0.3658550768180441,0.46231104543970813,0.5403729964754471,0.633453495995541,0.7165212606699018,0.7090463661630395,0.6332942417851025,0.5597381807510932,0.48888142911749205,0.3929676875449053,0.21997675423881347,-0.11399056498228631,-0.5204610607733071,-0.7069480278929718,-0.6118362001311244,-0.20924250483944853,0.32768069274010525,0.6660282269959641,0.8231941760693516,0.8962013222375076,0.9307057305357072,0.9451599665639032,0.9463445858488713,0.9346751554016912,0.9032248139798467,0.8359872567363208,0.7008568229628309,0.45067439084381733,0.07742859347301166,-0.314306863176431,-0.5981352634405004,-0.7658637368332805,-0.8599304305911462,-0.902273087151735,-0.9182939117005688,-0.9415930108065531,-0.9650583921887997,-0.9783237043586065,-0.9835655658393733,-0.9841422338506614,-0.9810915397771831,-0.9723318258435726,-0.9449307144765535,-0.784528799792684,0.6074680146352459,0.9346985333567354,0.9473208580341752,0.9425574771199644,0.9460218385313395,0.952907429683066,0.9538651507058106,0.948778942644339,0.9410573974332089,0.9342530970929053,0.9297554973463142,0.9277367294417902,0.9275821558496254,0.9283235435381013,0.9273635940459325,0.9207796899292674,0.9018169486084848,0.8548945670616619,0.7426628749660649,0.46697351682378246,-0.03943591096544018,-0.4660376290665082,-0.6732111319819464,-0.7778081423245686,-0.8328433215024442,-0.8295418372845105,-0.7680428001242324,-0.7483340399668506,-0.8049937089696793,-0.8552111117993629,-0.8586995848643202,-0.8059726593210429,-0.7090694491427268,-0.6493469341064344,-0.7005371788359157,-0.8040023583004511,-0.8796774527340911,-0.9189625873268572,-0.9374668579127924,-0.9435091550261206,-0.9355170350850106,-0.8860082411103897,-0.5365945835546659,0.6318279190974369,0.9003906758988367,0.9482149774795304,0.9619436749378081,0.9656898187341789,0.9644835770431838,0.9585155136196258,0.9458868172361593,0.9225758727252279,0.8794305593132573,0.7881026787269614,0.5440911701069711,-0.061144088201986496,-0.6220009965467327,-0.8246493543607114,-0.8957208221300256,-0.9304647562654259,-0.9528218662212332,-0.9665128789934919,-0.9709611889826102,-0.9693175200615278,-0.9637394867345629,-0.9517048414692219,-0.9183915796364679,-0.7792434636684836,0.07496357844347153,0.841838359307029,0.9426299013430237,0.9593470710270541,0.9586194076179865,0.9468291435055388,0.9271019900117107,0.9135392607828374,0.9156387095959158,0.9298425161818722,0.945908021213456,0.9574338858759548,0.9641746450861821,0.9665553895410839,0.9614616806768059,0.9356779869017255,0.7945514343962875,-0.1696902092319413,-0.7824128803330772,-0.8533950797893766,-0.8209715799979423,-0.6972169353140334,-0.43451442458541184,-0.038409123986114506,0.3487220083661073,0.6113457761176229,0.7684999967430363,0.852324458286427,0.8916914364504105,0.9008043500534909,0.8704083127635299,0.7887662488770526,0.6552391719073749,0.4671198851147922,0.20604072628188977,-0.09921032463444283,-0.3470349736357543,-0.4539268829525852,-0.3672979651313386,-0.03794370112087897,0.30448479627440694,0.433054446535679,0.40872700378728716,0.30324691832292017,0.2202348607208393,0.21898311789152475,0.2811049347659576,0.36785082144243714,0.4587281432738614,0.5373181283287142,0.5983281356608959,0.6450712159411206,0.6843571160238628,0.721406428593023,0.7551379585950758,0.7757502177408436,0.7520934413043978,0.5284409671745602,-0.51594849404508,-0.9076985920453257,-0.9536494756588206,-0.9649849441460099,-0.9681261358051989,-0.9652257133384166,-0.9558770772315861,-0.940516076403187,-0.9172920935874473,-0.8769690157280623,-0.8005584981736823,-0.6677943391885219,-0.5066636724573652,-0.4166974573617992,-0.42929791508105497,-0.4334486507158046,-0.27458323250957295,0.129671355795196,0.4985728206221689,0.5919619793547577,0.39279193007497887,-0.16883000738216877,-0.5543183281055973,-0.6292014165943418,-0.5323030161458367,-0.2474562576165079,0.14973339425050478,0.41239223710788114,0.5047623079984882,0.5155119438324347,0.5242373590727427,0.5884554894357596,0.7179385776286689,0.8518782784491125,0.9298964954268027,0.9609625910961296,0.9700555448635305,0.9699991489180149,0.9648606626457144,0.9557757803856656,0.9446341208303577,0.9387026979118133,0.9475953805235752,0.9662735880341901,0.9807424189902406,0.9861356841563739,0.9820613364640097,0.961041074948235,0.8820648362828354,0.4924963814239822,-0.5299648143872536,-0.8903911659430238,-0.9648646464387967,-0.9843218131939514,-0.989902797137592,-0.9915312401103472,-0.9914179963340437,-0.9894658409040671,-0.9846788440343217,-0.9750288098868971,-0.9576880518888303,-0.9347448961528061,-0.9225997546590282,-0.9287392937927322,-0.9407867030639971,-0.949447306502669,-0.9514130551463261,-0.9404917822388094,-0.8670583238445151,0.24904332381762231,0.93540517942485,0.9699709002074484,0.9662160937878944,0.9357455757210087,0.8167337727855132,0.30835678093591407,-0.4464942013349669,-0.7211765545573116,-0.7989919464630404,-0.8127620695448772,-0.7786645811676907,-0.6317223215088534,-0.11820581700862985,0.6025218382696766,0.8673975436653538,0.9376822046269094,0.9598409396960881,0.9676173086614758,0.970209879604652,0.9704902859635678,0.969297384896397,0.966966450484861,0.9641031489667988,0.960779260886883,0.9560591598289895,0.9467722778199009,0.928664177946686,0.8971708036791397,0.8432698942093958,0.7437653719661003,0.5300679148612928,0.06251700293303196,-0.5218640231688092,-0.7932443731492393,-0.8621484494373131,-0.8663694810904496,-0.8591237058550194,-0.8628532852371544,-0.8724902644766932,-0.8750944217927008,-0.8558222191729368,-0.7776376849296575,-0.46639023844688393,0.31820076290294885,0.7446572576978999,0.8595358620116738,0.9059406994972,0.9375464863613152,0.9613425099435405,0.9755162325568767,0.974591965810567,0.9499977889575972,0.9003122712759988,0.8458445861069456,0.8190442935918482,0.8102052457166837,0.8140797353176272,0.8322445011115484,0.7971286663269953,0.5334683344608351,0.028192910296672674,-0.31500644005711237,-0.47049227504280716,-0.5284890168767263,-0.5087803898314097,-0.3708515155607157,-0.09662403076572339,0.08659413235190706,0.1071009545665589,0.015670762312260247,-0.159884662405051,-0.36491854337752855,-0.5210122044915495,-0.6045526152863681,-0.6368360088709529,-0.6327892503696976,-0.5884818313767874,-0.49154713550282375,-0.35913627752036353,-0.2272564045405793,-0.08584026143199314,0.1407304195787116,0.47384654495710515,0.7369108429421206,0.8578791681716691,0.9065777162794784,0.9246077696284613,0.9252207167988404,0.9072396888894737,0.8735880469409837,0.8350353115896928,0.7956351412389985,0.7475988784654628,0.6699555110973272,0.49671960278716004,0.021871125174274406,-0.6784304986081486,-0.9355893585224976,-0.9832982342942239,-0.9776503561793761,-0.9529188496707008,-0.9328881374291396,-0.9265845767186875,-0.925630426790444,-0.921469162526918,-0.9108957848023368,-0.8975913010198027,-0.8888709690776683,-0.8909671356376002,-0.9049181429782308,-0.9253944958245202,-0.9440299279442008,-0.9545440160301534,-0.9547626380066824,-0.9440074520679608,-0.9194816308628498,-0.8675317936331716,-0.7473499451614795,-0.5008199421522497,-0.16216438665589297,0.1402998812604449,0.3656515820127139,0.5302346004014383,0.6462977496753894,0.7229924994434721,0.7727610148029368,0.8139742865290206,0.8571799025814382,0.8903686113763133,0.9066117464889228,0.9173026062978865,0.9340336685676361,0.9541441744529735,0.9580158840770194,0.9394960566829508,0.9233440274284245,0.91304882829106,0.901263028161799,0.8899541068725111,0.8831603316036567,0.8814955597574042,0.8796871550117977,0.869111542827503,0.8391953953193405,0.7709859184812752,0.613119393663721,0.2258540926229463,-0.3819151483975434,-0.7236681317269931,-0.8320776348802008,-0.8538915832364519,-0.8168523221449664,-0.6674068871503585,-0.365018056694904,-0.12328605895075606,-0.05096620747581522,-0.06995939679565438,-0.13260496372417935,-0.247924578846458,-0.42806660503702365,-0.616095530101426,-0.7251486153516222,-0.7192789452802542,-0.4922846997503664,0.26611370341856916,0.7572522147162999,0.845717489272421,0.8078490912114995,0.540114959082528,-0.3368732296743133,-0.795422195463859,-0.8874289201153154,-0.8944746422676922,-0.8392434863860703,-0.6388470845371533,-0.25736812570741774,0.04709936529323874,0.22621541837143677,0.38036622453394214,0.5437930253337288,0.7003174916888749,0.8225634045971655,0.8937809255170889,0.9234770912968011,0.9371408881547102,0.9424805191635715,0.9284089160479068,0.883270918700638,0.8273444800924495,0.7920482122669079,0.783392380047175,0.7843045955320603,0.7679763272285106,0.690839337114741,0.443206440480838,-0.06431301010460556,-0.4487563530005848,-0.5677834647425393,-0.5245081895800292,-0.3377928085935198,-0.06626998190597712,0.11844544774264733,0.13456519704026032,0.017437819214624926,-0.13621373408483495,-0.26434261308154333,-0.3839535869219894,-0.5223178809513973,-0.6645800308239443,-0.774210106805759,-0.8391636598367337,-0.8764864009787463,-0.8985981844469484,-0.9080389650678845,-0.9018225477699234,-0.8778827092835615,-0.8389866517297218,-0.7649187725974476,-0.47459860224633826,0.370515423519464,0.7916998837266017,0.8906121008687817,0.9155675355659629,0.9120623697194407,0.881461675067601,0.801293596528285,0.6199271080358771,0.31877509524652414,0.07074211885944423,0.08994872853034311,0.44174785348295065,0.7713890269908764,0.8790401516906671,0.8967492485312683,0.8645257495462862,0.7336640810656114,0.35391962216683326,-0.16576529651529412,-0.46514312466298713,-0.6179749435666004,-0.740259201316522,-0.848434881771289,-0.9035794877031279,-0.901163653694511,-0.8639361561763804,-0.7908210702780373,-0.6286348541834246,-0.2756310634008892,-0.05594774597997471,-0.563353380833739,-0.8907117353182422,-0.9554959568705736,-0.9711332402839535,-0.9713694310691915,-0.9512515829171484,-0.7968606726326248,0.40109004347751825,0.8480883584880731,0.9022925758338454,0.9014344217644088,0.8716290189866395,0.8044760101542371,0.6859649535003923,0.5502477528369676,0.4973156155895513,0.5753489127144447,0.7094826141824211,0.8123086675382686,0.8562558746830301,0.8511765862368055,0.7880676875777116,0.5803940332279925,-0.03417862332096548,-0.6875016410865998,-0.8953140873154202,-0.952339526848583,-0.9727784549280081,-0.9825259680400935,-0.988443164914743,-0.9918345052853796,-0.9909545440161289,-0.9794054889385507,-0.9305667360164618,-0.7001365092205728,0.1841870071426406,0.7821609416015803,0.9193188979895945,0.955580074872279,0.96413643412421,0.9640889473319926,0.9646913539071265,0.9670094254106262,0.9597968002128573,0.8813685083524175,-0.3359630874385934,-0.9141080414548408,-0.9561810774807525,-0.9581128068908544,-0.937595658176434,-0.880047074108078,-0.7791759610448191,-0.686168492578932,-0.645862666914374,-0.6158665212097314,-0.5022521131256583,-0.21191820684484025,0.15128005346383902,0.37410718576510565,0.4871152439705742,0.5746851483665283,0.6693935588450096,0.7635558170115774,0.8346184044544731,0.8740385596021503,0.890493873907133,0.901007375920837,0.9199426823486342,0.9465326902701637,0.9683044376353797,0.9806085390381779,0.9855635812876206,0.9849407771259404,0.9785932310124399,0.9650685432921287,0.9438726572394893,0.9169475640722564,0.8874644960825208,0.8564381936010955,0.8222423131240827,0.7736726209018896,0.6702014160453621,0.35862240003082085,-0.44633504839277865,-0.8482780349193264,-0.8936632617769299,-0.8815213816366041,-0.8554337159821631,-0.813193246567602,-0.7331886763248882,-0.5708913437575767,-0.2959051390533847,-0.002816207615914358,0.18861632799963965,0.29156315804169997,0.4073852893617007,0.6103737941308912,0.8083120075784616,0.9054370016259841,0.93590615707871,0.9375473486202694,0.9201556837404036,0.8697942641480723,0.6724690401925272,-0.367503887495997,-0.9213821925003868,-0.9776555286239154,-0.9857517002509296,-0.9828285321087256,-0.9708176797194118,-0.9492041640563924,-0.9254441300313635,-0.9067358217438161,-0.8877057745610316,-0.8771448181846512,-0.8915623486913812,-0.9212039692234457,-0.9480482088309609,-0.9658834480067028,-0.9773568628467955,-0.9851439031452541,-0.9908683780991466,-0.9936657431963892,-0.9837277820307746,-0.847740369928496,0.1776352273260963,0.6594006024500886,0.7012854936076592,0.5821363662650761,0.20887544748230738,-0.3304167333722285,-0.5516156818942559,-0.40560864257733525,0.19642951231092495,0.7269478081035949,0.9039812678661389,0.9572886115117613,0.9692572104906562,0.9609418624745409,0.9354223755215724,0.8893995777276152,0.8207670357843523,0.7387614362746409,0.6811953382059724,0.6988358994405623,0.7745253474040023,0.8464076034213716,0.8813313405721985,0.8710885731510106,0.7137286007148735,-0.4920183083335605,-0.9341073560945893,-0.9756415598691304,-0.9794587494502566,-0.9576167520956654,-0.810445080663723,0.09383122681060195,0.7529643480657671,0.8871201785450684,0.9286166316946077,0.9440278968989462,0.9476748535739565,0.9426127384942679,0.927232427119708,0.8954724640577103,0.8337531896701934,0.6988708478051069,0.3114920687089636,-0.5624851651672709,-0.8631111323819448,-0.8606104118715244,-0.838397903162874,-0.8398139606838994,-0.8463122553787493,-0.8255126660496535,-0.7106533024361906,-0.2208382061077693,0.5397825654300966,0.7699033475213772,0.7875086375499457,0.6861268767370989,0.3591160898253883,-0.2702461226246357,-0.6814484933890553,-0.7986731241894458,-0.7604320678892725,-0.5220031845579064,-0.10767112612337537,0.1316796853687586,0.13382512881167483,-0.0013585017502888914,-0.19108728358816526,-0.3586371833286835,-0.472047387672254,-0.540822698599513,-0.583372928551438,-0.589741829167801,-0.5160847547913933,-0.30588691144422836,-0.018626864345730916,0.1624552113751901,0.20811350991074448,0.1817134250082574,0.15380799247244034,0.1659046869725322,0.2182775934220528,0.2784345702921562,0.29951512766375815,0.24683430676340345,0.0979212338458733,-0.13016539417485154,-0.3548744840657201,-0.4948297073817552,-0.5638511179404045,-0.6043684016225537,-0.6354040070171554,-0.6600931702160264,-0.6808493228013844,-0.7075409732848945,-0.7360411698723682,-0.7338513596503164,-0.6775499239358965,-0.5699822256589397,-0.4110391883436364,-0.22252600678700638,-0.07452145319211807,-0.035602314699216035,-0.13077611585044938,-0.32213742536876544,-0.5016299935972152,-0.5891433289185184,-0.5684023949441482,-0.4095906867581087,-0.06267775783838762,0.347647989242234,0.5994344335287203,0.7113210227444491,0.767231982219917,0.8131859130039757,0.8621003438445617,0.9018058371874079,0.9103796805916559,0.841984528791508,0.5927269376983698,0.2586080581322906,0.11576506446826568,0.09011795522897255,-0.05115808629987032,-0.4234372865678444,-0.7493676310250115,-0.8821041635355796,-0.9275140154116531,-0.9417895653559338,-0.9397343333044251,-0.9207911618013587,-0.8736249727879074,-0.7720123114240173,-0.5755986224880695,-0.30967794381206076,-0.12460933468253314,-0.09260953754365818,-0.15240478184945797,-0.2364435154548413,-0.3142318997951347,-0.3718642116138232,-0.3988168838111436,-0.3648196169950322,-0.20660123001698139,0.10453399019242375,0.40441995625292815,0.5829866542837819,0.6721008504518514,0.712819669361637,0.7271011132004085,0.7240922140766504,0.706634359475794,0.6762485809420189,0.6443132056955843,0.6255697373400053,0.6302766291562586,0.6565926163993172,0.6500309030723651,0.5423307723684261,0.40539702726240384,0.3064928640070096,0.2575890838156165,0.2863793972950532,0.41967385022876175,0.6177643511209809,0.7638073029183189,0.8111419644090123,0.7957503083493882,0.7497159821611585,0.6812637673847555,0.5792773006303475,0.41253584752556854,0.12484565201979853,-0.2598416484828677,-0.5595178095307833,-0.7210125529015798,-0.8033045609808317,-0.8426574176284104,-0.8498971973012882,-0.8171427252862302,-0.6881033375203198,-0.25903954869716894,0.45886328031679746,0.7801825804354195,0.8724915014978837,0.9075670480839253,0.9289906027279141,0.9469780022837738,0.96235410241883,0.9712297828707626,0.9721666618513086,0.9686670177874841,0.9634944030097785,0.9574899350066622,0.9479415750361171,0.9250761899511895,0.8362766757930555,0.09624647840021931,-0.8651115048153994,-0.9563354609123492,-0.9662412678390999,-0.9598920494127104,-0.9485948596524291,-0.9402496336452595,-0.932415591935977,-0.91487335479877,-0.8689631228488728,-0.7251348579566392,-0.2062961213190461,0.4983753206321499,0.7455955600237474,0.7993366509214064,0.7510934888854603,0.4175810699438988,-0.5873965341839715,-0.9150567982637287,-0.9676075013853584,-0.9796857410028186,-0.9800418242770222,-0.96863751487408,-0.919085060290779,-0.6090384872328674,0.2675280243424068,0.14432183991653746,-0.4984257883484053,-0.8143659405880241,-0.9085691188774625,-0.9394172497651152,-0.9484449196430836,-0.9449437259350251,-0.9294438321406974,-0.9070576988010034,-0.8984872378523537,-0.9126490035130255,-0.9284413658116707,-0.9290942103977969,-0.8859101482303001,-0.3783432709835508,0.8504188051721552,0.943232343760914,0.9403779641142948,0.8953443112922959,0.7898572850538698,0.6869585893725506,0.7160611772328078,0.8098473061672721,0.8749379030324438,0.9056485301519073,0.9164041001541511,0.9151528742459948,0.905464578188304,0.8890619955427611,0.867412738017342,0.8403172190160482,0.8072878306767101,0.7738082738744357,0.7519453009311815,0.7459703601958728,0.7547130609202045,0.7781988457986956,0.8155632570015119,0.8587793038335728,0.8931206498104678,0.9042285341084731,0.8829167116167984,0.8281769632140987,0.7670153194576598,0.7547728915876666,0.8044179772482177,0.8732592615655098,0.9232265033295498,0.943770824548618,0.9266047717092115,0.8110572798504041,0.194395411364409,-0.5373789190446436,-0.6079460189174883,-0.48190163995733803,-0.44357869100339886,-0.5877673345932626,-0.7409654098389405,-0.8247053603774573,-0.8593944952769903,-0.8654041318736156,-0.841814198950452,-0.7565257857515195,-0.4618900517937049,0.3136561450561201,0.7994368399860952,0.9080969326002601,0.9255308454535297,0.913761656957621,0.8814400212812493,0.8286362725546533,0.7670599741168717,0.7083157491353651,0.6427986327564342,0.5360343922719417,0.3436180487317785,0.05268638118841952,-0.2674769412372842,-0.5374021652484178,-0.7268179239915771,-0.8477752314092268,-0.9186495814609017,-0.9518371812711321,-0.9544018804373011,-0.9211477485240269,-0.8089735128574183,-0.5757621194534555,-0.40095453172880163,-0.40562501076366053,-0.4697157393606984,-0.47719220692997705,-0.324818956274601,0.2463133610029096,0.8538230584716091,0.954307795218664,0.9413973793434758,0.8928039656415764,0.7802021354181317,0.4597516272920321,-0.2612298181453749,-0.7546281827864717,-0.9104177753062598,-0.9628866305682859,-0.9804099280451603,-0.984010910883101,-0.9837373852329413,-0.9829945791358821,-0.9821970166143776,-0.9814569166002355,-0.9808265856818897,-0.9801398020677822,-0.9785811874926492,-0.9742179843716569,-0.960512300830485,-0.8840778848263627,0.36056750478298344,0.9237500856653632,0.9558515050273202,0.9567999888149002,0.9501855323716801,0.9452121374134769,0.9510332085796135,0.9642911464349613,0.9759634077025477,0.9830874569319142,0.9862630954024928,0.9854061214959143,0.978113530931336,0.959837014832331,0.9228719167837727,0.850896637252501,0.6987352447835633,0.382372251647357,0.12848446221274096,0.19918395681021536,0.3330065232981922,0.2930538600277622,-0.057097644844629133,-0.5781668424218903,-0.8272106082153049,-0.9018795883579019,-0.9095951599595538,-0.8027936504914847,0.24307366921912235,0.8899680463972844,0.9554630184449076,0.9644298165958524,0.9545091863797497,0.9219341660448501,0.8379780369696677,0.6250389806956488,0.1883812122603103,-0.29524093009023505,-0.5835557253519852,-0.7315377735575334,-0.8223716103244014,-0.8923255969412962,-0.9470060371651797,-0.9808032335559103,-0.9820236273496308,-0.9364713078823853,-0.847851298389259,-0.7572718157424603,-0.71689523947716,-0.7369142609878442,-0.7895223595200674,-0.8422240412959584,-0.8750993404381775,-0.8796424510875152,-0.8226429127993264,-0.316867590436273,0.8008894302820663,0.9402221039609406,0.948757105269498,0.9249793769411365,0.8933183205341424,0.8790221067771661,0.8893056045612117,0.9099074846031414,0.9254787950827831,0.9325541473915071,0.9333194339319153,0.9298802194499274,0.9249219847809127,0.9210685163067703,0.9186942536828434,0.912798451938361,0.9000529856067284,0.8849782497218477,0.8777315731657003,0.8833899891828996,0.8957249644975046,0.9059941000636953,0.9085996333756928,0.9046408068252879,0.8962892295869244,0.8768364145492009,0.8142494117610523,0.5761956754124374,-0.11123552331859736,-0.6508295812359639,-0.8249076755744938,-0.8825658796850441,-0.8972375179167936,-0.8755868736870813,-0.7799047409837401,-0.47850809858715065,0.14654552426873982,0.6229519269741244,0.7862338272806833,0.814939812595048,0.7953692259700312,0.7470824187593048,0.6611922714558134,0.5327912173341378,0.37846202794094747,0.22798850810867488,0.12585442534686767,0.08527929841518354,0.06581156047341881,0.03575922505299833,-0.0044474826815664925,-0.048352385229143265,-0.09466518104749837,-0.14350629570476925,-0.17882494723887946,-0.1601678056367764,-0.04478188158241612,0.1570157190629255,0.3559914777185957,0.46537957798107116,0.4748301664007394,0.37785323674684285,0.13507786744287803,-0.22441102852890857,-0.5234398975240233,-0.6906664888449576,-0.7715592149677679,-0.7996164677487678,-0.7932904640997871,-0.769426070215173,-0.7507441937024902,-0.7508747050492812,-0.7636622887134187,-0.7725095257644753,-0.7551042596512153,-0.6877572466165146,-0.5468405750480463,-0.3224887564526914,-0.05251559657278897,0.18866117799980675,0.3499684405236124,0.4425512582210205,0.4817632516782072,0.45344674243941796,0.36758656980285626,0.31900832908935617,0.33923929607383624,0.4207927620635741,0.5467760920449999,0.6436289590239753,0.6971284932139725,0.7406868032092584,0.7773549588603542,0.7831729534473748,0.7318655420533192,0.6132918112501314,0.4347837215410622,0.20065252894662888,-0.054647829953625715,-0.2818221783413693,-0.46560649772603996,-0.6162012249657028,-0.7327212352201813,-0.8142025586746973,-0.8622238286342804,-0.873115735708713,-0.830411543576842,-0.6961046811951805,-0.4188519605370321,0.016080536087451584,0.4536512255988326,0.6787987925206007,0.7231176212056281,0.6651866521887316,0.5039313226681403,0.17827261132752456,-0.28610583175285653,-0.6540170019962079,-0.8363183870725452,-0.9101816250506121,-0.9384704687329856,-0.9483665283594764,-0.9498583939755335,-0.9462067982889579,-0.9368990727581661,-0.8987976787076133,-0.48053402394158695,0.5242133392260353,0.6325474185817647,0.4729994359942393,0.12590399852177153,-0.21382151254402215,-0.40561500274778506,-0.48846417777610796,-0.49230469776033564,-0.38244086712076847,-0.018970531611408218,0.5414472930913805,0.8096242247279787,0.8888568650594892,0.9162406994154887,0.9301273336574771,0.9410873586470697,0.9501724581572695,0.953652058702691,0.9480479282147695,0.932289502210431,0.9076039447417231,0.8747480718494326,0.8275124219923125,0.7557077344553258,0.618378133678006,0.3014987590069806,-0.24684746497940782,-0.6622462473385677,-0.8184253893459869,-0.8394013485106226,-0.5973557247682436,0.632126876928966,0.9144242164479431,0.950785107680241,0.9564429397283156,0.9549859222360245,0.9521999490405656,0.9495634352663167,0.9427632739335151,0.906442911038686,0.7376935757714485,0.3626540443951652,0.10650528612494951,-0.021810568282749895,-0.2499947666017821,-0.5663489626759827,-0.7837732220318372,-0.8830591200566569,-0.9267179180304067,-0.9484585741110287,-0.9613534749557132,-0.9702165166929646,-0.9756909528059542,-0.9762360737142869,-0.9644363102460661,-0.8829667744258016,-0.2172786462692282,0.23462486710837713,-0.3658768025612029,-0.8011305145359855,-0.8874840005174329,-0.8788995331051069,-0.7853856098320177,-0.49673430238146704,0.0060775472238604475,0.36435273551981884,0.5068653842268984,0.5342161705149363,0.5033355212074393,0.46713107041461,0.4629705449712351,0.49269001727700107,0.5366794199430006,0.5782299814232443,0.624020029045606,0.6981606556327328,0.8118601482001953,0.9162515660512286,0.9675328366994261,0.9816395737998428,0.9797024243385014,0.9724355094781367,0.9638829927478049,0.9557667284138179,0.9477616879499574,0.9345201596494418,0.8961888217056205,0.7342967653578955,0.06423013224932456,-0.5525304194071294,-0.6751851167431844,-0.5967190422806743,-0.3376440338062103,-0.004109455954923888,0.1895280603732304,0.21511292293432888,0.14429411178478802,0.04380050217982514,-0.03208674262447135,-0.045864217738882884,0.03726345988434578,0.22858924802756872,0.4443940502301634,0.5579019248886357,0.4653191388223409,-0.18040157551783995,-0.8035309441968208,-0.9263489091408317,-0.933780597401762,-0.7913626508949826,0.15462915998710614,0.7879779255602701,0.9216177387304296,0.9681401825344996,0.987040410358755,0.9915858972543469,0.9868691735476531,0.9718556794402913,0.9187596547135795,0.37924069650513115,-0.858776544592033,-0.9654337023579281,-0.9828201425543409,-0.9871335583190505,-0.9856167614962729,-0.9770198995334215,-0.9584212065988317,-0.9303849196237516,-0.8951077860158719,-0.8465602422097622,-0.7567943673027928,-0.5298769879444193,0.05035176114815779,0.6476828431810099,0.8446216746721591,0.8812680164960861,0.8437643977768255,0.6847835835934721,0.34265940666254285,0.19038670303499464,0.5312770050699344,0.8625735211821145,0.9528077270386381,0.973150851981258,0.9767120912963226,0.9741387883767492,0.9673694570892932,0.9553282331068412,0.9334497599332272,0.8889045099756945,0.7815607141602673,0.4663896548746918,-0.22751959014987644,-0.7020152672091603,-0.8608740224874029,-0.9203611990392309,-0.948859784734874,-0.9645520615243476,-0.9659371586891227,-0.9481502430137991,-0.9253658192592175,-0.910349131188605,-0.9034655334085274,-0.9028005692907426,-0.9074883937509802,-0.9163839326896632,-0.927203854825242,-0.9373689845669432,-0.9448206993916339,-0.9481726399462495,-0.9464194919994904,-0.9385459961794367,-0.9227537325719631,-0.8935862698382873,-0.8248938925937792,-0.5596199050048953,0.4314474932546537,0.874554415378042,0.9397654499029872,0.9499806277470192,0.9455589827418313,0.9328786636117072,0.9170806473596643,0.903584133226222,0.8945169168974243,0.892446473714067,0.9004110849626042,0.9161826682022676,0.9327720972985183,0.9449158721255709,0.9511994782686729,0.9523242613002961,0.9493303166439353,0.9422601048042044,0.9293306740027444,0.9067204041037767,0.8662983795048482,0.7872354122467007,0.6098491321017705,0.19976596251371623,-0.39048194392741276,-0.7332075513914444,-0.8474411432606972,-0.8622747532977796,-0.7863178041761568,-0.3555300795266817,0.6474675377447552,0.9172614882539666,0.9653146704220095,0.976488718766738,0.9766393909459304,0.9676970293150344,0.934882926734015,0.7780188002841617,-0.07303595546105435,-0.7515083967102418,-0.8896529486757095,-0.9308226645107217,-0.9462918996063129,-0.9490578937427139,-0.9379190099656572,-0.8922872577851952,-0.7468035990261944,-0.4838679008066358,-0.30079909500629315,-0.26402348687343336,-0.27908337926177196,-0.26428528835580195,-0.12072352309729745,0.2980423295287412,0.7551951197955521,0.9223685642099978,0.9662946753960789,0.9793882266545652,0.9836716617357425,0.984954663874045,0.9845772539320374,0.9811697798613672,0.9697280262709643,0.9329766543342732,0.8091673561043037,0.5190165317713059,0.19811455993659594,0.014417642901444679,-0.0485127654955389,-0.062138183415956914,-0.2755941977063722,-0.7448125749614386,-0.9143322580743433,-0.9592485375339692,-0.9761856394315801,-0.9840534641977532,-0.9879158898062244,-0.9893842899534949,-0.98841237160391,-0.9820479064015801,-0.9566437123619363,-0.8591748785490525,-0.5845926604665286,-0.2304312173615215,0.013062359668151268,0.22900384413888597,0.4941889968014491,0.6947746664446447,0.792508284700433,0.8443345526330367,0.8832389248827175,0.9153328781204305,0.9395906799479199,0.9547650381558108,0.964569607529911,0.9726865320265109,0.9765484886752174,0.9727344674519388,0.965629387978762,0.9591034550827459,0.9530766263614014,0.9434770966609946,0.9253159297610833,0.8928638748999538,0.8294496338335114,0.6852407285710779,0.36290499444801333,-0.1385801880842931,-0.5439187967541018,-0.7436406637199645,-0.8294511483966749,-0.8701326675079782,-0.8920783507402064,-0.9053278137880814,-0.9167230056936143,-0.9301675020888981,-0.9440735681410429,-0.9546937310029213,-0.9597061387701007,-0.9589225795698739,-0.9513009176540703,-0.9331521357070947,-0.8852732591714103,-0.6931032487566717,0.20595223975928928,0.8200980481764383,0.9269277905516702,0.9550246738903101,0.9652824357846923,0.9676319562694677,0.9646422490003677,0.9562097342694135,0.9383122116275414,0.9055770711998822,0.8683237310072207,0.8506396411534911,0.8617293402830885,0.8913106361249645,0.9248380781038483,0.9526977020640683,0.9681143628407686,0.9706864894420741,0.9599228643965633,0.9389374343762524,0.9144006890108664,0.89363813921917,0.875955209897551,0.8465475300150288,0.7889206517837194,0.7110298942250836,0.6315797834681465,0.5692611935119857,0.5495303749957796,0.5993762519026293,0.7039613091823714,0.7843766652604616,0.7312758093725851,0.08499238739499627,-0.7307727076743026,-0.8898367790443967,-0.9238000426246621,-0.9237047163456519,-0.9009536401822644,-0.8543388557077842,-0.7892211076484236,-0.7335323863956321,-0.7191952804730462,-0.7461037928449825,-0.7859804515098379,-0.8117599077720866,-0.8131949347095803,-0.8006701577476855,-0.7948920020747771,-0.7990016994757133,-0.7800764061214263,-0.6246882354786373,0.3437488906187035,0.9258627975256158,0.9825342641702386,0.9921880211899063,0.9947288388807072,0.9961640941735588,0.9968851746372757,0.994488921704435,0.9826988910218145,0.9374445755275844,0.7520491140290366,0.17061604739141573,-0.4064712989047234,-0.6192262754413527,-0.6696721589718749,-0.6892282061290864,-0.7590643668421297,-0.8428391518083455,-0.8890645149376983,-0.8977999769433692,-0.8713951445703682,-0.7999831844193124,-0.6879314299900492,-0.5774918538422098,-0.5175434082997599,-0.5093546496394497,-0.5084504823074096,-0.44917139095714415,-0.26712840749564853,0.04347635095854378,0.3283022090012974,0.48624632178938076,0.5555660253539427,0.6046900137697672,0.6770955317016478,0.7676667801424186,0.8477346569598745,0.8968242443176944,0.9142386801090686,0.8904167649975179,0.7408735387974613,0.2503460089340722,-0.24515698144848225,-0.41127494040723234,-0.357638085074361,0.0458697229334127,0.7755815273754266,0.9515299994676777,0.9627273355518079,0.95874126769339,0.9528986633996586,0.9456454296283056,0.935251632103384,0.9194995474090306,0.8937585707216654,0.8479173298340458,0.7643051218725743,0.6076773736921064,0.3206697450875054,-0.07338734322876687,-0.4071855450077213,-0.6110970107184996,-0.7421438302036975,-0.8437659057125578,-0.9169392052844881,-0.9545547771633404,-0.9665742472360432,-0.9649942677294725,-0.9563957600668715,-0.9454579973026367,-0.9276545240053427,-0.9017645371812257,-0.8753142184103962,-0.8417171679662362,-0.7804601200355189,-0.6369012484374686,-0.2657148445881846,0.3634490415711443,0.7496442108295027,0.8854327501917881,0.9380508955422318,0.9654153255305192,0.9838188352060925,0.992197503084999,0.9780082668675418,0.9353337487650476,0.889800813090564,0.8750584375477697,0.8874616598168462,0.9040587034235494,0.9114352024903856,0.9064269265544271,0.8887094643409541,0.8582992729185357,0.8158181657423565,0.7595756052065488,0.6829112877753852,0.5816324010349093,0.48054596108804337,0.4349850760422037,0.4941940792124854,0.6457834139283621,0.7901093793664453,0.8646556793197478,0.8628411936875395,0.6212733722512306,-0.6075946823774351,-0.914030015279443,-0.9561393519569623,-0.9651118821541804,-0.9636740467791495,-0.9584370197538421,-0.9574657684099384,-0.9670820114069365,-0.9804268167385048,-0.9886954836171296,-0.9918474658595402,-0.9907992619930918,-0.9850939404354359,-0.976650370442653,-0.9723208475428837,-0.9760874770486389,-0.9847953767413921,-0.9935095103590498,-0.9969250831893948,-0.9793016716010932,-0.8461790966622139,-0.15669144469151414,0.5707316645065983,0.790749921584317,0.8595033181751887,0.8761752953467401,0.8545404651880124,0.7768972879735945,0.6214204291604982,0.45505373971821433,0.4017757825995733,0.4291222481294761,0.3995162963573009,0.06282149620540091,-0.5629447452504122,-0.8039842652139745,-0.8822647446161956,-0.9243538372058808,-0.9505057919388001,-0.9652239582048944,-0.971257084599558,-0.968226548070647,-0.940128867931272,-0.6450283161082756,0.7737389901905183,0.9466622171049548,0.9730103819128816,0.981309065726651,0.9851255783887384,0.9886545522925331,0.992643387118251,0.9953282871211656,0.995823992264636,0.9937761299201064,0.9874986362024518,0.971461888537019,0.9385868754025009,0.9072134600724826,0.8910680955148901,0.8509771015540276,0.7115014036345894,0.21455389259458296,-0.4183518652078555,-0.5885139888663634,-0.5298016608489186,-0.37656270382374896,-0.30077957261058624,-0.4602384535040564,-0.7357101669491948,-0.8923868731264641,-0.9477109519725879,-0.9658916614908908,-0.9689486996214172,-0.9568948337124963,-0.8956785519547199,-0.5237399923121466,0.4071779752016702,0.7428066337662597,0.8320544177643027,0.8700605998970241,0.8976699499800644,0.9253442303673255,0.9489866463618319,0.9636143349116904,0.971658596021121,0.9796149216477583,0.9889857759276394,0.9960043076228845,0.9988982558243962,0.9988389706472396,0.9977756698481216,0.9967402294522623,0.995715039574314,0.994170231386892,0.990806246899701,0.9820345438748336,0.9514245241942466,0.7875865511446719,-0.22720191040862509,-0.8030640069977725,-0.8863417917994091,-0.9020092920789213,-0.9071190718909335,-0.9122952332290158,-0.9174369898113407,-0.9203627321029175,-0.9297502083850128,-0.9548655928934479,-0.9750860591617039,-0.9811050497215161,-0.9789864787678533,-0.9699571817538726,-0.9473894599669854,-0.8844867877634159,-0.6873974814466014,-0.20859880033252984,0.2449466029774768,0.4206672483719834,0.43522081722697875,0.36239798521164734,0.22619422218311974,0.04004438026116879,-0.1431814926056286,-0.29048945462601505,-0.4081691749223551,-0.4995844875349434,-0.5658067766816844,-0.6199451263281125,-0.6819978968210825,-0.7673733060056073,-0.8585548618359772,-0.924231561181908,-0.9595576954048076,-0.9758060641938232,-0.9820638789259624,-0.9823398862046425,-0.9792951266997614,-0.9751106699573195,-0.9715520051487939,-0.9688506710691036,-0.9651232841360785,-0.9577245206393407,-0.944402184971452,-0.9248380379727851,-0.901100887517591,-0.8680570101197347,-0.811756887856556,-0.7082329166575204,-0.5240037656548517,-0.23073693320055488,0.12574045035970666,0.4241755770151512,0.6080538434495701,0.7043779174666287,0.7526760074097767,0.7752225807799039,0.7804279593910486,0.7712374258805315,0.7471641394819677,0.7132907996048592,0.6807209577756507,0.6586377533012914,0.6475722577906756,0.6373072144034649,0.6047326231857828,0.5341658779547773,0.42938161829597493,0.3258665777817684,0.26166591701005987,0.24950847938699808,0.2792453293959616,0.4210435640999083,0.6902244105855373,0.8799025129034866,0.9506147261946086,0.9719812616491611,0.9765659629120648,0.9739198371927741,0.9677313813267189,0.9611106584018172,0.9576369584053093,0.9574565163890456,0.9574737834427742,0.9539141767819722,0.9422734472250371,0.9083289558931024,0.7911698516380498,0.33987346600308804,-0.3904473737292439,-0.7540728680198148,-0.9178320962462017,-0.9568352059184654,-0.9553165142978388,-0.952003644110669,-0.9485600801445376,-0.9438482130934328,-0.9377196105773119,-0.9309251203344255,-0.9239867479351648,-0.914693496222533,-0.8944192885252378,-0.8376145714754301,-0.6308274773781115,0.12032709743063862,0.7449192764624246,0.8884020716924601,0.9192076238799715,0.9084825525259169,0.8434519194448156,0.6369522384480841,0.28903184409207355,0.23935195349035268,0.527599071340493,0.7305547795984974,0.7802730106618438,0.7623056458918097,0.7096882637033073,0.6589597178401954,0.6664664421984945,0.7364365790837908,0.8108880192146034,0.8533226218949359,0.8833237369862513,0.9055929208631944,0.9162878348475548,0.9112125011628402,0.8766293964886857,0.7319239778851819,-0.0066822469058922624,-0.7384999325714716,-0.8602085900469297,-0.8467254343721821,-0.7306390210444025,-0.45847337620685885,-0.13803300247917621,0.04940328353250055,0.11824159524292263,0.15631845085135782,0.24229755314669552,0.4168844783055932,0.6191262159698937,0.7491449152925416,0.8042733207546638,0.8208045629995759,0.8244411986385096,0.8262246264031076,0.823055108141141,0.8081716238166512,0.7848734946768504,0.7671179026899982,0.7676286572068153,0.7858197846254455,0.7994880104395761,0.787785411651529,0.740376483142872,0.6379513848683219,0.4239573596383679,0.019732774996509075,-0.4466458043927423,-0.7135416404237495,-0.810269341447247,-0.7898500733099326,-0.6528659513037417,-0.448800248712096,-0.26670633885932293,-0.1295222435456286,-0.010047835841390155,0.13160581630748835,0.34722351057927486,0.6250793068533056,0.8198175299534837,0.8927311687957475,0.8919616714834606,0.7867205034195144,0.3931035820160676,-0.2748903316464113,-0.6525451829284865,-0.806763448864876,-0.8766874810636903,-0.9053539758039033,-0.9014911676793238,-0.8648409048492184,-0.7731548216715866,-0.5249140454728785,-0.005278913436455856,0.49337854982326473,0.7786290033977723,0.9103283700220784,0.9577476375779236,0.9620591579045173,0.9388189181868284,0.8789636433335571,0.7452660296537167,0.4904208102296424,0.1777478641695912,-0.04100303090335214,-0.15612807250079477,-0.2447180599952808,-0.3642248802437275,-0.5183176775871421,-0.6595343909923829,-0.7648452805880547,-0.8445362233263641,-0.9000054271194936,-0.9312582442644519,-0.9466131870363594,-0.9528682450955113,-0.9474784015976422,-0.9212733792411606,-0.8610361315263538,-0.7436509893808324,-0.5325172363314417,-0.2231312857555161,0.0912058633221952,0.32970495722717585,0.5079178269182387,0.6506563902841905,0.7546134127170795,0.8219462577381189,0.862325712158428,0.8828674690403211,0.8898987708908747,0.8855575655336638,0.870903651593365,0.8493409416381729,0.8292163363248998,0.8172292965043053,0.8117921076384053,0.8090095151971821,0.8038609192861277,0.7844034231881706,0.7338220576038146,0.6297511629480823,0.39302951530973756,-0.11294852745289576,-0.6165876359723017,-0.8166721687352132,-0.8796482093023522,-0.9039821168224342,-0.9161302712277429,-0.9200085569718806,-0.9146833938382258,-0.8975611079248821,-0.8596409570920518,-0.7669377717829952,-0.5919791312772786,-0.4647862681950285,-0.43759192354854337,-0.42986258792361826,-0.38652239946252276,-0.26225629053576094,0.04134706744971669,0.4886068498282364,0.7780739038402985,0.8852351492798893,0.9136418492087821,0.886526284795742,0.5884567897498576,-0.6235047970186075,-0.8915732748211533,-0.9363298697471893,-0.946297184183548,-0.9371878973193671,-0.8789741481363349,-0.48585605763983747,0.6013529460698718,0.8766689985178171,0.9341477572353264,0.9547348517005606,0.9629342610255953,0.9640493182873711,0.9599255999041982,0.9525631940556997,0.93892169813343,-0.9244399619447142,-0.9272579624973237,-0.9118254767083324,-0.8715654113409849,-0.7440834437245439,-0.3117563584780941,0.2388412353904713,0.2568623852808666,-0.2483650012968112,-0.7327021394083522,-0.8872003628241609,-0.9307194982406012,-0.9375802490288977,-0.9104442077611143,-0.8052721745827977,-0.6590574173122399,-0.7000327081677358,-0.8167325276132691,-0.8886860872426062,-0.9250452753254955,-0.9407620576229997,-0.9414189352248723,-0.9131788961245492,-0.769839366865768,-0.10219742037973825,0.6271378284356477,0.8319491151733223,0.8967438530077662,0.9223960416578572,0.9330397330516371,0.9369995980633582,0.9380138459376419,0.9382645121422771,0.938476318352191,0.9366661774538707,0.9304528480140374,0.9154919090669722,0.8839348964944506,0.8173715059114297,0.6680310314460784,0.3062356085956492,-0.324874549638935,-0.745580774204215,-0.8967509933587765,-0.951735987899691,-0.9752420492287196,-0.9867397805745344,-0.9928062673754303,-0.9954385823352577,-0.9940186920515602,-0.9784598163073841,-0.5791988717903336,0.924999990381277,0.9756411640103301,0.9811049420372107,0.9762200026158931,0.9596546159577309,0.9318626809371724,0.9186466869261029,0.9413895577855331,0.971045294733794,0.9864129294439773,0.9912993879074807,0.9911941754377448,0.9878617349886206,0.9797193578652803,0.9561333089480889,0.8309098881109102,-0.2507603509806209,-0.8654274281233897,-0.9407114267451661,-0.9581726494679935,-0.9548997696076802,-0.9091836912282507,-0.5403844806817626,0.5127844578618881,0.7471653567613044,0.680550769251548,0.12530708647392233,-0.6980808678489628,-0.8965695750594637,-0.9419124081998371,-0.9555374055557326,-0.9586470582095005,-0.9560387403137074,-0.9528207079132534,-0.9507938102647121,-0.9486401970568008,-0.9464958558377866,-0.9482768004298475,-0.9538187549207077,-0.9592578686119602,-0.9616937815004598,-0.9608024405268915,-0.9554647448118355,-0.9412149669493701,-0.8917706472725138,-0.5178049035537272,0.6979059989337,0.8709061206147102,0.8753259434602491
