-0.01589177774548328,-0.08235084145364291,-0.1960449717681586,-0.32316941933386656,-0.42666216752902725,-0.47388032395739565,-0.4480189241122237,-0.35251585063040597,-0.22334507234110026,-0.13526423642651364,-0.1554305561715032,-0.2668349862912465,-0.3796936977803869,-0.42402561292581376,-0.38960492834763044,-0.2935567834465361,-0.16781234370731377,-0.03737420055469058,0.07125840833323005,0.12421934690854235,0.13257565159242973,0.14451244006948946,0.19986387381316806,0.32962711242148973,0.5345445998887427,0.7466437696012105,0.8824942805958633,0.9427064355715216,0.9637921440089784,0.9641405489437455,0.9333222633620185,0.6938794942683508,-0.44671319355567024,-0.8065779250569877,-0.8574128131162656,-0.855330570537807,-0.8526794188350745,-0.8826934154917879,-0.9295982812123958,-0.9627863919594243,-0.9800529626484576,-0.9885309457878082,-0.9927825758979291,-0.9946026087579866,-0.9927871784258466,-0.9801624138864008,-0.9401021911783393,-0.8416632135075794,-0.6249916395700285,-0.2279086538210485,0.21404214047383635,0.5120127012442449,0.6887744365631077,0.8063392919055251,0.8872354414101832,0.9326269701819433,0.9505970578599939,0.9509803610252902,0.93912096317139,0.9167604383964916,0.8898587690975488,0.8748723470532453,0.8895913735556944,0.9197016238680946,0.9430370137969301,0.9508269653041195,0.9417792511428048,0.9162117679670383,0.8757266001490528,0.7935801586252158,0.49894309462850556,-0.3315054390328722,-0.8029093440167878,-0.9213514149655718,-0.9557949129954809,-0.9633563103775482,-0.9559738287560695,-0.9279306537361789,-0.8365613440847256,-0.43085687053126825,0.4594806791634359,0.7701788188507116,0.8222817516932254,0.8014872807073188,0.7402314168999746,0.665763991674844,0.6328502580645062,0.680998655425966,0.7716867666514505,0.843833144226214,0.8837580258482618,0.9011441717528332,0.9012164152197709,0.8889016672122858,0.881276923295223,0.8932144234309491,0.9204919302724855,0.9507254156888896,0.9694322601734126,0.9386311240738395,0.779193647743317,0.42778673908447346,-0.009875765363409537,-0.3226975387478965,-0.509268574246976,-0.6332231035291003,-0.7266474263721553,-0.7961104625652432,-0.8393869164837419,-0.8619019017658873,-0.8713218822221956,-0.8698952205899094,-0.854265701373469,-0.815732176328722,-0.7305802286227774,-0.5327178423478179,-0.14893811553569558,0.2802705120436719,0.5414386982670122,0.6748258305720887,0.7550444152503016,0.8089174949287,0.8427696197116592,0.8615881644301432,0.8619928671888633,0.8224604065025887,0.5585879224371466,-0.6403386678423705,-0.9296042158545058,-0.961980788892997,-0.9687536354611768,-0.9684143742082296,-0.9617101095592823,-0.9453640671503216,-0.9113009017830944,-0.84196152112036,-0.664680271858833,-0.20275129291762928,0.3486559367843392,0.6032990068920736,0.6406615530032425,0.4908864327538195,0.091341150768994,-0.26118324204488863,-0.11331818215607047,0.7233467271154866,0.9460554283975119,0.9732403471478253,0.9790054281232901,0.9801542161334955,0.9801111716078305,0.9799355444819284,0.9780611266006317,0.964780340156501,0.8878590393670354,0.3684827671839881,-0.56199585378108,-0.8212721500497173,-0.8934564481670267,-0.9198593493466984,-0.9263957802329035,-0.9177916347180337,-0.8856581390740669,-0.8117996716988185,-0.7062178259598383,-0.6678371164078554,-0.7285152823778158,-0.8098892047861207,-0.866412360912446,-0.8961670125781854,-0.9035004337379501,-0.8742815117739793,-0.6929467324144604,0.11976906295152959,0.7270203163090406,0.8620495582885924,0.8939578619977944,0.8928938382587086,0.8690448543118641,0.8192944786417036,0.733910269808126,0.590545776927679,0.34891635901708956,0.01140971470013523,-0.2517919710787819,-0.30273423987011655,-0.316678022618744,-0.44132782308305046,-0.6080185929785615,-0.7294537517333055,-0.7893076334733247,-0.794679842693681,-0.7413269879621406,-0.6169912456510052,-0.41667889595793833,-0.15426963758118453,0.12846135443429144,0.3702246911212018,0.523535689937805,0.5760031381913049,0.5077995920779953,0.263065618220432,0.02462789042116052,0.1730856411883735,0.45452553094417675,0.6130646674460077,0.6769978867595884,0.7122503931129232,0.7538347059151019,0.8043016021017346,0.8523293363660959,0.8884886922048817,0.9102552827129028,0.9175569270581514,0.9109351493176817,0.8892401506084462,0.8464738762865435,0.7589523673868708,0.5945446511430426,0.4206310231732382,0.3751984030133905,0.4743748288113005,0.6318877514515268,0.731257335695865,0.6870241945552245,-0.08521862837253504,-0.7460293854897772,-0.8482813507729245,-0.8813880183420916,-0.8965407026302767,-0.900325692808359,-0.8915604017438263,-0.8723701586571907,-0.8471342519585964,-0.8206116856107166,-0.7904352165676727,-0.7608405179963109,-0.7576484432144152,-0.7964621009386752,-0.8526705033855226,-0.9006119283684046,-0.9376815375693236,-0.9599470234281627,-0.9119847210680124,-0.7039531418787618,-0.4555165578203441,-0.29172185694699554,-0.1906632067894632,-0.10972744004385593,-0.02077040784324968,0.08682970594162616,0.20239693340108758,0.2874324159051897,0.3077928774254745,0.20691561609664647,-0.05052968714528659,-0.17881286169507427,-0.15599412859248854,-0.07735617403259833,0.033689904311037557,0.1598726838986369,0.2941715233017359,0.4260957556410454,0.5386128261933109,0.6242752946891482,0.6882756062136292,0.7422883997992886,0.793830234165496,0.8433261871368307,0.8904794185406443,0.9258649787419037,0.9266147989905871,0.8686968531370696,0.7571378792306201,0.6286339650351213,0.518531027472477,0.4247849718567173,0.3016566995170402,0.08980820264447843,-0.1977143854630896,-0.44893336738746836,-0.6075715400539934,-0.6915432618130755,-0.7094530456217898,-0.6145555801971413,-0.18010357810848807,0.4961123127240119,0.7037742789445639,0.6526811278110707,0.4335129132682486,0.15926622362412346,-0.008084065296169195,-0.09614715001965392,-0.2323571961229029,-0.49440328997261956,-0.7778242105324764,-0.9284521385794067,-0.9757395098843348,-0.984157126731663,-0.9795946920066397,-0.9685942163325357,-0.9521115014701528,-0.9334420651875027,-0.9208220504566986,-0.9183690083555681,-0.9206920291834537,-0.9172282443576153,-0.8835751692012785,-0.6937984312345173,0.04238262891161194,0.4999133103422772,0.5392759460592828,0.4593406950154609,0.4261419670590276,0.5370929496662648,0.6903386068315812,0.7753070762709211,0.7816904434508858,0.729039502354342,0.6483869119269273,0.5903677195376165,0.5913689132440916,0.6446187826700552,0.7082017970468721,0.7605801806900289,0.8045177539720215,0.8409662283132111,0.8664891654796025,0.8795318579094521,0.8788717434943463,0.8605251857000655,0.8094417361749369,0.6958730235713548,0.5003169629077312,0.2557559859405229,0.016147032875604043,-0.17876451351982786,-0.30293057450450517,-0.34633546050441105,-0.29336607064879,-0.09628349140649038,0.2765352649491886,0.651271468453819,0.8422539887145963,0.9116718250892869,0.9432648232273311,0.966805284411044,0.9805754165451682,0.9825535104587799,0.9779259227041712,0.9713235985348947,0.9652967297718855,0.9601723425152631,0.9545701466205264,0.9433717932581759,0.9130855663337897,0.8258460506011165,0.5465261745553824,0.01071165717482536,-0.29935165307274003,-0.3828890876000998,-0.41276456398129063,-0.47051843023759427,-0.5574710469388063,-0.6205766588181346,-0.6414157721397851,-0.6388732481094591,-0.634896175932287,-0.6440487628507815,-0.669376149642296,-0.7038561927987239,-0.7397227783746003,-0.7708012818261447,-0.7901714635933819,-0.7934758253275986,-0.7861028149369853,-0.7819382273088291,-0.7845619873827554,-0.7602467614548468,-0.6831924668273738,-0.5912887288125558,-0.5238331727541619,-0.4865667286465274,-0.4625967378759588,-0.4140080429903612,-0.2764928961341927,0.022022131018608757,0.4173701933864783,0.7051060376865971,0.8589037422405768,0.9366409634768578,0.9732426593926142,0.9871014450038349,0.9826350389480613,0.9509061982528336,0.8806602499569788,0.7754528649469618,0.6512449839629727,0.5124826829145485,0.3489225025015824,0.16725016383046182,-0.0057019471824005545,-0.1692860945232793,-0.3681173616286103,-0.6034255430594486,-0.7921561227657575,-0.8919617961424506,-0.9335073051471341,-0.943976573753277,-0.9322550426554898,-0.8970663340022015,-0.8447270997631788,-0.8177113369332741,-0.850349801902231,-0.9018180659050629,-0.9357594679889965,-0.9526660516268523,-0.9588884288051792,-0.957580167906637,-0.9481830922740896,-0.9188132006217282,-0.7847585363105374,-0.137762008074337,0.46673023946782677,0.6252215057788679,0.689283392164043,0.74775914241869,0.8086613663818585,0.8616808213203417,0.8962379260600831,0.9132009444516671,0.9215243597756371,0.9268426520079396,0.9297409010108492,0.9289020057144898,0.9204596618140392,0.9017098640677761,0.8775435731235969,0.8610864651117106,0.8530094932184223,0.8468517021480899,0.8385698775833871,0.8256810403157205,0.8043579378534891,0.7750112798912902,0.7494182745844665,0.7436135681030436,0.7554079216590605,0.7489772167661123,0.6653616574853471,0.33450372489582886,-0.3968006131320169,-0.785809746842613,-0.8866276916634317,-0.9152592366087298,-0.9205306036172665,-0.9136109705031955,-0.8979554950300443,-0.8757828362345687,-0.8477351405424965,-0.8056562518720382,-0.7368635137779236,-0.6491086759353663,-0.6005588457851564,-0.6559280531363892,-0.7716111584755103,-0.8615560139206166,-0.9080780592597464,-0.9258321217445381,-0.9189477855879,-0.8478711166094345,-0.3367569503160561,0.6279181220920285,0.8272198750555289,0.8276701097653827,0.6797559941181283,0.34579705635851654,0.034364385946102555,-0.07340285531483136,0.05691475426238543,0.4580194096255577,0.8235945096103054,0.9308628786296228,0.9271290287713925,0.8836784673466345,0.8212532781556415,0.7566491592042641,0.7110303158864174,0.705408545780662,0.7458249097627565,0.8038150853220025,0.8443160048045177,0.8630196849923514,0.868372853708425,0.8668388613496675,0.8611725513559652,0.852588957783893,0.8413857238472731,0.8270547083702158,0.8098349999113527,0.7997044217653233,0.8021666057883833,0.8103272925690962,0.8214008434730018,0.8381872076808711,0.8654202007519275,0.9005962333305283,0.9338800507615068,0.9586646919386131,0.9690511656351404,0.791948963036118,-0.4089947482949714,-0.7229779560512952,-0.793458806918719,-0.8200604863846251,-0.8305932491114421,-0.8367975972884444,-0.8536476948440017,-0.8832185923264465,-0.9069728018559304,-0.9176042648530935,-0.9255976204042231,-0.9400491776300052,-0.957532727910773,-0.9713249610523991,-0.9781740800209329,-0.9720341059055635,-0.8615001402910905,0.5900008837442785,0.9022729570476435,0.9300888266415114,0.9269265203898865,0.9185394628571854,0.9152689901250668,0.9157664010294906,0.911989742843687,0.8945664761432217,0.8428106724154002,0.707250653465293,0.4403957193370546,0.1471589797057814,-0.02063991123488899,-0.06602343293192707,-0.04590764817934887,-0.028948943561945942,-0.07242376721647106,-0.1843270903015162,-0.30013507049414145,-0.3336426030263466,-0.22275403910068095,0.07753449592588761,0.4445407353550405,0.6683911763436926,0.7548235349078336,0.7641407668882987,0.7150383156465807,0.5846748565926352,0.30213945007707077,-0.15138645711918777,-0.5256346572330616,-0.7048460125219069,-0.7793659237236552,-0.8083641015266453,-0.8093239843352075,-0.7719263237701279,-0.6406580921222575,-0.31028278433628576,0.11032959434723556,0.2977162674548541,0.26675020375692476,0.1586414093266201,0.1395740414259426,0.29004773722053057,0.5287625274547691,0.7103031757331016,0.8118955745867454,0.8686641619658739,0.8997971747870319,0.9048758138413212,0.8572621886659672,0.7091444391472083,0.43021118643416056,0.05633199648408584,-0.3084577186375712,-0.5730909965466199,-0.724221676719914,-0.7923524732647499,-0.8064731446349948,-0.7770905710291353,-0.712895254534744,-0.6348890657214794,-0.5830902434717005,-0.5889504213495966,-0.6386919517151569,-0.6749957699439881,-0.6950612784778354,-0.7058375697242966,-0.6889462358610604,-0.620594939548187,-0.47837462320349583,-0.2482132348857887,0.04397708236942489,0.2329267676004347,0.30542123871506754,0.36926624485872805,0.44903011376095225,0.5366099664331437,0.5849027507597842,0.5262418437661243,0.3896515349128659,0.21931441399203339,0.018185967918189192,-0.16958392301982747,-0.27165260498182453,-0.29295056941157394,-0.26873974975118287,-0.2213695183670975,-0.16713935149076117,-0.1269072490707125,-0.09881240646128303,-0.056536710067960336,0.032250896525659656,0.2139928422443919,0.5016393597128926,0.7531660974263785,0.8672801879904136,0.9070625878055736,0.921330816182845,0.9249171409843061,0.9219993588884766,0.9136687747438452,0.8997743668470478,0.8803011303229822,0.8571286958124726,0.8362128740277466,0.8225858752011368,0.8129764292245949,0.8039806508979078,0.784941142900286,0.7389998570879616,0.6446131348050548,0.48587907020691906,0.27631631712393445,-0.012301033326408048,-0.4035113017666105,-0.7294805435338169,-0.8835403632104912,-0.9404859579720093,-0.9579178679988043,-0.9564310271314527,-0.9387294661881678,-0.8956847339627895,-0.8121009537142385,-0.7048978435800951,-0.6543427808446421,-0.7158690053707749,-0.8204093851554976,-0.8878235618827425,-0.9108256655441921,-0.9046442581931923,-0.8809071878058261,-0.8482315469370568,-0.8064620883823332,-0.7429045042142804,-0.6132298534612659,-0.3775195111854324,-0.20208313649564855,-0.22125733675465414,-0.39169959148889105,-0.6180249978631646,-0.7988139004421871,-0.9061593116854711,-0.9615719667174462,-0.985579477262596,-0.9858020769380947,-0.9617587940293569,-0.9065670944596628,-0.8051071258413401,-0.6160418532435851,-0.29049973198199047,0.10332164022663742,0.3932908530224629,0.5450234448767539,0.6088038198746686,0.6189811197589264,0.5974551098800183,0.57306548928701,0.5925328688721455,0.695433820956927,0.8357634122132853,0.9202930985292452,0.9435280312568729,0.9380079065421528,0.9220082318177832,0.9050079797490549,0.8962914156347289,0.9004576655388599,0.9098897188259029,0.9129230946102159,0.9028091559710719,0.8769070706445627,0.8376746914748137,0.7945042183286484,0.7559415992058476,0.7340080315599283,0.7445588119709453,0.7923969947743758,0.853148724877587,0.8961940718518062,0.9111331638243932,0.8753858928960201,0.5079049254860281,-0.6972250391924611,-0.8989825156305123,-0.9264737347986591,-0.9250210441523746,-0.9098553584239708,-0.8800525628894689,-0.8298679795785554,-0.7575029102694204,-0.6697424312701084,-0.6041659141356631,-0.6012211539012606,-0.6665546276477368,-0.7589689406117714,-0.8191401980586699,-0.8326999166761997,-0.8084191532592429,-0.7503473334624269,-0.6483377064976514,-0.4805658154538668,-0.2897464126144604,-0.2135086807253885,-0.26170935329778394,-0.26183727834264514,0.024142520047068686,0.6131454918091287,0.8872484824194543,0.9540736355181335,0.9730382338641729,0.9783338553965347,0.9765620574075718,0.9662597267313245,0.9375159237453803,0.8710972370050848,0.7540282931976497,0.6123476736138876,0.4936940927826591,0.4174074687844284,0.36657407639543166,0.30009376134948357,0.18228858325368133,0.053037198193958184,0.03688300156053972,0.24315996742236118,0.5526892889871313,0.6954309890681891,0.7048565525891322,0.6361660036004168,0.5237535912761204,0.4629578312540805,0.5361334021664617,0.6500980341008442,0.7361192632185829,0.7903188023821368,0.8214388877132327,0.8343772373873224,0.832268692202376,0.8148095162120316,0.7635793189671936,0.5953449246606248,0.09235476717646254,-0.513345205647714,-0.7518078436951559,-0.7571941915795685,-0.5785575737192855,-0.20902007732369457,0.24810067453334406,0.5969935028465272,0.786412037806843,0.8649327077662413,0.8763670869531791,0.833053797633466,0.6772143477376531,0.1360701126052625,-0.6344343524563885,-0.8882506191738493,-0.9552452770953587,-0.9801324528884041,-0.9906355869185577,-0.9940462658570621,-0.9931953570645847,-0.9882299872224624,-0.9784402325564888,-0.9641464840205018,-0.9462249803811387,-0.9244086766918105,-0.8969956651665059,-0.8615768504677878,-0.8199924799457229,-0.7832161027780279,-0.7706264332226496,-0.7872652538633245,-0.8159254943335964,-0.8374593466891709,-0.8385282772482123,-0.7811470344634961,-0.44607525423619493,0.39629900778155785,0.7488063007164688,0.8482976769560673,0.8911558622350175,0.9152438344819729,0.9261360613928927,0.9235350005126227,0.9081092112148147,0.8809527155446204,0.8407826865305695,0.7772014581877591,0.6710160938102419,0.5154518673332522,0.35599269868848876,0.23080409787080125,0.10944369333657816,-0.0472949313656632,-0.22265044467870496,-0.33618318525511426,-0.29004234964632236,0.049041483296692535,0.5746308773740211,0.8415582378435683,0.9267187075062366,0.9510653978636138,0.9437843738724497,0.8903261343946002,0.6664954901694764,-0.07735578222614388,-0.5941526618083546,-0.6961627696534328,-0.6490539366982289,-0.5078568897826182,-0.3309587374783234,-0.18703433893452506,-0.06312917366954067,0.09111077668457203,0.271382815834211,0.40116612508632876,0.40623342266381174,0.22481592139030507,-0.16756183712051342,-0.5281337384764199,-0.680122484583665,-0.6636898510312601,-0.4243776400328321,0.13079017020776165,0.5746745111047477,0.7361804986518125,0.7831700015252665,0.7932571416833551,0.7935368439059671,0.7901684406685546,0.7804048495806418,0.7635836711846481,0.7473979095298182,0.7421127203734932,0.7497022105453137,0.7617929762207698,0.7696668505596926,0.7712704379281107,0.7679822761736307,0.7606682986789087,0.7497575638073235,0.7331838663157998,0.7074805317707311,0.6671520130251223,0.5973460802610098,0.46268340840156996,0.2409243760536919,-0.0465296292778929,-0.34960098088265357,-0.5887891533997204,-0.7225926576596329,-0.7801031001494305,-0.7949780984646747,-0.7785917596886212,-0.7190136278805641,-0.5616452704250844,-0.15065685264470446,0.4054577072999096,0.6161925323109133,0.5790368176306926,0.3594129508312372,-0.036292258947264115,-0.4235607874043434,-0.6527732519597264,-0.7633524574666117,-0.8025908310068626,-0.7823268875098244,-0.6839622485809889,-0.47879175560218257,-0.2640882295515947,-0.2522733173479464,-0.4203909166904142,-0.5474796239775008,-0.4902080044241542,-0.12194039904381228,0.39451044079148945,0.6252206760262667,0.6837378820610533,0.671129811672877,0.60231934236698,0.45885934916917986,0.23343007256937515,-0.019606375380001435,-0.20719512028614961,-0.30315211724302016,-0.33551578434971424,-0.34449878111812576,-0.37562394626423096,-0.4596001571394,-0.5826089181800047,-0.7038834983119099,-0.7986036674219864,-0.8649265941148581,-0.9096633421956537,-0.9355641816626167,-0.9257925757353137,-0.8571893628329416,-0.7578893035604622,-0.6833255644202539,-0.6382232592223794,-0.5880764222795332,-0.48511766318833915,-0.2695529748729894,0.07618032347474916,0.4020915661785774,0.599827043046289,0.7048286239315233,0.7342407398065699,0.6655635262229597,0.4963284558894709,0.32142913308385146,0.24391559071262237,0.27524710141022213,0.3402943980619708,0.355787892534967,0.2730779150049911,0.07605768785734432,-0.1870309445422894,-0.3805935179728605,-0.43006188868286016,-0.31787918495064926,-0.037071794932760214,0.2822370182035217,0.42689959380221815,0.3333720034947037,0.05767539921271711,-0.21131624503975727,-0.3728019869681442,-0.44143458875112135,-0.3889294531245379,-0.09186594474914105,0.22814923438230647,0.3745892565603038,0.437189106784873,0.4650454183787661,0.47346601277907896,0.4708203165067281,0.46538511708666025,0.4634667126478996,0.47563792556652934,0.5144939452453262,0.5875282367435445,0.6768944017749512,0.7593656623638514,0.8304434146924284,0.8924227415992299,0.9415138084699387,0.9737904018921362,0.9900510888917737,0.9931788225392526,0.9860111722356136,0.9699328773222928,0.9420024872066025,0.8822691533066384,0.6884208941240805,0.08443315856664445,-0.4520639232349677,-0.5897897291692067,-0.5561540611264657,-0.4160627022604153,-0.25903016459350964,-0.2886982264490709,-0.5523129569765691,-0.7912719208360536,-0.8994383365503297,-0.9444816170026739,-0.9673006771009329,-0.9811805455748324,-0.9901802027737217,-0.995561122565607,-0.9980719936573695,-0.99841276795317,-0.9968807984990519,-0.9917813712824706,-0.9721695020285005,-0.8988126451137457,-0.7375115600085378,-0.5696437795661463,-0.3968020537174159,-0.0998977101505336,0.25062168171483884,0.5143230217651147,0.6917097102538169,0.7998624622794954,0.8427367929426379,0.8361320814400446,0.7926996497041134,0.7098019531403922,0.5760177344321992,0.4133937320438706,0.2857677841742153,0.25183170924568127,0.3187301125014558,0.4450173931931961,0.5968069103089468,0.7486388984436697,0.8518330414268314,0.884436266495142,0.8797558713866998,0.8658684786066906,0.8559030651372835,0.8572974077597293,0.8727631926455434,0.8958990149539887,0.9159953007017347,0.928421488251383,0.9360856469973933,0.9421123374402197,0.9466596043240496,0.9478513453077353,0.9421706742081633,0.9262705654907442,0.8919610725684162,0.8259555105584307,0.736800217491668,0.6795184354992487,0.6683001859647735,0.6582314975198508,0.6005467570151763,0.43889870771308687,0.1020515173135929,-0.30736071765401674,-0.5548320640275132,-0.6399331303661316,-0.6260534329283625,-0.5308707152816557,-0.34478497665251934,-0.05275730089661427,0.27477475323477996,0.4361563501253984,0.24851393544397005,-0.44034468925842696,-0.8483967476190033,-0.9386347702044737,-0.9603091869138467,-0.9654650169642335,-0.9642404744326593,-0.9574824908498625,-0.9414708532393365,-0.9056042516948986,-0.825189240804406,-0.6701162708214399,-0.4859037099493555,-0.40733801757197236,-0.462225449490163,-0.5439458779038653,-0.5447840397670525,-0.39406820635605,0.004381545401032567,0.47632261546879806,0.7184920181082145,0.8115710736223705,0.8538857599452581,0.8803954763954684,0.8993936709666125,0.9085668444493685,0.9053506327528777,0.8956940248248514,0.8927986990780912,0.9049390405168237,0.929684938903441,0.9547166563157298,0.9281640837756931,0.8078223587078114,0.7229383011191569,0.7233049960964901,0.7564264204132364,0.8015844455681577,0.8475963182455438,0.8772875724390956,0.8799115011541042,0.8358735807189496,0.6424937853664535,-0.05350391870766382,-0.690854804591483,-0.8553652670609871,-0.8546041672738123,-0.4944894435546841,0.35354490689730395,0.6748396697087835,0.794407170444012,0.8614900506469527,0.9020792499544962,0.918179694679162,0.9049550576402224,0.81565800603072,0.07971730652208993,-0.888643621937997,-0.9764633172932794,-0.9900906834693093,-0.9929366934676405,-0.9924977716010556,-0.9898847007485085,-0.984843761993474,-0.9766301045400378,-0.9645054812529724,-0.9490683052981247,-0.9342762084316936,-0.9264763163608164,-0.9255401120257001,-0.9243664260238829,-0.912625934570892,-0.8671752673565695,-0.6849422335776765,0.006778142732307859,0.6567977302628122,0.8381339562001497,0.9016837161404838,0.9374597309438358,0.9583449153699738,0.9608429447756413,0.9475723194529737,0.9284958957890038,0.9134881801096265,0.9063452904571946,0.9043456044743063,0.9033022415891026,0.9021363182704163,0.9001196076233655,0.8964948722583399,0.8919189066285718,0.8866107290557179,0.8819758708662655,0.8788780503058384,0.8780276325256072,0.8773650321578182,0.8748176958070957,0.872194944162516,0.8735107692400497,0.8777852753316692,0.881102049662069,0.881145636181413,0.8788704423534084,0.8778543868050868,0.8828294145189108,0.895350539786471,0.9091784370497094,0.9168002007365037,0.914965113958665,0.9026816152834897,0.8726961457049084,0.7662520971959199,0.04948418457456153,-0.7333621033624635,-0.8376352429916655,-0.8512286864176336,-0.8392556299976554,-0.8076736941882081,-0.7676985691500353,-0.7780424954669768,-0.8488307074034119,-0.9082159084327636,-0.9390655264102586,-0.9501915690899935,-0.946001738582397,-0.9195192402960531,-0.84330885159625,-0.6871067422998957,-0.5276467292130106,-0.4687719922615365,-0.4819876997044385,-0.5082214824312732,-0.5110335950911504,-0.45416453654869576,-0.1490402738686201,0.5230738732263451,0.6210789153501007,0.6207121928264764,0.6299969265254262,0.6596786964063995,0.7047015002500834,0.7550900537664567,0.800710550787704,0.828837841511521,0.8323358285159504,0.8055104234946228,0.7266580292236214,0.536981946500702,0.2128739128923746,-0.09107999937600648,-0.2538884253563573,-0.2960919599591216,-0.2673818263905431,-0.2130255636050635,-0.16037373594477372,-0.13386353576501775,-0.16780985407098387,-0.3108473139329608,-0.5520774572361631,-0.7243481578890886,-0.8071423751805564,-0.8467289565741938,-0.8507881384389875,-0.8069848435583609,-0.6882258205439095,-0.4794958510216238,-0.30356144299764415,-0.39207338067383335,-0.7323014767019008,-0.926018466489733,-0.9639242418087124,-0.9603267758325609,-0.937415163369335,-0.8770694478675537,-0.6850945310680011,-0.15376687356079088,0.31633215624873234,0.4006917812755821,0.2567891698129172,-0.011719213813803938,-0.23885609518797923,-0.2924786617687338,-0.11819701985765373,0.2525935773714029,0.5433300770284205,0.6287101366931707,0.5325292422999378,0.1862541104878974,-0.28809603165893083,-0.5368188312812783,-0.568394134588154,-0.3804849845290788,0.09416648006000021,0.3687874954485477,0.24531659508860829,-0.10797674305935993,-0.42726853887746424,-0.5908927843246642,-0.6472105497535305,-0.6378833909193217,-0.578747768127907,-0.46647610313457577,-0.2929556793585117,-0.07890125675906291,0.12662543455586822,0.2957000263064171,0.43412696525444655,0.5486804182844237,0.6324976394927321,0.6683749459296973,0.6504429278802802,0.5979551434521636,0.5507059997418298,0.5305781583578476,0.5289975122548107,0.5338241851580098,0.5367681226132569,0.5278049074185451,0.49204624495768495,0.43171756309040615,0.3753825832576978,0.34896291732232626,0.35532035076172236,0.388132900778656,0.4383982596529519,0.48940338173432396,0.5193015307913168,0.5162474452167359,0.47593827614888273,0.40473964506549964,0.3295097416759711,0.3199738541821471,0.4727604763834336,0.720974366797626,0.8705072885424858,0.9309616798802831,0.9575854006458482,0.9717937495658455,0.977890748479325,0.9766600000903252,0.9687453323292105,0.9200950112180609,0.679951797909172,0.3145444065459957,0.13084094873457483,0.06699680986186865,-0.045766254791100296,-0.3432710362646453,-0.6931880419918179,-0.8805192778472906,-0.956222815154694,-0.9856737602885747,-0.9782976520104664,-0.9358027924491854,-0.9037075541175669,-0.9050167537142517,-0.9167737547234514,-0.9228641159413844,-0.9181393209131578,-0.8971353089200583,-0.847578885277201,-0.737990069493854,-0.5244016953978466,-0.29436846131341776,-0.3199477980116452,-0.6267361593757969,-0.861487431605045,-0.9467994787958856,-0.9703952512915691,-0.9579251380942259,-0.7930829865493805,0.32117295083195313,0.8012883666836422,0.8745938940057829,0.8790541931687903,0.8593018496181359,0.8394177443258237,0.8374864560261502,0.8496942900113256,0.8605064425200977,0.8601703449322513,0.8457911124107255,0.8173791222221197,0.7798857052932134,0.7460529786610016,0.736909895111015,0.7695741395356546,0.8168067346750083,0.8269193958416858,0.8151974641093441,0.8027114730822908,0.7835772854002264,0.7515589769418667,0.7021523902289115,0.6299265842370475,0.5249643630419802,0.3792567145256527,0.20378630190044394,0.039444645543231543,-0.0724267789673093,-0.1133798787313984,-0.12408512819063847,-0.18371963951772013,-0.3346775671325781,-0.5623857302036396,-0.7714514877817404,-0.8855897744063673,-0.9191973605523022,-0.890248081545586,-0.7411874616579649,-0.2737406717166892,0.33521613756920704,0.6373650242123904,0.7664258721932101,0.836005144046764,0.8854777162764317,0.9259752147509211,0.9556937213564026,0.9716118773181335,0.9741737032105777,0.9591961864523361,0.8954477660868337,0.6138983839726293,-0.2361347159760221,-0.7559282475438672,-0.8984985424415283,-0.9448270908180934,-0.9612724588785246,-0.9663873485191278,-0.9658655373709841,-0.9599945307171088,-0.9486519054919149,-0.9375843617289737,-0.9395177495265548,-0.9543716244327929,-0.9685468341223631,-0.9767584479110341,-0.9803586709119159,-0.980164777017387,-0.9745133526807426,-0.9553685529816603,-0.9032333386345422,-0.7818144936850845,-0.49251414080750316,0.1136313168059651,0.631454185748978,0.8284374228682577,0.8954333571636705,0.9209712588972206,0.9317579226771912,0.9374878281710995,0.9411685277673201,0.9431838339882614,0.9429372063637401,0.9386622766631169,0.9280972592302121,0.906126991240006,0.8556838930870223,0.7120691331387442,0.27007339611523973,-0.36706131072957726,-0.6570448314097508,-0.756211493777832,-0.8030758250406659,-0.8361385579207504,-0.86308663728309,-0.8938081488841476,-0.9299996907806213,-0.9524465555186505,-0.9605799098911502,-0.9605583279391123,-0.9552854064109113,-0.9436743806881195,-0.9171965222489831,-0.8485348888860039,-0.6571504018723661,-0.252411378753124,0.16878251850590817,0.44723183400148536,0.6524120860344657,0.816382534013472,0.9066650837929111,0.9337331138977781,0.935187250423583,0.9323920684894139,0.9326346705190628,0.934247418422173,0.9186581625445578,0.759314221361061,0.05289378043352092,-0.2921911347888181,-0.10664744575686268,0.43375615005662516,0.7636416506296143,0.8529261755014101,0.8603481559389397,0.8276841557378233,0.7581702959222457,0.6496162537287904,0.45422182871129496,0.09715852653797497,-0.31998841247029647,-0.5831724794947526,-0.6867577461144319,-0.6691008968510491,-0.5025758338196259,-0.1733759267784075,0.16934776788449288,0.44649429556709946,0.6979331478203259,0.8895379707504297,0.9715549400943312,0.983673710065294,0.9501436899460765,0.7863754516008663,0.05948889552478529,-0.6467528347782387,-0.8302560006088485,-0.8792576931490982,-0.8836473182963787,-0.8442937823825831,-0.6605510437628793,0.12229573932511868,0.7548576189995837,0.8720174608173922,0.8629636154425205,0.7872160398167932,0.7083867124188183,0.6922561542760969,0.725423660586921,0.767642312210869,0.8053230858660598,0.8404174412910606,0.8617346616429349,0.84914126063287,0.8189661366923809,0.7749629124195941,0.6793986084409968,0.41936835813773515,-0.19996086153748643,-0.746852418881287,-0.9189583745969883,-0.9641480576528988,-0.9771534781504295,-0.9809925689783158,-0.9801890625925581,-0.9697227885721244,-0.902695321150994,-0.12748817903325585,0.7205762991614982,0.7770916369460285,0.6096556305586002,0.033815323389517316,-0.5679700147528989,-0.7631717472313677,-0.7817496015751427,-0.6271050147865138,0.1727394057306666,0.8513398175027577,0.9585565351117558,0.9799160385875124,0.9834143110017985,0.9784234520623727,0.9611190095211941,0.9150150745488987,0.8168790768219595,0.6815029875749906,0.5675184191376478,0.48364305220881093,0.41287811469740715,0.3439682619917166,0.2811180540579385,0.22665529317476538,0.17579336376699367,0.10879606423755558,-0.0033314460920155194,-0.1533654624888978,-0.26855917961216264,-0.2755508990192092,-0.1550783467060747,0.060288113275960696,0.2719528440506647,0.41194887914128714,0.47641577081569014,0.48846461347386605,0.4581850085995536,0.3523381421189061,0.08773580415548175,-0.3919509592776224,-0.759114346587691,-0.8912801765370015,-0.9218432557778238,-0.8014885568159769,-0.18952912275881567,0.19198203890684015,0.2640924668290729,0.2611382377925625,0.24715359380565968,0.22608055124757628,0.18424169296687334,0.11715059262072287,0.06194734434801557,0.08576621861592008,0.14682863924428935,0.0031306433273898746,-0.4106703528294871,-0.7425523131303461,-0.8782376718963614,-0.9204908167655114,-0.9172913837493611,-0.8778098205758725,-0.814267732006475,-0.7642920801960749,-0.7518038404489027,-0.7635004979739178,-0.7792317187619898,-0.7879209516515064,-0.7859703561193713,-0.7713581005038793,-0.7458052095709539,-0.7155525441362482,-0.6915421380114835,-0.6859716205290206,-0.7013240184471308,-0.7147582741877848,-0.6817163758187317,-0.5730812533888617,-0.38173672900984634,-0.10695762560847064,0.20989722655832216,0.4681717636988951,0.6208009361768393,0.6945788665005965,0.7090077098568177,0.627417065918807,0.4124203892246376,0.2570971198965078,0.3037609882562866,0.5057265769143185,0.6944551842650769,0.7598190861812835,0.7528265482179847,0.7272475438480619,0.6987470955689862,0.6736719523042177,0.6501714886914357,0.6084887391114413,0.5478194260601071,0.5237512878634706,0.5565115503867444,0.6051134077591457,0.6291576658668226,0.6353691985039257,0.6502504344573478,0.6851519470800903,0.7258962574689741,0.7493238791751956,0.7515311063943655,0.7448146065922182,0.7308350102631039,0.7029142074895008,0.6490172418570618,0.5551735112177397,0.4197251831927948,0.269461851709098,0.13664706605722052,0.03546672270002534,-0.029885406532330863,-0.0710507075176394,-0.07812409692458161,0.006656068443706158,0.23753019139825166,0.5516766519971988,0.7713115668522049,0.8709599782550113,0.9128202093046088,0.9296514344830304,0.9345761106360068,0.9364309382739898,0.9445541457054185,0.9590084798617751,0.9697053706598409,0.9731015138710157,0.9700389792841133,0.9564898895689107,0.9255810445208164,0.8690414497336958,0.7704996217850982,0.5713988277200095,0.12619340500469642,-0.44342449968192316,-0.7434944374099498,-0.8574761034504408,-0.8994111119681402,-0.903133304161266,-0.8769679306104119,-0.8264295699025018,-0.753851159259233,-0.6485973719622671,-0.5068231157004932,-0.4392115371778382,-0.5670823095537944,-0.7201590109044628,-0.8125016044804523,-0.8592795505592222,-0.878195580189335,-0.8774126558694999,-0.8504895766692022,-0.75763717795769,-0.4774052333287656,-0.032793690864701776,0.17930833893639792,0.11582542659182245,-0.11082679564602692,-0.32877992037880255,-0.43412352713471963,-0.44269518380066725,-0.3900336205782707,-0.3049427031145482,-0.22738381474558791,-0.22383212586270826,-0.3976245427594119,-0.6806767046826936,-0.8166349968359297,-0.848731194876897,-0.8434218629093724,-0.8227981894031987,-0.7981892728660258,-0.7811833413350621,-0.7901312058423103,-0.8330459773056805,-0.8860971026380166,-0.9247206523034845,-0.9469045462232522,-0.9564886138179695,-0.945655566515265,-0.45544284743660796,0.8415912923451749,0.892097223567157,0.8780541657077794,0.8551960098702168,0.840743932580316,0.8413914781258591,0.8508289766343661,0.8531697359400466,0.8402333051243828,0.8207776154580458,0.8066412269135288,0.8017842500795989,0.8032981133758934,0.8060139031219473,0.8054520316166378,0.7957657483069367,0.7711681983693202,0.7287251829114318,0.6723074381854048,0.6171595131619764,0.5887587179737643,0.6067376849857472,0.6663218645645888,0.7390195353787999,0.7927911547055532,0.8172909004264037,0.8181038181607584,0.805062176127818,0.7866254719155413,0.7665045001162188,0.7490852717912876,0.7413662189220097,0.746193978984656,0.7558376521528016,0.7588504609611104,0.7516594445818227,0.7517213435984564,0.7813239203627043,0.8289115714529366,0.8655023951351396,0.8811986382221674,0.8768613414198599,0.8459833863923001,0.7312454018516568,0.1175791655537501,-0.8096526194754663,-0.9500725621858245,-0.970893075274866,-0.975646646986589,-0.9784054810233634,-0.9814258379964179,-0.9816799864228484,-0.9708075359122995,-0.9441293269751115,-0.9258196018851386,-0.9319315121993494,-0.9442959536154057,-0.9505246762795125,-0.9475171601359871,-0.9299821526151995,-0.8786654961726198,-0.7023348276533611,0.004361254633828076,0.744366090169964,0.9121459779929373,0.9464241354611602,0.9391046595750386,0.8799525737806412,0.6665519435270078,0.17385923245605253,-0.21267950157005724,-0.30936702111668957,-0.21977947639594458,0.0031029737322241344,0.24853574117123176,0.4040568586248437,0.44807211773589933,0.3807395251911446,0.17213042814030283,-0.1867999146609632,-0.5405629696940658,-0.7391903087258782,-0.8236874495480615,-0.8554740264773962,-0.8628753350140576,-0.8532190100078321,-0.8085293786452215,-0.5781438161311485,0.49071584257504086,0.8745132655053311,0.9103797748255591,0.8980261438342408,0.8561571969159778,0.7646831008433324,0.5916280768152837,0.3841212017512746,0.2615656678240084,0.2068877857367709,0.1287013429456242,-0.027922369344643386,-0.24857990149662937,-0.46203361059258025,-0.619413611620352,-0.7265589608954636,-0.8003140243509629,-0.8444236007776555,-0.8653003946779927,-0.8868613671532763,-0.9230368028961091,-0.9556238086823142,-0.9746564720263904,-0.9838283054791014,-0.9878106790112243,-0.9890036760543073,-0.9880906357295459,-0.9843425467070919,-0.971419617051282,-0.8674018398959582,0.5698080123223418,0.8930125097816581,0.9232322941876729,0.9300414292560841,0.9337204085857438,0.9371339486100828,0.940867566813189,0.9447925612021176,0.9499019947727113,0.9564528004115838,0.962816096892071,0.966792793990196,0.9688866485297983,0.9712586570679327,0.9751148764576609,0.9792848849799786,0.981916020309939,0.9810824301716711,0.9749173467918522,0.9593178522440399,0.9296791181700067,0.8849464296547732,0.8263714678491538,0.7443927728484898,0.6062618484414435,0.3448455618232318,-0.05692199286570861,-0.3282791631504846,-0.16596961558152562,0.4977906343643918,0.8252504248966226,0.8984191107492621,0.9090767242541331,0.8901230699212167,0.8378502310297462,0.7400279071843192,0.6161845047806677,0.5565908797401281,0.6114768047015796,0.7118816120862935,0.7728957255091804,0.7397429917253301,0.5209271094930461,0.013460045497986801,-0.47183796559302266,-0.671307683647356,-0.7833916517784719,-0.8787418830955717,-0.9306349618169772,-0.9544826828388104,-0.9650034775515262,-0.9692451769960638,-0.9700771671105582,-0.9681334346088546,-0.9618913142565817,-0.9461729032839715,-0.9118018330792113,-0.8487330634499441,-0.7556661238135872,-0.643294674864121,-0.515467693986539,-0.3384946970966197,-0.05333369223737063,0.3331245099087724,0.6601128621976202,0.831028252372061,0.8928012430048287,0.8964392896549067,0.8706411674528169,0.8325584497843224,0.7952717388993885,0.7666507178590999,0.7466525433263165,0.7324197547909775,0.7132969295175438,0.6610595500679116,0.476927091969525,-0.21331712297034328,-0.8474090067608435,-0.9570137968736102,-0.9776573914572182,-0.9831988033109865,-0.9858009640147058,-0.9877838778308667,-0.9883880169884733,-0.9824674994769779,-0.9368137584772359,-0.5478437040160986,0.4928784705547701,0.8017844748798177,0.8812944056906932,0.911203971901474,0.9245774501196207,0.9305966200706894,0.9335347132621865,0.9329600577502121,0.927051009555118,0.9136706296417934,0.8977012036201709,0.8865849757542362,0.8772340396772084,0.8448225404178993,0.7229418040155394,0.3074027485096325,-0.3150457596509136,-0.6176843207807254,-0.7094553027638911,-0.6886996505150887,-0.5215762842338035,-0.09310753827653076,0.39308266007267345,0.6012228309143082,0.5890324085915927,0.30822644803886373,-0.29902661167765643,-0.6572678445769132,-0.738529812742625,-0.7105290002067269,-0.6491036817893585,-0.6328243597646339,-0.6874394541660037,-0.7684135944048551,-0.8294313810751709,-0.8587575581531498,-0.848021583251436,-0.6421211290834081,0.7184479456400388,0.8938045717355755,0.892555010644691,0.8607475783864507,0.8016491509000596,0.7173499088834667,0.6208006984320616,0.5365998288659741,0.4828140472853849,0.46534196581037923,0.47135659661448454,0.48297361932069544,0.4840847627967971,0.4806150852975855,0.49601680011723115,0.5499794980976032,0.6371151842845395,0.7259385549462551,0.7897053682847441,0.822585883309216,0.8274636950584273,0.8090099484616773,0.7710997911397706,0.7169336654701352,0.6434668409535539,0.5393063381564636,0.40566036847460973,0.28079359349279026,0.2108221945188661,0.19431757645004102,0.19328510692278833,0.17003327129527104,0.10051781597120872,-0.025105136991242404,-0.20162354312283698,-0.4139692693499323,-0.6204524418940911,-0.7655476470137502,-0.8461820480881765,-0.8928201209095941,-0.9270327280292682,-0.9509736441485646,-0.9581777925164771,-0.9506841865672621,-0.9404232328094174,-0.936838686191205,-0.9392353770371055,-0.941223950416122,-0.9385088482453016,-0.9320815842096142,-0.9275854092633082,-0.9281488315900683,-0.9168822815380916,-0.8095284305783667,-0.4660697842181128,-0.07953700591368612,0.14954858634365012,0.2870916123221966,0.399994207679835,0.5076716650775179,0.5918017748579032,0.6367522199671122,0.6469853796161278,0.6312922634172088,0.5983866125965923,0.5561786476343621,0.5164217785266034,0.48793213623990894,0.47406172689464876,0.4825317456105298,0.5269752264692807,0.6116121242263517,0.705391939281227,0.7701502462009258,0.7967802601429979,0.7916814869429362,0.7595367782473721,0.711250279661866,0.6714951224525348,0.6569549047952525,0.6590162053140081,0.6571347136278537,0.6356172972539049,0.5694765044358107,0.4064709186850683,0.07866655576177785,-0.28869864230902326,-0.5185140381320555,-0.6412550037265892,-0.7128767685885485,-0.7626791702013831,-0.8021740361030346,-0.8377800068891094,-0.8689606663956859,-0.8906465767308313,-0.8978392548411925,-0.8809797663196486,-0.8025691813565552,-0.5210283875854196,0.12672942042071583,0.5127491573461652,0.532132792492728,0.3515626473318537,0.12080377281902469,-0.04321975985280265,-0.16636456644818604,-0.29538682586643517,-0.43042313602339943,-0.5461265203132296,-0.6430631102842684,-0.726836555864473,-0.790183311120413,-0.831546816204039,-0.8519468436622143,-0.8539963195490342,-0.8393944968683432,-0.8092765668561939,-0.7622149695068027,-0.688608155736086,-0.5579316477790734,-0.31224822495570986,0.04264967451772513,0.3168123162438859,0.453479534603574,0.5312391543108568,0.6063355239995412,0.7013622545806879,0.7896828709861418,0.8362031299375787,0.8490301566650429,0.8512270516275378,0.8542265671039371,0.8594160238348633,0.8645613213624154,0.8664251265066477,0.8558849645271042,0.8118708730150228,0.6697545164562743,0.2901893596026687,-0.21326737459721232,-0.5143476931441381,-0.6518521856642112,-0.711357138752741,-0.7241832205304143,-0.7040243992346552,-0.6870942868703797,-0.7184360670569098,-0.7725468214590812,-0.8079118025256069,-0.8308872653161831,-0.8508060012675704,-0.8668441785087896,-0.8701061073354706,-0.8436821403360112,-0.7137568721602366,-0.05700032505925317,0.7799017801770305,0.9398246498664989,0.9741375885498201,0.9852054368728995,0.9895574885524118,0.9908966320160539,0.9853149296484586,-0.2562709503300739,-0.943095077507051,-0.9486822583573581,-0.9328008144824024,-0.8972471680694758,-0.826590230006254,-0.6882673206875057,-0.4311281146165485,-0.009754770694267726,0.4493070621677087,0.7373347819521946,0.8712885092933642,0.9262170841799016,0.9420390456834584,0.9453328796859166,0.950422375709396,0.9581677576722579,0.9600776396438392,0.9527830981626194,0.9467820256709861,0.9478967597075165,0.9456450945471597,0.930877267630199,0.8999209186111012,0.8465524056444721,0.7444466188013493,0.45463070574503595,-0.4112149149953824,-0.8868919336765331,-0.9460099939931186,-0.9303666415513391,-0.857833365333773,-0.6215078808429444,-0.04150141723539259,0.4911111830223643,0.7212104929181179,0.8136171353460996,0.8551278128136535,0.8807533990636557,0.913614295527245,0.9522074889470484,0.9762605678704248,0.9853386245924143,0.9860455240428362,0.9797233950191531,0.962099708524518,0.9213712176573381,0.8351902979857379,0.6788754898133054,0.43335870189667014,0.07730372306751622,-0.3388137673266838,-0.6490244101386868,-0.7975567034139204,-0.8448061124487083,-0.826668820129148,-0.7184074341343362,-0.42330702236438156,0.001481976678380331,0.09131313743841914,-0.3621990860628886,-0.740565763358805,-0.864840241495237,-0.9125859344810985,-0.9364016638336842,-0.9496287983351454,-0.9548481222516257,-0.9494181886606039,-0.9208444144444798,-0.8023230652099858,-0.20504462521176933,0.6317665508388662,0.8402339158117597,0.8874020145600782,0.8971512696993814,0.8990889293767381,0.9069494044635792,0.9243483959802429,0.9463487487397946,0.9647546223810232,0.9762364454933499,0.9815140308278423,0.9773337650770537,0.8741098986725606,-0.8147774685857433,-0.9510283461287213,-0.9597126586093112,-0.9512317863605094,-0.9365317007536709,-0.9262727193728827,-0.9250596256209684,-0.9242063445664519,-0.9152010781830913,-0.8931362971023522,-0.8505524102601822,-0.7748778252787419,-0.6530320303545767,-0.48470431745403014,-0.29495979209540646,-0.14053304054326735,-0.10053292294667211,-0.2319652374152756,-0.4464295231728305,-0.5695213982733202,-0.546483896954877,-0.3445440781344215,0.02929995524700102,0.3781099331546489,0.5962518610885157,0.7225930971249045,0.7999538944226753,0.8510442221060811,0.884394013309715,0.9060606609573557,0.9222738195367275,0.9204164848409202,0.8761006206366496,0.7877033904821553,0.6877014845625604,0.6090036739063587,0.5694962548989128,0.5701206482952418,0.601023802876224,0.6163174580878539,0.47414801907908743,0.1350378569230194,-0.0801179764895253,-0.13950458395319112,-0.1285045637476351,-0.0880640388347882,-0.013413690553258667,0.10189132777345655,0.2553133149019678,0.4316110500351556,0.5932577664187685,0.7073055951339952,0.7752772507637122,0.8126009361512309,0.8322231770124382,0.840856747694547,0.8344530101168924,0.7971891996402551,0.6900717179293038,0.4230656053899988,-0.08082819199627765,-0.5630680348091549,-0.803664008592105,-0.9003892564966665,-0.9375711493139325,-0.9470749939769224,-0.9384974750132226,-0.9096227126911468,-0.8601039194984951,-0.8149095811757714,-0.8105595864406195,-0.8452399983779523,-0.8901000670334489,-0.9267646498973157,-0.9518988158030656,-0.9672832416220832,-0.9752830332617861,-0.9757468209667691,-0.9405883643901417,-0.5637935828044859,0.26843614767820634,0.580079564109928,0.7094622834897458,0.7885661133184168,0.8385999654228538,0.8717401926073289,0.8914023205946774,0.9085259639214348,0.9320708906363631,0.9517637080603236,0.9641820066975915,0.9713875707620254,0.975382328488998,0.9759296689119248,0.9712197441533369,0.9567523059853165,0.9218955535048419,0.8393406650475456,0.650271927242093,0.3386401076487973,0.07124876401931522,-0.03249618530690296,-0.02614712692735595,-0.03836327260420012,-0.19300304907374402,-0.4886166860458157,-0.7318601100361993,-0.8400337804489103,-0.869115806961149,-0.8424979646180938,-0.7164436477525442,-0.3285352737258697,0.2417401100943035,0.5333472514635563,0.6682342019782266,0.8133054758962758,0.9205455667204574,0.9633960398510093,0.9782180012563,0.9838634018139755,0.986073076846665,0.9862643464972739,0.9847000082580463,0.9795672206747176,0.962150586846662,0.8286581946982184,-0.8425709091347812,-0.9840435574724806,-0.9934033957189302,-0.9946930942344301,-0.9939285416860184,-0.9903335680256189,-0.9817722859144083,-0.9659593159332851,-0.9455821295498903,-0.930849672384179,-0.9281533064483479,-0.9326804651276792,-0.9367382611971694,-0.9345600438239499,-0.9197656762700869,-0.8755842730269394,-0.743873819744101,-0.32280100927410177,0.42584612709604996,0.8003586252795382,0.9060054905293181,0.9290576837212581,0.9252728879892723,0.9182015832390747,0.9168953745687664,0.9195312119992621,0.9218474307655382,0.9237526628756996,0.9250101263590765,0.9254127552351199,0.9253458149803843,0.9258439720939208,0.9259929435863948,0.923112264142762,0.9142882268236633,0.8975774977234612,0.871894456943322,0.8371873261829885,0.7951843566537264,0.7538049624009753,0.7261310066632901,0.7167641969810732,0.7095180018775757,0.635553089503008,0.38066295256220933,0.12087713349453265,0.02636211263465242,0.07147434023161611,0.21519486508572103,0.38651797299670104,0.514242828455059,0.5751640277624813,0.5643909487235962,0.4247669139181802,-0.1873039921544433,-0.7564163876336557,-0.7599428042597525,-0.6800195939919311,-0.5659541196444317,-0.43888621059225286,-0.32728632578981187,-0.2523396104237525,-0.21868809991670118,-0.20711209964917066,-0.18472249831699408,-0.13157823530779578,-0.0587138087190477,0.008881222544213549,0.04858506914067944,0.04617353315411635,-0.011003217780981378,-0.1370703781364362,-0.3399419225149709,-0.5378380738680968,-0.43368349877370543,0.2642291331704026,0.541145898882031,0.6097709714482245,0.6196620616806134,0.6073568116096033,0.5841792043208351,0.5594896351756783,0.5415177196695863,0.5404454179478055,0.5548370011112036,0.5746266444430616,0.5710927212024461,0.48738567642364444,0.2722357205252649,-0.029843913722225147,-0.3159432957186085,-0.5317743327696,-0.6736773707952118,-0.7582634619368341,-0.8050456356336116,-0.8312008315298063,-0.851344440328973,-0.8700059686137767,-0.8812820319385397,-0.8770345996295574,-0.8504145858941086,-0.7939244283494544,-0.7055809347624535,-0.599217786603301,-0.49607720010195233,-0.40987159203597584,-0.3265548983514289,-0.2442528960367923,-0.14834909332676854,0.025473602034972294,0.30308757358535776,0.5614090647652343,0.6914243610771589,0.7160500667708248,0.6765664464845118,0.5971896639070984,0.49829178646722105,0.40289695246475643,0.34901497294570755,0.3859210908565273,0.5218430234625383,0.6854618834224144,0.8001618553509081,0.8617111249316524,0.8944403351729734,0.9131378470866398,0.9211484534407093,0.9157876365065277,0.8885044155545966,0.8172245187163051,0.6588514358671469,0.3577113184624434,-0.05795349479657772,-0.4241153847158304,-0.6572012587669815,-0.7874308510697519,-0.8485927674504268,-0.8569510843055687,-0.8336082488511907,-0.8587493812331966,-0.9165375097944912,-0.9438985454911034,-0.9541315965749888,-0.9592820570131961,-0.9620229642600135,-0.9621950313315663,-0.9593878456614703,-0.9533421960980314,-0.9422902333393389,-0.9193922598309011,-0.8585512521252007,-0.6330211224863697,0.1324865101027966,0.6863295572047189,0.8133866271819514,0.8143954045113172,0.6932747555494192,0.16382208943768747,-0.6155352506507074,-0.8517119407467209,-0.903457843860727,-0.8859503792492639,-0.6014357863212344,0.7449920304609008,0.9444475098857218,0.9670696710335973,0.9648772437736702,0.9479369716302326,0.915201306789198,0.8693492073230935,0.8241298476789406,0.8049619610312754,0.8196609613963136,0.8494993692939614,0.8743290315177145,0.8899789827655938,0.8981606275340077,0.8989554484001065,0.8909771199292759,0.8722784975701277,0.8408621794572634,0.7948019266996981,0.7354240700197854,0.6674947597090086,0.5981131563389048,0.5340538493121862,0.48127149280980913,0.4491635886668005,0.4547854272752775,0.5111498584905052,0.584970006250599,0.5969248622539439,0.5087646882158503,0.31967684928726925,0.07186284578397673,-0.11001815025653387,-0.21418623345357307,-0.34260935534888326,-0.49873009646526983,-0.6174031349328143,-0.6733146848059034,-0.6715034108653083,-0.6031609394173433,-0.42341399893720727,-0.06958930488623559,0.34606217488369667,0.5826257098241441,0.6509779529042964,0.6217235478797161,0.5310339180793403,0.4280269938216862,0.38349567182529415,0.4294394544867447,0.5352188621354284,0.6238554761995767,0.6537408552837338,0.6319000341810367,0.5706676819670419,0.4731978472993912,0.35136852406893654,0.23755726660234847,0.17075119910398395,0.1784638536902885,0.26279726691766336,0.3906815210028306,0.5106654405701678,0.584814930749588,0.6064643851185855,0.5931673000726856,0.556163232910807,0.47991184995338043,0.30364155057202946,-0.13450983548390535,-0.7514429250072101,-0.9476707914390105,-0.9637632592140116,-0.9509330935342882,-0.928289638726089,-0.893375748854045,-0.8406475941907371,-0.7712379692161767,-0.701933450869899,-0.6539967544311815,-0.6310785242355832,-0.6172413441836319,-0.5893359282139911,-0.526506096269098,-0.4118853104174186,-0.22805963909280005,0.04625110283317032,0.3798123064424794,0.6518981330216412,0.7842362175717106,0.7734972959626822,0.5311598211956741,-0.001416612272398546,-0.36638750073195575,-0.4408258841488387,-0.2964081095145555,0.03466153782598251,0.3491835204818174,0.49635994867217453,0.49289522400134933,0.29473694269524625,-0.1949729561836364,-0.6511634282116283,-0.8100384462861321,-0.6832535781497613,0.9467284406395696,0.9893629120603514,0.9857464914143935,0.9775078695270095,0.9642136174922,0.94353750758051,0.9114200288936662,0.8555587524367196,0.7374366637178107,0.45357964353823604,-0.04187977809774044,-0.4268726370345801,-0.5959336151440714,-0.663904690376987,-0.695620328797538,-0.71598075248438,-0.7358750673971632,-0.7419815655721145,-0.6813243044969426,-0.5915019646720809,-0.5733029750182939,-0.5794060526055839,-0.5364739165293501,-0.3816536338266312,-0.07895482591125558,0.253005125289733,0.46378252278997845,0.5565421470137037,0.5705991581679454,0.5303618476297628,0.4713922289428306,0.5052197184611283,0.7109571105270913,0.8693233858669092,0.9206072220860934,0.9327869942249735,0.931190643053272,0.9168486355962765,0.8607651869706401,0.5284327050262277,-0.6128322638714281,-0.8963707100187364,-0.9382030071197626,-0.9396398883192902,-0.9200524755921269,-0.8769445966528525,-0.8098643920975175,-0.7311540823816294,-0.6654542060161525,-0.6091663115673018,-0.477447126184162,-0.14109499149553723,0.3317234796108191,0.670016338540023,0.8400542080120939,0.913570936017981,0.9386381512439111,0.9380840109963567,0.9186198872808577,0.8739305579392596,0.7716736041662029,0.4992682323343983,-0.0709018816439232,-0.51628125897697,-0.7082241265974611,-0.8042948233347998,-0.8566866658455713,-0.8691447088227569,-0.8272445807417511,-0.6632367584543454,-0.1546408092527852,0.4833490151368555,0.717201945871399,0.7468976868772397,0.6450346152775192,0.30865723103990783,-0.2531770065572619,-0.6080852150390388,-0.7342295296455514,-0.7548706348643739,-0.7069961939201467,-0.594289652616187,-0.4120985090669529,-0.15707112845181748,0.14926402834857166,0.4267841170304648,0.6068786305438761,0.6975676616352785,0.7339583702151619,0.73984772457484,0.7271672375949951,0.7035378016887487,0.6698466087566,0.6159858131509715,0.5155631550192533,0.3632915779744111,0.20838975396669154,0.07092953879406945,-0.08275803508685466,-0.27506753110478027,-0.46704664928599754,-0.6030384233607485,-0.6532562989873596,-0.601003524056699,-0.4158341160048756,-0.1188937494849798,0.1619309719836353,0.33800626470936485,0.4246418776233091,0.4513788953940597,0.43576016675837803,0.37863044951676567,0.25418512820786315,0.04203257066173555,-0.18849739570061852,-0.3980325646253341,-0.6135114928758708,-0.7974673685855409,-0.8959228898243041,-0.9215572229077085,-0.887586275234093,-0.7070253362565792,-0.004645643659247641,0.616443685585645,0.7649067347240127,0.7542625123543553,0.5536313194410849,-0.21791774494325233,-0.7675868464387651,-0.8625111373070006,-0.8549712636666323,-0.8010097059316144,-0.7049992468655714,-0.5658287928913892,-0.37481264809817183,-0.10383765592866165,0.2629870015627118,0.615323944381531,0.8257981125595347,0.9218791875614599,0.9590791907379782,0.9670457896290353,0.9604331580137324,0.947177537209136,0.9301094364582013,0.9096713625362736,0.8872159140718193,0.8618537507495174,0.8307776135819708,0.7911913611826259,0.7391632637106912,0.6647124376649906,0.5488209226835448,0.3677169006229814,0.10237040274627862,-0.2485515666524341,-0.5721568005487433,-0.7555473071971341,-0.8391506389117048,-0.8829739933260083,-0.9124668573050476,-0.9365883129438483,-0.9549229930403219,-0.9243415342080614,-0.3897182201759543,0.3692153371273725,0.5613547215335435,0.5979894942827182,0.6014922736398686,0.6249125567688278,0.6787382444765538,0.7248701232865445,0.724053495282889,0.6595541162700517,0.51632843551349,0.27848391765784825,-0.05444540389241849,-0.42792569664005975,-0.718416189347214,-0.8792092489644137,-0.9438862455993396,-0.9621766844193447,-0.9640376392047161,-0.959096173656381,-0.9506578785857716,-0.9410189343961247,-0.9264531794120421,-0.8892910576227384,-0.7837338132150045,-0.5091952964673414,-0.026038625993320526,0.40954025617292034,0.6717390534510684,0.8183002172933633,0.8995135494570398,0.9430814561791361,0.965046954188185,0.9735053531061038,0.9709243142342914,0.959076487923299,0.9427758362140758,0.9280517599778919,0.915406093349099,0.8980957473409842,0.8669537777948634,0.8016435758392403,0.5577667880047154,-0.7484916820828809,-0.7307522181006842,-0.5636914804555552,-0.38271517459647975,-0.23538533320036503,-0.1483695171188227,-0.14166732440724605,-0.24140717989915095,-0.4411545393308801,-0.6513935695307894,-0.791598626897796,-0.8670214361371282,-0.9085016628688479,-0.9359868306434824,-0.9486396530356465,-0.884780722187679,-0.5928077872796088,-0.1459587160808491,0.21939525353765432,0.46639162442928206,0.6218149553722419,0.713528465089467,0.7599550531739574,0.7666227655039255,0.6963059562563383,0.18640635071099548,-0.7082033630427402,-0.8617896815849339,-0.897782367528839,-0.9150191067739908,-0.9240770769013524,-0.9203470501971419,-0.8627831931506119,-0.20155467469486038,0.8200776553626158,0.9249283096557174,0.937414427256514,0.9242210213555856,0.8994089841568768,0.8905207433503501,0.911230248151266,0.9452524103879917,0.9759119853248664,0.9924301599749904,0.9879999520312933,0.9683745727406727,0.9488939179590988,0.9439946613179706,0.9565382381479179,0.9691408930470857,0.9688213992684578,0.959291497575976,0.9434847330054773,0.9126019243791474,0.8262517013544398,0.5325276413282407,-0.06465236784843166,-0.42057431807378937,-0.489556144831982,-0.3953355238971778,-0.17093257039645396,0.1055558270878081,0.3111782405283803,0.3783156878309004,0.2239113680122192,-0.29396615243713786,-0.7223908523459032,-0.8604037839513782,-0.9075960055110146,-0.9278166554326029,-0.9334737860059704,-0.922798703226574,-0.88354120766847,-0.7886324358256307,-0.6527011318316196,-0.6274722336678729,-0.7453490234434212,-0.864228998576479,-0.9247304837699193,-0.9418763420020426,-0.9281295087958751,-0.8673313858976941,-0.6864367705614132,-0.3626305094224074,-0.10409570181369902,0.034521836235952445,0.1298459490915089,0.22717254543647275,0.34070604297644025,0.46393866681437734,0.5818284388676557,0.6807759579351619,0.7575466836206306,0.8135732639936831,0.8507618469064554,0.86815035727369,0.8630541911454065,0.8253457174028853,0.7427060832458633,0.5991076990582818,0.40023765695420416,0.20249539990217316,0.0711080570591519,0.05722599087138406,0.21515053653824512,0.478491184704765,0.5855624923411411,0.38787585911720884,-0.26166812378833876,-0.7198882300193595,-0.8462114557996101,-0.8724442761700114,-0.849736973491806,-0.7585204676197339,-0.5786474669128381,-0.45261120427859974,-0.5572495046688698,-0.75829702681336,-0.8705033724185022,-0.9077366433191721,-0.9075478256784838,-0.870556898917407,-0.7480362761188738,-0.3721344715935137,0.2889660890698593,0.6673861492881981,0.7867511559033917,0.79661439947368,0.7000133694484338,0.33356768358088595,-0.3507060147797704,-0.7265163571018248,-0.8409694495601489,-0.8322928108557724,-0.5755937528010008,0.17063724638198957,0.6399681652419058,0.8038872932627429,0.8749004321482218,0.9068875870579031,0.9056979741696337,0.8582495311095873,0.7629591980254359,0.6613948054778517,0.5954151350124179,0.5707400957932022,0.5701630663508234,0.5758581383806943,0.5801441380581465,0.5863192860398171,0.5955481911319418,0.6064088349514316,0.6092898822166819,0.5890542614178718,0.5290598551461357,0.40866466463844703,0.22552632509182235,0.022485571964968927,-0.11672985252661414,-0.15680528023000878,-0.1463110994683365,-0.14725666599830267,-0.18584430091575405,-0.23595573232140157,-0.2640409357390303,-0.27543577992995727,-0.293177143475232,-0.32536559853975977,-0.3634998989798565,-0.3955550193901971,-0.41080125098734477,-0.4112412037628701,-0.4007632981936855,-0.3829920943095653,-0.3666931008769316,-0.36509097713022604,-0.37846273578157913,-0.3748043718181171,-0.31625829168601294,-0.18921568439615916,-0.02090570374467841,0.14520100750489162,0.296266306345123,0.4250887069958711,0.5307873900027316,0.6180543811335723,0.6981751218265335,0.7699551684492989,0.8326169953946971,0.8836461904581582,0.9164986510572724,0.928261643857195,0.9166261058685699,0.8826045016849261,0.8318403760715818,0.780068247035367,0.7466158874140908,0.722363588647472,0.6689655579178877,0.4872103221817881,-0.06894995485985972,-0.7064263811361398,-0.9100808637555102,-0.9635984384721532,-0.9793030942356158,-0.9802429764004011,-0.9688840625970747,-0.9307662388560879,-0.7631681434919537,0.06474499184194962,0.691267315093367,0.7733872290745081,0.5474896367673848,-0.5313002525320762,-0.8781246595357417,-0.9250680311816885,-0.9351164043866451,-0.9374655847404468,-0.9387871189371226,-0.9400664290813994,-0.9393312151726979,-0.9326980155933282,-0.9157167426502453,-0.8872247502244828,-0.8529323680271108,-0.8170696217052449,-0.7644137715923174,-0.681796447863646,-0.559924418356424,-0.3294488431592565,0.19987422149672718,0.7838534107880852,0.9432741832995839,0.9631133760015833,0.9640042001912383,0.9655541106228033,0.9661285598259448,0.9609682057465265,0.9410131712163597,0.8934164663815434,0.8244679265819543,0.7832968122927151,0.7914442830439493,0.8138671238018489,0.8224911271446699,0.8005173950179914,0.7110842860094287,0.4686827610838425,0.0699502812541018,-0.18902960171218125,-0.17190480374898826,0.1571359004599622,0.5591798264384306,0.7125704042331407,0.662516113796848,0.29503960361921916,-0.38861155879665704,-0.7131882312945754,-0.816844439237861,-0.87013587986106,-0.9121174383925246,-0.9421427944474382,-0.9596165170644636,-0.9666951079586692,-0.9631466052835813,-0.9377096671369206,-0.8148936054865,-0.030811569623327227,0.8052844711754865,0.9415118480339241,0.9704798372816673,0.9745454204518349,0.966418236561896,0.9471163771100177,0.9179047203245418,0.8870950778340365,0.863806224399844,0.8525451434977903,0.844034654043577,0.8247157146253496,0.7900108807031134,0.7456109298353046,0.6908490324819708,0.6118093392087577,0.47179322630779086,0.2007032447163759,-0.24863511818314488,-0.6564126486313939,-0.8503715892468083,-0.928298171815627,-0.9623186896909252,-0.9763906994592693,-0.9763737461358513,-0.9616556031987626,-0.9229897829042734,-0.8368573896951255,-0.6770064226445401,-0.4743686476781795,-0.32049120887694765,-0.24653847634236845,-0.18536952563523107,-0.03092903049402614,0.2907429107035927,0.6230837353300135,0.7877386237140543,0.8501268954318074,0.8759870546140143,0.8858591859767163,0.8800159168992956,0.846612098650843,0.7673605565158331,0.6401848371585336,0.4856047261191275,0.2278588526500822,-0.3949252466281121,-0.8342236468670735,-0.920652362467908,-0.9368081846517442,-0.9396513675723887,-0.9379098099590855,-0.9323049226989982,-0.920378338539448,-0.8905600564261491,-0.800028780448516,-0.5231108881771646,-0.04940967369538242,0.2639814117832993,0.3955905207322666,0.4646801295082412,0.51851842236335,0.558139714445371,0.5685402108994756,0.5492372782899092,0.5237029800115989,0.5161282427157433,0.531724817932713,0.5610245599051745,0.5904428882824111,0.6092464371795369,0.6193512450772626,0.6385768634329845,0.6781650423181244,0.7259115878392415,0.7651834611092334,0.7864530674548876,0.786480693183271,0.7644774669338598,0.719153890649365,0.6572730556596043,0.5958775118891956,0.5591563614923941,0.5548738286577407,0.5847284202983576,0.6473235456504015,0.732918072556254,0.8247161015924688,0.9052855951233326,0.9588421474446474,0.9822111153438442,0.9864348376826456,0.9842660603583288,0.981619981949452,0.9731976890554385,0.9476675301443488,0.9058044993863852,0.8627895740020809,0.8348818201089606,0.8344600340960439,0.8522666349659709,0.8196968428719694,0.6696698258694149,0.4803985799348488,0.29966023731231606,0.07551607411088315,-0.19436521338906043,-0.43467542825468397,-0.6229613571791357,-0.7613349797576557,-0.8498320177693998,-0.8949952700485977,-0.9095705445006481,-0.9064308733129425,-0.8894257688685078,-0.8258579673106079,-0.4925523765145566,0.2674841497337675,0.5400073698830634,0.5371038442405757,0.3795608751049953,-0.017580742554104783,-0.596255539796037,-0.890509752740064,-0.9655582239114857,-0.9804844276833565,-0.9817877397709938,-0.9823123035270411,-0.9847441252693984,-0.9883096458968562,-0.9901693466918514,-0.9847617303786492,-0.9677140325379355,-0.9335165591170306,-0.8727095596219921,-0.7930206470406703,-0.7502157101605451,-0.7737200826756393,-0.8201978046880296,-0.8494435614034885,-0.8395668142527297,-0.7287094135104846,-0.3446478412308786,0.09596239767884591,0.18875802004394782,0.0642621877292523,-0.11859234501260543,-0.2637557569161961,-0.33432124011812325,-0.3087370781339438,-0.1767472906504977,0.017606950626744354,0.20488745676724665,0.34178215578679044,0.4171720919114109,0.42738859332235396,0.3770370330198266,0.32562581938481955,0.35478547474324496,0.4439527562498726,0.4992360296124408,0.48221038752115586,0.39690297586835976,0.2735757314406192,0.15315818442303566,0.06699853451978893,0.02033529368692873,0.00914920882134968,0.043587405584700575,0.14367962101471338,0.3333903846151993,0.6016497395759458,0.814099834276844,0.8886333434634089,0.8873260756433018,0.8463261650723157,0.7550400915521618,0.5970288062493436,0.4610027081815745,0.4876294636671796,0.5939821179242103,0.6651050987491812,0.6895561251642697,0.69027486102836,0.7001917089956233,0.735695841673672,0.7745652042736421,0.7933834411569931,0.7869831187216322,0.7543882063337084,0.6996729402412167,0.6332069403866077,0.5630719480997298,0.45700760088887227,0.20228867386271138,-0.23008413352659984,-0.546896291331996,-0.6782621483040663,-0.7198242056463091,-0.7158680305785994,-0.6786454282582874,-0.6130449144356542,-0.5265306983030261,-0.42102530321911746,-0.2629093556726681,0.049164449835926945,0.5720011448124195,0.8550221814190192,0.9234242350926999,0.9431852295249094,0.9390633496480876,0.8744964065876292,0.32405824961839175,-0.7303695300517953,-0.9035558136587533,-0.9383612063462325,-0.9437823703021294,-0.930804323564597,-0.8853304147898972,-0.7621780077686515,-0.5122810082324305,-0.24373773161694465,-0.0964747204544023,-0.02872443358805665,0.009211376938521055,0.0387070621916299,0.06362989282379837,0.07959426094119522,0.07985817919058849,0.04990092655583834,0.010028264702207567,0.03692902726789102,0.21122731298515784,0.5078841183802887,0.7450703082143828,0.8397469347613448,0.854559977641097,0.8408261675895367,0.8217463289870717,0.8107714119301179,0.8122883100522172,0.8179307413816274,0.8113254573310631,0.793566476946445,0.776167009408006,0.7607564109594156,0.7336060960517093,0.6938952013020256,0.662125047636668,0.6565222159193806,0.677258730373617,0.7089285499435091,0.7362102779812204,0.7513776291136837,0.7542614896364713,0.7445259669800225,0.7195633307011645,0.6681415177357283,0.571210005802651,0.4173161510765979,0.22535110706615488,0.042216293808019535,-0.1316032784944882,-0.3536067287331705,-0.6503608146687623,-0.861026958206204,-0.9386627540844646,-0.9596333748929008,-0.9559645304016106,-0.9282981775461453,-0.8578780543468527,-0.7521146821332249,-0.6979098605969241,-0.7183453325239902,-0.7532398872052948,-0.7765867634522375,-0.7616702475365847,-0.5595878184620761,-0.15459564678451573,0.06648446262574695,0.08230554766712632,-0.056410698784230995,-0.3122231116483966,-0.5508748454223311,-0.6426333893618085,-0.6452727203370958,-0.6256148123325469,-0.6167013691133832,-0.6383372353324004,-0.6820693154195956,-0.7045451837973904,-0.67537710692483,-0.5945770137478031,-0.46280913837463633,-0.27620186014474396,-0.04097874725492263,0.224029666688427,0.49602159231040777,0.7229325560517117,0.8593161855968773,0.9170944886010192,0.9308699087274792,0.9249538212649556,0.9128045236434996,0.8979389448507435,0.875746183460815,0.8381647093122369,0.7736486888363514,0.6499087998549135,0.3567011427405198,-0.2433506023178072,-0.7056244915880026,-0.861179074608464,-0.9043636561424208,-0.9078667466874728,-0.8895542656716046,-0.8421847106802366,-0.7167180634279529,-0.35346628790775253,0.2436022398504066,0.5912267701667308,0.7260288826617974,0.7853069819669565,0.8030427973455565,0.6980857697156722,0.10958609537754103,-0.44614675956619865,-0.6263105729284449,-0.6879826709146799,-0.7226896324785985,-0.758324811873796,-0.7888594989559494,-0.7957688699328095,-0.7636035834606566,-0.6915532680035643,-0.6076736493643821,-0.5688835721682882,-0.607340427177227,-0.6930984500246845,-0.7770140960933569,-0.8356812319805046,-0.8660914576287764,-0.864733520721901,-0.8000713997280339,-0.4248382891862128,0.5883783905646524,0.862891391148785,0.8991909162525158,0.8802664790910221,0.815325399372539,0.6937335091294183,0.5640111959007202,0.5338268525825763,0.6238271433732115,0.7375774233369273,0.8047562844989097,0.8299157895422251,0.8318011584645514,0.8225742647363948,0.8112503107655331,0.8022489496317832,0.7962630735205181,0.7928355932531996,0.7997222659106986,0.8301261424666868,0.873380786930236,0.9012084065483743,0.9108898453665385,0.9143667434595418,0.9189106775760009,0.9260936742181309,0.9345096517589937,0.9406837798343559,0.9409797840153413,0.932710286144501,0.9097147728486192,0.843685065861307,0.615728587560993,-0.04519424797066092,-0.6480347348078522,-0.853278717260623,-0.9216149719825285,-0.9491848993089966,-0.9611936352937267,-0.9643149240980702,-0.9615221307863214,-0.9545663569570668,-0.9441253844157954,-0.9297481493796657,-0.9055137833079855,-0.8558318080308204,-0.7365858863539149,-0.4852114016656703,-0.20520699392544262,-0.13998923177629574,-0.2947280697305259,-0.5108281265302425,-0.6611706265651086,-0.7317223673614077,-0.7370662491420079,-0.6756765344737679,-0.5101272293302522,-0.17667109413109303,0.2550947880476699,0.543590609185235,0.6810466533597859,0.7536033734698895,0.8005828657002804,0.8409419870200454,0.9134156346008209,0.9697851679099655,0.9852483198159655,0.9838519157925424,0.9795023642509173,0.9772356652271166,0.978163660123589,0.9800547271439413,0.9799015399738995,0.9744344134483536,0.9548871202604291,0.864860853725647,0.0909234782188347,-0.8304566365579229,-0.946985079168762,-0.9678520982368006,-0.961428717740283,-0.9265209350832861,-0.8225610808643558,-0.49327230972463293,0.16273518580329596,0.5734129751462184,0.6849720549363256,0.6230769625186217,0.27971799671572206,-0.38507029644087704,-0.7464741746646869,-0.8593389947083468,-0.8964801135804605,-0.9072006859689202,-0.9100996986397993,-0.9229785364026719,-0.9480105689856018,-0.9678724775361008,-0.9712391616680676,-0.9562970873429432,-0.9232591784934703,-0.8824150746192359,-0.8493184552719212,-0.8330529080598635,-0.8391341711049264,-0.8613160162922946,-0.8830281472296904,-0.8923597462513186,-0.8852916567270841,-0.8595602768098679,-0.8117555250768677,-0.7403913662688949,-0.6962066069608982,-0.7892912110505835,-0.920427346705588,-0.9689070642920266,-0.9791560487580221,-0.976811914322973,-0.9569759267772389,-0.6539666509770782,0.8775502875882792,0.9487739001488837,0.9520178910867172,0.9458839455900464,0.9371031759521069,0.9242778383227122,0.895557685723028,0.8087446485607668,0.4984604500439263,-0.15952063896711893,-0.5150848164874581,-0.5828937484723065,-0.5134028443609984,-0.26648847934803094,0.302774890282201,0.7846543157190055,0.924008389153652,0.956910406056762,0.9565466620495157,0.9203567178086821,0.7748244775597712,0.42374339440483055,0.21831261796079326,0.4165354839620723,0.7033301888726596,0.8029498332328128,0.8113928731609245,0.7949383978156926,0.7788671050449161,0.7796236406048574,0.8063354087359836,0.8522308148657173,0.8980628675735772,0.926695977277625,0.9238476439590887,0.8636462741955075,0.706189677113888,0.4482447524580518,0.1951022877376495,0.039575846116933294,-0.020907359908233294,-0.024556335614480243,-0.0066277054336367795,0.012492227557038502,0.024149418422823754,0.016112012256632766,-0.039321872737346865,-0.17323363469153838,-0.38554366344925584,-0.613459908498165,-0.7799398674716554,-0.873518837190299,-0.9150377130662212,-0.8868444787747216,-0.6028392831729233,-0.04383111357597813,0.25967843317444317,0.36727974514836115,0.39555949413614305,0.378935854012348,0.3150175209846554,0.20383239024209304,0.0872655580861637,-0.005153159017359399,-0.07424885800083557,-0.12030725474640128,-0.1424586289445299,-0.14220268527251756,-0.10323778533616676,0.014095941920402585,0.24341711693421544,0.5330267130597912,0.7386620915098528,0.8299094942319439,0.8582461466227078,0.856022382649162,0.8361683121801831,0.8115004684400111,0.7708677733343479,0.5852429512299275,0.3352401647948419,0.2809612886322827,0.36701862812023567,0.5033730533067775,0.6060841574876421,0.6275348899497941,0.5312685110773312,0.23621857399972612,-0.23765522822883328,-0.5929457872124176,-0.77077630776001,-0.8514829715331677,-0.8353643292966045,-0.7464652849642102,-0.6596028603792976,-0.607287825801291,-0.5901508338884845,-0.6068253686244831,-0.6539153542968881,-0.6940261703137699,-0.6664624167176558,-0.6167959770558129,-0.6107128920570706,-0.5937019513458881,-0.4754213099590682,-0.317598391707902,-0.18254677372902317,-0.09006187215875416,-0.061951193601922035,-0.15418805845429176,-0.4820155982599699,-0.8017330117608404,-0.843063742755977,-0.821572576283492,-0.7802412290403518,-0.739084409239506,-0.718178958398979,-0.7206600224076155,-0.7404793287935943,-0.7596730432673227,-0.759425865050099,-0.7602383343849999,-0.7947776234811523,-0.8473903305918419,-0.86804714723395,-0.8437201036366611,-0.7885129569853634,-0.6990988342953858,-0.5267040948804419,-0.14572433648446245,0.45657536209004773,0.823088750631956,0.9314642879944349,0.9588986995864022,0.9643702165979571,0.9626250671863422,0.9517287812664834,0.9200017628499377,0.8664150226717567,0.8089967125479705,0.7499520721398919,0.657120937064163,0.4434191105833486,-0.0906030030411085,-0.7091224404161312,-0.9191478600670346,-0.9633476480309211,-0.9674134223856823,-0.9554368135369881,-0.9295338462020324,-0.8897149687727566,-0.842835429485448,-0.8040601453044729,-0.7925930367593375,-0.8160100415092147,-0.858652846552117,-0.8964343844135134,-0.9172066431855374,-0.9170402364861153,-0.8715225900555224,-0.5706278086768263,0.4543188045869158,0.8074164816359729,0.8789573997670238,0.8950512060299313,0.8895934864836764,0.8846531142246629,0.8929299949781686,0.9125158583007331,0.9374532204056801,0.9652289068066321,0.9898152323504316,0.9614540830463393,0.7538639657920143,0.4377564939268708,0.2051627755575227,0.0636189788346643,-0.010694724009441046,-0.03359280059904515,-0.020570289241536123,0.011630474166314034,0.04814507722835825,0.08075504182654536,0.11211663760489952,0.16117224780324174,0.2739211900015452,0.47054102730657327,0.672073910065009,0.8082487578895274,0.8792601046970577,0.9085642117081714,0.9192237133421906,0.9260116242388224,0.935707659462609,0.9481319331900814,0.9581735337348494,0.9605924650227466,0.9496799616627799,0.9112973536925487,0.8041114746114294,0.5754832529008034,0.32722978969390537,0.24936769456171676,0.35315985554263796,0.5221873892402245,0.6377554811844646,0.6758705560339088,0.6632820493943703,0.6384617727174833,0.6372763832567441,0.6522614274334734,0.6478516215345649,0.5816688267741789,0.37677716369920294,-0.06007475566339744,-0.5035323929536373,-0.7218667444278375,-0.8102552387324607,-0.852155858568214,-0.8826773046542925,-0.9136403970009772,-0.9433263230729835,-0.957746141291833,-0.9468881218397918,-0.9128398961891651,-0.8637366565324387,-0.8217638919764916,-0.8238650741503042,-0.8639638951447188,-0.9011918192254526,-0.9243487024316488,-0.9380249892868355,-0.9457389835914908,-0.9491404640177262,-0.9488355935108717,-0.9437228784187929,-0.9291509499225569,-0.8963846608245898,-0.8366933826359739,-0.7447386533864819,-0.5935591429808961,-0.3264588400566085,0.03594521626165748,0.3350926223149453,0.505631517791727,0.5774410402667902,0.5807483009687966,0.5276544959698162,0.4343047039275133,0.3522163518935636,0.33639246287878466,0.40753055898937973,0.5365692441332939,0.670371497370009,0.7600661448133725,0.8076480788847343,0.8301556403739551,0.8444918249534148,0.862650450633371,0.8849439016165825,0.9041378742566779,0.9122303663019016,0.907459674111878,0.8952828484307639,0.8830508326900519,0.8733403967567362,0.861124185807696,0.8337892882113904,0.7682643506360475,0.6111001395484486,0.26778771555427516,-0.21702212686285716,-0.5721051999964525,-0.7672356629797572,-0.9041747954231941,-0.9575090476470426,-0.916571964282372,-0.8926466934677425,-0.8809114632173732,-0.8646915168733168,-0.8356861592586368,-0.785463723553973,-0.7049735310245596,-0.5685957336524627,-0.3011122602634578,0.1369884632188146,0.49838338312781405,0.6381493480663593,0.6134375829041963,0.3945900948474003,-0.10345819300923786,-0.554907365011001,-0.6869556535643477,-0.5723555726598942,-0.13782156627641517,0.4919152533019128,0.7922605513817155,0.8786530150542166,0.8898214007124087,0.8643517927339429,0.824154720502394,0.804327789318457,0.8213930127767046,0.8308401195170648,0.7546986992836697,0.2685932229312747,-0.6760657603402331,-0.8896413181306565,-0.9217945674154135,-0.9146441866795653,-0.8872270004681763,-0.8457560116745462,-0.7958897347336609,-0.7308777435691571,-0.6155841828640731,-0.3605393149938739,0.1450166234139551,0.6459642753042137,0.8647458300179569,0.9371811021394604,0.9610924048292996,0.9666704322672756,0.961344095510747,0.9416680813729954,0.8878222585534421,0.7415355539541196,0.44274445240267085,0.1612227335655484,0.09286774554766491,0.23828169490863804,0.5200275012674398,0.7627999146934293,0.8878232414102584,0.9401176604792305,0.9558721366448394,0.9343602354403795,0.7636516317257968,-0.21907816215430403,-0.8281151292295205,-0.9326941207653127,-0.960948539440151,-0.9694710002289566,-0.9656245304326654,-0.9370332952969286,-0.8149387201275846,-0.4013626178837239,0.1131506850851486,0.3102618777037765,0.2677159450797987,0.013173686042860379,-0.42087384435319486,-0.7405753749302173,-0.8488048506191147,-0.8733124219332066,-0.8741231998011127,-0.8531262425822629,-0.79040276539827,-0.6776563012118778,-0.5366764877103767,-0.3612108231600555,-0.09343079579039168,0.25067153760816946,0.5206891167603263,0.6684432259548666,0.7430394842367958,0.7846383326024459,0.8116638777921281,0.8338980243369931,0.8552432878405393,0.8725619676790096,0.8801570991493772,0.8669368376463787,0.8054386513807862,0.6088917056114216,0.1194311664543425,-0.4182788930799182,-0.6971351167894366,-0.8297271978351466,-0.8956245460724706,-0.9271722870266617,-0.943719899146237,-0.9543205901900772,-0.9624958050244933,-0.9696235635897512,-0.9762111543968468,-0.9822882894625411,-0.9870350582390579,-0.9535385638162713,0.7959762612961656,0.9443440342878519,0.9634345735590303,0.9692551239859217,0.9695820881313506,0.9646444492057415,0.9500765032578514,0.9135234630880746,0.821711381650999,0.607943368972622,0.26754384832846206,-0.022115604733667468,-0.172019242936111,-0.2544647247343431,-0.3664668837228007,-0.5439988676076551,-0.7136734829131116,-0.8132148030656883,-0.8540639784886234,-0.8632315634606924,-0.8560668850539239,-0.8371231706761677,-0.809166611662398,-0.7831349891414437,-0.7810006569434136,-0.8091956360722493,-0.8417370825696328,-0.8518241677648511,-0.8259903036832317,-0.7230457964889611,-0.3348164853324235,0.500027353530147,0.8184433544712659,0.8772360248282528,0.8835980301526146,0.8803829830768688,0.8849593085433286,0.8953874230814011,0.8950837254706471,0.8802807364614251,0.860308269429608,0.8446956723705638,0.8322985576212266,0.8124154620920745,0.7752570819288589,0.7306715944201401,0.6987871207989708,0.6882422636456652,0.6879775521331601,0.6836321057271667,0.6719898947207298,0.6625553895635206,0.6640321881968448,0.6735606608333202,0.6824151874374691,0.6878205330000221,0.6935183378423275,0.6953756247720821,0.6854837337208763,0.6630042168813471,0.6340271962064891,0.6023631481896464,0.5676339998629303,0.5253493184247615,0.45513878555340553,0.314317409928792,0.04439114374896296,-0.35008641944465374,-0.7007815625938174,-0.8611580775054262,-0.8361847761184614,-0.7393416168078779,-0.6861792728039007,-0.6792433016829907,-0.6872210668531593,-0.6937067665524028,-0.7001588591463894,-0.7093730717329938,-0.7138278963345258,-0.7052091930778667,-0.6835411772172127,-0.6571034168809786,-0.6362437654978209,-0.6285592940051133,-0.6271129428156826,-0.6114482853240862,-0.5555836206557678,-0.4207332025318448,-0.18752151646439505
