0.3392967883556883,-0.20554206013190365,-0.7662072306804549,-0.9177702367255532,-0.9533176847145332,-0.9582125404014306,-0.9430761334641636,-0.8992464843098282,-0.8224388091339571,-0.7432000791398702,-0.7087837968121201,-0.720356855188191,-0.7371577231908877,-0.7204509287389459,-0.6326543682279051,-0.46682484018179,-0.4727774962413905,-0.7274262908251875,-0.8422253251930373,-0.811560836515353,-0.35648197744597626,0.7124209494867504,0.9029855351181051,0.9303522119923041,0.9274361763642989,0.9085626548151329,0.8693380108973487,0.7902622040586248,0.6313818023507645,0.3626803480962697,0.05227845147370571,-0.19364293290723458,-0.3736337904864963,-0.525365498153545,-0.6627736829571594,-0.7699396467586695,-0.8362511410677445,-0.8614369728824303,-0.8462950409348431,-0.7689417385376225,-0.5835930280086559,-0.3131478261687197,-0.10737082852966971,-0.007182639073527553,0.056403697482197354,0.14792088563250846,0.279261823577497,0.42121612459251623,0.5366098924900957,0.6128711352590701,0.655882027597061,0.675915306533603,0.6837426948795498,0.6857259356121961,0.6902144708735559,0.7135395113381614,0.7680625599676248,0.830467897675653,0.8744443581107418,0.8945605022673702,0.897577144238001,0.8879899673257962,0.8640856475034374,0.8148429017412138,0.722647399662247,0.5655383520335222,0.3400946862928781,0.11159155860022839,-0.04315783996973353,-0.12648011073896567,-0.1732859013977196,-0.19752175897786053,-0.1968929970285313,-0.15780709389757372,-0.04981783217073887,0.11746264112747003,0.25561012655041415,0.2581067483648967,0.01527739437920474,-0.5501014033050083,-0.8678814177911368,-0.8662912975330151,-0.7668560154766105,-0.6116410013131234,-0.4114523147588527,-0.201806495010167,-0.020702161868358424,0.1120016947257075,0.19670828344374858,0.2451480316807981,0.27558602026092516,0.2968973440585195,0.31281460285605417,0.32739036996181065,0.3494313452125978,0.3795294787478779,0.411401396120909,0.42597323618122107,0.40900761324923096,0.35579801139628764,0.28014836289568207,0.20693380096860703,0.15071493193566915,0.11545824954715149,0.100789798307377,0.09571240653716247,0.07623027369555656,0.0002886599237579041,-0.1602852020823115,-0.32418330490344255,-0.4024336039673091,-0.4217198572571783,-0.4174485557115453,-0.40935971976958907,-0.4064592966646962,-0.4099145572985748,-0.41757901063350295,-0.42870951546933916,-0.45019599685143746,-0.4706719625831844,-0.48146558007807333,-0.4834779732660898,-0.47288717345871695,-0.4360584035955392,-0.3540674112546612,-0.2091150051298317,-0.010807063863551986,0.19959530535040565,0.37512604755994766,0.4719749326054141,0.487754221396623,0.4428675508488477,0.3779129925804412,0.31578136721357214,0.2532362396577588,0.18588495070435268,0.11381415397989955,0.022739037732459593,-0.10789690858663395,-0.2726797528378903,-0.4260248022785622,-0.536533718921606,-0.6059944112442078,-0.6489928474267597,-0.6673594606239814,-0.6578627230192122,-0.6286542180957793,-0.5958746681844815,-0.5756928156759789,-0.5801017063183681,-0.6086895228605388,-0.6415078560461015,-0.6488413653870475,-0.6071066747046185,-0.5373712976851401,-0.5053463578505407,-0.5336333287113517,-0.5537195707270086,-0.4610176784609415,-0.11014775114273441,0.4363542984298322,0.7429086218820119,0.8559196681233165,0.9033027966481048,0.9265615194532747,0.93789550364545,0.9425279647711083,0.9416195815988598,0.9338732354412865,0.9217408129911642,0.9126354782132745,0.9120488120698292,0.919543750466016,0.9339075297018521,0.9508323743439997,0.9647029686913698,0.9720188527279446,0.9724945337775297,0.966073623006714,0.9525924622177644,0.9299626094341974,0.8874907784467825,0.7714405095533411,0.2615357408108254,-0.6897500074303332,-0.9203851400009753,-0.9575972581058017,-0.9625264624224321,-0.9598548547139941,-0.9528852615178991,-0.9410688689321557,-0.925432335439311,-0.9113344608320264,-0.9060951605283657,-0.9125039897957222,-0.9245123110526567,-0.9379578414128821,-0.9483201195703965,-0.9525425380946292,-0.9576027028675279,-0.9657778125463131,-0.9731041251069071,-0.9764579481103389,-0.9715513333633119,-0.9311907421411033,-0.1567975644420344,0.903555372975863,0.9558712595770735,0.9524127800491742,0.9162968825380595,0.7920342079382138,0.39324327718361707,-0.2171896309578929,-0.5260583996951705,-0.6161665403885263,-0.617729586274598,-0.5540855407184199,-0.4150286518437818,-0.2074531347263022,0.023260328387055405,0.23168493375505667,0.40921075570985965,0.5454046010996184,0.6322859791103831,0.6970532030215411,0.7579013375503748,0.801398146812393,0.8284712377501108,0.8497676902775404,0.8751837637751096,0.9062005298982121,0.935239146207517,0.955738160436307,0.9631702381557761,0.8934220767069654,-0.11224995228941635,-0.7362355036500324,-0.8291663163039719,-0.8470056355541353,-0.8360646832794003,-0.8056719724545777,-0.7849977637926674,-0.8172576284632221,-0.885966558114864,-0.9387935001402612,-0.9645851285010604,-0.9750199664484415,-0.9777037461989473,-0.9758841214028319,-0.9689732348939275,-0.95203715574581,-0.900659788027301,-0.5758401909502797,0.7783071187345637,0.9713464938480793,0.9916352968947759,0.9947888812283121,0.9936260626854878,0.9903205738260051,0.9857517247496684,0.980681082305399,0.9755892705702209,0.9703527084926618,0.963867750752898,0.953500136343275,0.9311342341302045,0.8660329457307575,0.5807734026032657,-0.3954804669000614,-0.8578001812529747,-0.9545623744164835,-0.9861069703424773,-0.9973100233186637,-0.9915372049022168,-0.971219820132577,-0.9567625683192013,-0.9592531672316282,-0.9685403473668923,-0.9761841543883261,-0.9801994479334931,-0.980659612120386,-0.9771291714117971,-0.967058188282091,-0.9387705664399529,-0.7862888382975228,0.7174691876920286,0.9689960903403072,0.9807560767583431,0.9798040413746638,0.977248689650198,0.9740755706400352,0.9703505170527797,0.9663306825747595,0.9624840123549637,0.9587383322405648,0.9549396529455197,0.9501602348833021,0.9423805247302665,0.9297841312937267,0.9117943304913815,0.8939216623865537,0.8836068266371648,0.8795688438280367,0.8725116058479531,0.8515677109737851,0.7961072689129581,0.6247305128655438,0.04514345422047253,-0.6345191969216654,-0.8294203312056063,-0.8588332998058492,-0.7901535699439308,-0.3358464196686647,0.7136724228514162,0.9424077793779547,0.7409471747265406,-0.6908534425490968,-0.8784028510896734,-0.9187992638027042,-0.9332800051661994,-0.9361130633999222,-0.9254621247696797,-0.8763956105672981,-0.4537110156437131,0.8823286895252085,0.952538713282681,0.928719802298584,0.8688669010984376,0.7421941875133061,0.408021076498294,-0.27120064273469935,-0.674648453950722,-0.7696432940444702,-0.7629953435977911,-0.7511360828522976,-0.8177352626908838,-0.9160814815360255,-0.8675318493553792,-0.594201262813789,-0.12344344841908071,0.32869037840141807,0.5919049900643757,0.7161041601799375,0.7627738253095205,0.7510723352989113,0.6841649757745065,0.5816977412782305,0.4645572590065199,0.31057107741763545,0.0792891737050582,-0.1953861466124607,-0.42520437996367166,-0.5806968165339795,-0.6807441811611168,-0.7472031513040971,-0.7918014806028122,-0.8178285903031571,-0.8231098688369909,-0.8027187206831281,-0.7376398646268097,-0.5499512377072517,-0.09571532049792783,0.325483621774457,0.3960948265449797,0.14594784410064657,-0.3777290829359021,-0.7277894269468359,-0.8485241109440425,-0.8780877615419698,-0.8564329187428383,-0.7498808045931687,-0.37047729089344344,0.40746592816046645,0.7707097924233332,0.772239539174898,0.6342117097556229,0.46117720494183967,0.31162992212418683,0.1965887222171561,0.10436346302327391,0.013731460425740664,-0.12029735711437574,-0.33242975418297627,-0.5633156615224386,-0.7214853259703358,-0.7984728216375238,-0.819683493259444,-0.7918186526184897,-0.6915909663119091,-0.4913815788226014,-0.2780433061976422,-0.2044960530315135,-0.2785186774844118,-0.3890518484078623,-0.40161457836060305,-0.18287909859511434,0.3176569729368994,0.6885627136338413,0.8255040579729717,0.8693315548231549,0.8825000151029224,0.8879672738781399,0.8956676617007038,0.9080350476236484,0.9200896731390418,0.9258828918968919,0.9216294207237246,0.9034348647261607,0.8573966561465458,0.7397986882018952,0.4415126538501876,-0.07879093174112274,-0.48875012160674736,-0.6803010016167248,-0.7747032519544471,-0.8440463874856762,-0.9006549182657155,-0.9336538744612778,-0.9461813727974194,-0.9461271772702062,-0.9342223795181277,-0.9039454372931096,-0.8352878356152279,-0.7008356079351046,-0.5146180558097307,-0.35271297708401456,-0.23429956503591826,0.020209764660794577,0.4556968938183423,0.6811336693183397,0.7706329827042493,0.8151944548289192,0.8413834375441909,0.856678508451701,0.8606123449905511,0.8458113657624285,0.8033040493935216,0.7190812415163521,0.5736113415680922,0.36956248865660973,0.19387730186962082,0.14499868032768526,0.21282669210521185,0.3444820483937224,0.4990364130875174,0.6395051490049543,0.7534031892860277,0.8446868913205318,0.9064677258079368,0.9403369556514,0.9554256178338566,0.9592208089642433,0.9518462828283746,0.9179061310696041,0.7718787898942137,0.05458085997083269,-0.697639087604885,-0.8622853961261887,-0.8946674412155343,-0.8767307303061382,-0.7827500983175524,-0.4903238634200038,0.03624952289024237,0.39809978034158544,0.542404742973921,0.6042921022594973,0.6483743236294912,0.6973405843800263,0.7469341478418969,0.7809524344897322,0.7870610953342777,0.7679079172928654,0.7453815394504856,0.7459148758341348,0.782514041010874,0.8374400896239454,0.8823112372363024,0.8819843870729827,0.7319407190735926,0.048453176312608766,-0.5934224887165361,-0.774881791421647,-0.8364125430749076,-0.8726345945189251,-0.9035067768533392,-0.9210009784032439,-0.9224573181809449,-0.9172859500910405,-0.908324534143101,-0.8918323479524232,-0.8590023860471929,-0.7906129733244684,-0.6345564137420258,-0.3144902051562255,0.1036529508832001,0.3850481004449622,0.49101800184816957,0.4834865236240492,0.4142866622917145,0.3219839393639939,0.23561802623644165,0.162792182303012,0.09448690160686338,0.028393575694186865,-0.02907179314111383,-0.05361881119569088,-0.008598214455324384,0.11123666957968098,0.2577154807003563,0.3604645869419577,0.3870925309638152,0.34536997019934834,0.25954104991069793,0.17005316919291577,0.12360789836081847,0.13186127300800626,0.1704241239777539,0.2178362215262877,0.2565830018210721,0.2683411566887004,0.23350772319237614,0.1449099170035241,0.019219297253680878,-0.10737633423722551,-0.19497393398826726,-0.2283885392893729,-0.21415163031387643,-0.16714650609009488,-0.11261270867692466,-0.08890237188598277,-0.12595879691928424,-0.2271796139463009,-0.3553541906294055,-0.4617331163246421,-0.5200089278593641,-0.5181084255608305,-0.40855767610841487,-0.06250485245516077,0.455641102397943,0.7381219987964671,0.8383480124646006,0.8782191284197008,0.8998771064405704,0.9154573932399965,0.9260918380530792,0.9292542495939775,0.9233724765380834,0.9050746288730639,0.8637479379421982,0.7709076158311844,0.5461248814787485,0.012923690845491182,-0.6159350860366316,-0.8776334212025371,-0.9533072808239957,-0.9775478924279687,-0.98757319498874,-0.9931354568674489,-0.9956174467539938,-0.9946670670001748,-0.9897132325453587,-0.9803725864258425,-0.9656089940514091,-0.9435624469823729,-0.9159007351719237,-0.8901965341028633,-0.8685101178807879,-0.8425385890807036,-0.8007338659018414,-0.7130502135111024,-0.4533420818850225,0.2965882688148367,0.8155903030575837,0.9250072486630451,0.9513556745125001,0.9588430058873153,0.959692486363067,0.9561071268762096,0.9473462211737503,0.9302108639870507,0.8944586348052204,0.7949362515853602,0.3947626800153944,-0.4403299065647436,-0.7984109555451815,-0.9037097278478808,-0.9463953853977699,-0.965482799555524,-0.9728158500684351,-0.9729275577461169,-0.9650187559733863,-0.9369781633586286,-0.8227203795840831,-0.27378112139722194,0.3794077508102194,0.4253369743401524,0.2020378650709769,-0.1471604949385163,-0.46040155214877976,-0.6449408547634788,-0.7091921769404848,-0.6440189640262471,-0.24168354834887668,0.5870869120817517,0.8899034130033289,0.9531215044418863,0.9706502872672095,0.9755418062351889,0.9725054568217362,0.9591233239228195,0.9288284313073105,0.8842034161937891,0.8570275674488114,0.8666735543906863,0.8889811059629528,0.9063362601360408,0.9174821251539602,0.9268229860817017,0.9362634248049752,0.9460184737780536,0.9546354796259745,0.9578730131680483,0.9446591080966288,0.8267679610583057,-0.41748215028358604,-0.8932318756345327,-0.9375051678196179,-0.9361277674133004,-0.9034605341110251,-0.7735843277229469,-0.2989788007458149,0.388771630009997,0.7287504544046666,0.8676358454445088,0.9275192297194518,0.9565997920911092,0.9725585892820814,0.9813219903025432,0.9805067708672309,0.9607104336178196,0.9218751531899142,0.8850171818353479,0.8626497138147471,0.8494364102418955,0.8404233169581589,0.8372277169755307,0.8484815113499413,0.8723600941939229,0.880888764190385,0.7415063167014475,-0.5966149449346673,-0.8986086306966056,-0.9078773695802345,-0.8149774791507369,-0.22423575601699539,0.3930755829364501,0.12346767758652923,-0.5778544245018212,-0.8567644283541199,-0.9286003146414438,-0.9491227529859501,-0.9520686348123067,-0.948154543374194,-0.9445796314760372,-0.9467537983608391,-0.9547996027301933,-0.9640505573100063,-0.9697393392908428,-0.9697498232761574,-0.9646269582287142,-0.9564526433163467,-0.9486650498234216,-0.9448375901682332,-0.9456907710157424,-0.9475571560405321,-0.9374984509318652,-0.809878501654801,0.589958918731884,0.8836883362486749,0.896495202096403,0.8353616348558417,0.5899469147584406,0.16852575978497095,0.1121834144360274,0.4556603743755722,0.761743863580629,0.8776133021171282,0.9145526736936521,0.9239728251964422,0.9202834580951642,0.9057810011043635,0.8835383592448127,0.8654601274540896,0.8611508872065918,0.8663604758275624,0.8741885133711553,0.8813338966064637,0.88704500948235,0.8911484379312953,0.8941603782234889,0.8970449172831706,0.9016438491086483,0.9079337783646849,0.9148185149995524,0.9209065627138905,0.9292791113156271,0.9441209043273681,0.9614402294143024,0.9714853609377841,0.9707414244868405,0.9560886359791763,0.8876581692967189,0.32786940354983074,-0.6608790314050317,-0.8370210634666888,-0.8801035669173801,-0.9059477792081809,-0.9323217720605883,-0.9529547183006184,-0.9631329164778336,-0.9642935144564989,-0.9600232827133134,-0.9522612859325554,-0.9428279077653449,-0.9352194892036619,-0.9347308180496097,-0.9410080449318876,-0.9481660350880102,-0.9502096547845243,-0.9391275033391759,-0.8841537921136113,-0.607154482100078,0.1815201209775923,0.5808547669160039,0.6673438550494669,0.6844652233017235,0.6898845388295648,0.7006280783087799,0.7261454985292054,0.7643632336585945,0.8030001168761308,0.8342128537797383,0.8524656365299677,0.8608104424225864,0.8644847490370945,0.8707617236525573,0.8802530863998475,0.8888746403183003,0.8964306049968205,0.8994295838524705,0.8804696432785669,0.8068742931547817,0.6402072699668667,0.37430375721177656,0.09867645226135409,-0.08446396055963293,-0.14648046492477051,-0.09664561271621021,0.06960170821833181,0.30144743584606076,0.48496878345388994,0.5531545800841887,0.5363944983955917,0.4635684634145478,0.3720241134493308,0.29692538244235483,0.25367460851143014,0.2467033116800567,0.27022200866265006,0.323715823303138,0.4118407490035459,0.5327331853747629,0.6592657788799594,0.756919186201777,0.8141490380350062,0.840755028059255,0.8442358655644618,0.8300156989714023,0.8008664970071214,0.7497591796358029,0.6480134860990846,0.42214425551468426,0.026705794032630237,-0.36097062215606657,-0.5964184317437297,-0.7220870750132611,-0.7926612020373975,-0.8313132558964347,-0.8490404665706935,-0.8514098359359806,-0.8404263771559766,-0.8136442482210037,-0.7701450794326755,-0.7135296834110346,-0.6690008004540895,-0.6772499101243973,-0.7368239624500901,-0.8066273868669893,-0.8592030121080252,-0.8884508400502497,-0.8910562619573255,-0.8740727390356664,-0.8537754797239665,-0.8428656284256739,-0.8500688055504539,-0.8594683460574094,-0.8425637543489737,-0.7943585872769319,-0.716067971297232,-0.6037059470527297,-0.44101669108103625,-0.19592678153653592,0.16199864811855744,0.49067342243012396,0.58128807511007,0.5352748750895668,0.45393626385606173,0.3719076174055506,0.29769298049540344,0.23350572943721137,0.17886774469960878,0.13754307895227533,0.11498564744021467,0.12383830601077842,0.1702654777554733,0.24812557566083238,0.3414913495874472,0.4365502549286895,0.5260090143474665,0.6077795755975114,0.6690036194666654,0.6801286357084383,0.6170986732345916,0.517286631676199,0.43261980966115,0.38361532435813356,0.36366977437070785,0.36113342345643773,0.36983838800030966,0.38527194274347687,0.3956353757991594,0.39482293774785177,0.3808309320299558,0.3545099813981391,0.3257182379544145,0.29927812482801,0.2710930021048689,0.23923843601782818,0.20785181385116117,0.17844836558057472,0.14363230130913796,0.0971301129246528,0.03617816063955276,-0.03375510534235904,-0.09670233246485435,-0.13497739797033523,-0.13731519035004655,-0.10770208147725652,-0.06565262336267425,-0.0544943043911768,-0.11625591238109824,-0.25408998315314224,-0.3938754014468546,-0.47195467949402464,-0.476682292246125,-0.392543501083667,-0.20040390757483306,-0.02636064086999577,-0.03198065039501621,-0.22270390321194625,-0.4300013143389875,-0.44614977059606054,-0.23126457763952823,0.14270219550270788,0.4661446352606915,0.6400701998946443,0.7242828497889399,0.7776837055470555,0.8173590762995112,0.8402886683938042,0.8421217509667559,0.8190864282189516,0.7674516675027891,0.662697277533266,0.43863162025562286,0.032806249168042416,-0.377921854899957,-0.5893995945714635,-0.6635598948711039,-0.6997482339897328,-0.7551362506600373,-0.821744222170913,-0.8641231638016645,-0.87672788829723,-0.8565570844072627,-0.7842783119222849,-0.5932834536049825,-0.18830516239916664,0.22257459146786857,0.3653022712544351,0.24264883481953148,-0.0888343283461177,-0.3955988924928529,-0.5075846751547727,-0.3871833439017813,0.1922468525886479,0.7753842392110136,0.9098172738224672,0.9352319318866068,0.9360670825066841,0.9255358290715451,0.9060051297484075,0.8809272582009177,0.859809035419991,0.854219978328917,0.8680198796835485,0.889317516097804,0.9038425880175431,0.9083220603303235,0.9014874722338154,0.8769036670492679,0.8146288583240111,0.664483691270691,0.31762997086225664,-0.24318845901031627,-0.6581746378681385,-0.833909000174616,-0.8992213192468455,-0.9224003834691459,-0.9291488281804177,-0.9290884115753277,-0.9243406979033397,-0.9079604163222731,-0.8358114465605561,-0.35055618087787543,0.6939447287008867,0.9035303407086162,0.9458943983927425,0.958811522348299,0.9623174913813614,0.9609379162668019,0.9543048003649931,0.9383184041094271,0.9060138369048193,0.8499914572200683,0.7469261752391689,0.45806614505567433,-0.3417848560253058,-0.824533502199658,-0.930808318493057,-0.958470468073916,-0.9650782149861812,-0.9621268565458716,-0.9538006180824103,-0.9442277112643314,-0.9402879585645708,-0.9471104116653944,-0.9612612106498436,-0.9751806733113697,-0.9852286871987065,-0.9915964061722687,-0.995294723504831,-0.9960902021287089,-0.9879946993206234,-0.9074059514122923,0.10620766524774636,0.7881534255737422,0.8798346643035722,0.9021831367508274,0.9090763546674555,0.9124257818556918,0.9155608391329216,0.9186537480801303,0.9231076303935521,0.9304516634881365,0.9366695241960404,0.9374584291878804,0.9336045563738081,0.927795288957281,0.9169294797678962,0.8840511423731355,0.7925727788358315,0.5805727392691863,0.20518835538045305,-0.13617785699443255,-0.20469936591193702,0.056660499721915336,0.4697347664283903,0.7324362708770731,0.8523302146256226,0.9109441014731999,0.9450908588852238,0.9660608345510108,0.9783201207255028,0.9845110723465498,0.9863545267632979,0.9855289864090709,0.9841759065593886,0.9850837914290188,0.9880933809433682,0.9900785573880552,0.988993805272701,0.9836966863135528,0.9722163137693537,0.9478581907238965,0.8862521255743548,0.667013433668042,-0.12262154236792566,-0.7301096207904361,-0.8617328859259952,-0.8768608435966591,-0.8246304581956044,-0.6244939595569585,-0.09889974381048712,0.4244965174159601,0.645628823375468,0.7283806398410474,0.7623941746965273,0.7840335365077483,0.8133403786528609,0.8520666381675832,0.8902990995450719,0.9184170540352085,0.9344346370504344,0.9413831149498735,0.9400283633155914,0.9280987274820995,0.9045626075504776,0.8789074387971096,0.8756658469605026,0.901706368000958,0.9323783563098955,0.9496271331040682,0.9498844107878629,0.917711741247362,0.6317553448567559,-0.7211875903125355,-0.9400214347733062,-0.9724729704837194,-0.9819259163746186,-0.9850312539740401,-0.9856753182002325,-0.9855835646898709,-0.9859251072809189,-0.9869330977804439,-0.9869395496442345,-0.9854831378384745,-0.9832210478583231,-0.9798982897683413,-0.9746905977831603,-0.9660442645926726,-0.9519883342230031,-0.9284123128340321,-0.8847588527328174,-0.7941037781187974,-0.5937730700966,-0.22170862632763205,0.12643104518085418,0.19151524583234633,-0.10674790739457657,-0.6282386847357493,-0.8747314408473896,-0.9362276086249397,-0.9463282524386075,-0.9349264798264415,-0.8992541432258089,-0.8163936275606639,-0.6504827293637404,-0.39558528342187577,-0.11357715222683183,0.11012547257186246,0.22617636819268833,0.228538433325824,0.13588968276299074,-0.00397430416182455,-0.14558917948772188,-0.2566206671117986,-0.3066999097465487,-0.27031360667505083,-0.11997298993098478,0.14882935894548383,0.43172281332939866,0.6013494233609773,0.6520149238370606,0.6290479452912676,0.5497957658862955,0.4357321207636868,0.31619807718842824,0.22721126544530637,0.18553806898610328,0.19854863324463431,0.26450479812591166,0.38148916288066775,0.5203049289281895,0.6435206993149755,0.7301266691059894,0.7715518478565839,0.7630707431743602,0.7062286067664354,0.6251474620951567,0.5640768396125301,0.5548110875638963,0.5987116098435874,0.6749002281922519,0.7547659177231663,0.8163378517730401,0.8544199934962896,0.8741690417389627,0.8835967679118863,0.8864213262578544,0.8735532836511333,0.8392563089665537,0.8042457841868005,0.7881303735135167,0.7852192898047264,0.7870698572680627,0.7839867647437067,0.7739171315028608,0.7594560746293875,0.7479183436035027,0.747330310280444,0.7549601743699554,0.763296696949974,0.7674850382238981,0.7619090833672535,0.7326020757404758,0.6592749528827657,0.5339015478233337,0.3693368004254801,0.18444868599596806,-0.016874614648787107,-0.24876452229689278,-0.5017995618112558,-0.6984158613733822,-0.7977210267380908,-0.8433472274952241,-0.8680640657767793,-0.8814015840757672,-0.8852557090924535,-0.8786600578714535,-0.8571827056251633,-0.8093884872646238,-0.7162818242382528,-0.5751433369280324,-0.4295001105897324,-0.31856919612243206,-0.231601161742724,-0.1414970506748651,-0.02652007071961595,0.10284044257860007,0.21899196511961913,0.28295783615743647,0.2749640199451248,0.19586753167841722,0.07919975804587977,-0.03574039588224534,-0.12256673282699518,-0.18541365468594406,-0.24215346487310097,-0.2917381841946654,-0.30101849173107986,-0.20589624464425954,-0.037444364196858405,0.11747400623087081,0.2340036830992553,0.3119434488569895,0.3531819883852672,0.36031722263734856,0.338562889172322,0.3026807316653302,0.2701324407732899,0.24898615217781095,0.23828667538509463,0.23800776326134815,0.25429007773171236,0.2884211110976517,0.3340594567052367,0.38572828946514326,0.44129516153846904,0.5010206414847291,0.5609199978035326,0.6106366969928745,0.6474123863433402,0.6695245914412938,0.6755890719340145,0.662581864044731,0.633293601070002,0.6034901406998402,0.6020338081095863,0.635364068326029,0.6893130833156214,0.7489094523505726,0.8025644037201677,0.8400379112409303,0.8614023179966964,0.8748499920805225,0.8830665648404648,0.8815195720385602,0.8601484659288855,0.780296606479562,0.5513783226265633,0.00427836823991476,-0.6090761196244884,-0.8433808139444724,-0.9053440946650786,-0.9186694701575078,-0.9047473134023359,-0.8562890314237672,-0.7651475234515438,-0.6680450602295364,-0.6226300554393899,-0.6275881151860127,-0.6519031243115714,-0.6726882575035011,-0.6786155378435073,-0.6619269543155549,-0.6001658592888849,-0.4308605193543339,-0.07426249966034855,0.28690775420797815,0.4667066248742635,0.5374867701525103,0.567512371320237,0.5791144702892576,0.5765172874894039,0.5581768981786311,0.49545093824984116,0.29360856680373304,-0.17856760899900456,-0.656522821425181,-0.85807288202591,-0.9241834248116617,-0.9318564994158134,-0.8333557153001752,-0.25858241681322375,0.4444920692999631,0.6565714400452238,0.7074899507574732,0.7111677266284973,0.7035617521093146,0.6962282891621209,0.6772002016021338,0.6119715030789438,0.44462586548824146,0.10605196265496071,-0.3174834771808759,-0.5979153968928108,-0.7247655744663611,-0.7660365435824801,-0.7372811575786868,-0.5687072398085729,-0.04084490367827246,0.529888657343999,0.7309731826400857,0.7901236239009999,0.8102916464293041,0.8156213043199241,0.808800950479945,0.7823371711974394,0.7243248789490863,0.6213811055416729,0.47332026363219704,0.28780761030363694,0.06221278582183967,-0.22943355545389343,-0.5541876354355547,-0.7809866549249722,-0.880344554443934,-0.8971382942749733,-0.7399256217573028,0.5227206634050129,0.9162355110598511,0.9648417299650521,0.9734506886176275,0.9549782640099237,0.8820618902576561,0.762231402736199,0.7102520302252596,0.7343457615490484,0.7452729965711471,0.7127355586083349,0.6490987580888564,0.5980501905152176,0.6070429393800713,0.6659340323155273,0.7203705857105638,0.7489404760165649,0.7382554462316504,0.6589566029167192,0.44483645919413073,-0.034284443046139944,-0.6109128656670615,-0.8700933343153866,-0.9487283437654972,-0.9755198515034152,-0.9869061974621681,-0.9922449659869051,-0.993634159393004,-0.9907626691767448,-0.9826052483421155,-0.9698759883095326,-0.9553268110356173,-0.9436799644753131,-0.9390390680055714,-0.9418060159497207,-0.9482997826125034,-0.9528666470217423,-0.9456463029389631,-0.8624960418845322,0.5916493719079733,0.9565558058399908,0.9805111837450231,0.9855725282648561,0.9857835628722357,0.9824432063351448,0.9746281918104841,0.960168996412778,0.9388910671647004,0.9149744836454473,0.8950564327235293,0.8816450943794056,0.8740111181964189,0.8702673958941491,0.868498570803693,0.8685470616648718,0.8666183437491816,0.8590681884784706,0.8481523203731604,0.8394020764579918,0.8344260229390326,0.8308591499618313,0.8224759718983422,0.8003547726563537,0.7569540141247761,0.708112747707601,0.6921655645339594,0.7198343975996531,0.75759974816365,0.7788724181576958,0.7776662361818096,0.7612253343189701,0.7389185956975879,0.7200673951389593,0.7170430303285392,0.736032421844259,0.7725878265137491,0.814413074507102,0.8493009570976159,0.8770941678530174,0.903778404231206,0.935013847503592,0.9637424275355493,0.9758739467021644,0.9725953937446374,0.9597983411494468,0.9292172184037626,0.8060809113427223,-0.053077453500847534,-0.8490096165580143,-0.9560555889499159,-0.9802845175257018,-0.9859011699857795,-0.9814402512435645,-0.9675840944980446,-0.9437933564403487,-0.9063222239858211,-0.8457537951682123,-0.7504514699801725,-0.6364244557517403,-0.595914781830343,-0.6781487940877626,-0.7820326364985819,-0.8465989573120613,-0.8807827013157923,-0.9001309790216514,-0.9126145655995666,-0.920291627986883,-0.9232976156729177,-0.918665649951787,-0.8952362752652567,-0.7883277379333983,-0.06060282411770516,0.7910498980409707,0.9153415028383474,0.9419773464907876,0.9495418980452893,0.9505652285627562,0.9480225877419929,0.940970224155718,0.9246837240895776,0.8989535147309682,0.8689555661256093,0.8337885051280541,0.7769100683007029,0.6600945354214626,0.4067271883584725,-0.03576006228876558,-0.4361668646195044,-0.6028052712212194,-0.6044935033416005,-0.5513344508275115,-0.5855342359447168,-0.7517748244340844,-0.8998461587739968,-0.9607330889080811,-0.9802452099538993,-0.9864805705750895,-0.9878119832985517,-0.9858998091527558,-0.9787431086266051,-0.9555331790127921,-0.8573048361010064,-0.2006165879951857,0.7656814960816087,0.9269204731687599,0.9588514783527675,0.966330489850512,0.9658563638912903,0.9585905276716332,0.9338074588203249,0.8224807282975931,0.06268097899675047,-0.7913971866907009,-0.9280698426897901,-0.9611765547966636,-0.9731452614549831,-0.9786029179492202,-0.981811371684532,-0.9843163543112449,-0.986725982515911,-0.9883182914741361,-0.9865983044696536,-0.9592472738570957,0.8468425026960738,0.9861197084191408,0.9923097047276068,0.9931250495509848,0.9924497667872784,0.9901691542701779,0.9822986607515372,0.9631957224268546,0.9404831377222944,0.9290288230446273,0.9300903144581051,0.9389955029431073,0.9508842766444224,0.9616115968311675,0.9653109053484401,0.9400536591022974,0.7308079750154387,-0.11468033151967329,-0.5458348092162993,-0.5530226692560363,-0.3312023851317387,0.04462541359020209,0.35107111853639145,0.5036115483267883,0.5573588426426129,0.5540002441184251,0.5167297421767667,0.46756443435185246,0.42341681846837675,0.4064046741456968,0.4383549256635117,0.532407052523076,0.6724825116748837,0.8036835386433199,0.8780675709154708,0.8917536675335919,0.8696480548177699,0.8287537416478646,0.7701186154332375,0.6959602454390778,0.6320908039407427,0.6013095482590434,0.596665067129892,0.5992759775541847,0.5942510299639011,0.5802156106505042,0.5593662413067805,0.5346062991687102,0.5055720288124697,0.4652253843672982,0.39689070807780247,0.28107196578319577,0.07770575851118341,-0.25369006317678966,-0.5729606889713421,-0.7265688699473567,-0.7661683214475933,-0.7470132010167666,-0.6816292473713855,-0.5712811827342313,-0.45253966767452836,-0.4111597403828423,-0.5006498061962164,-0.6624322025158559,-0.7880824523943002,-0.8450077818133276,-0.8498226112677507,-0.8003880616152782,-0.6699485470149851,-0.4446049865285593,-0.21153974664650177,-0.06067431226835549,0.004291292823807715,0.02652047035556303,0.07042904302951798,0.15143928117242447,0.25252181515981126,0.3556109443264221,0.4576343081514848,0.5478560111638506,0.6117384477152322,0.6319566894226308,0.5747817901942139,0.35748064675677427,-0.12012347075933184,-0.5677829643312291,-0.7749644430207933,-0.8551716197068333,-0.8768517782166689,-0.8663587014300537,-0.8435237307538601,-0.8227174650292393,-0.8138837440118895,-0.8157563105094994,-0.8163457639689925,-0.8022449629664928,-0.7624068258848871,-0.6681984961421089,-0.4502933262354025,-0.04130946437461848,0.34643397455321323,0.514999035743994,0.5292314416993439,0.45413989787893966,0.3346551484154417,0.2272635265290959,0.16614098497880783,0.14890815896379178,0.16502762139518168,0.1900824129222242,0.2046094381891276,0.20535378913573796,0.1855839626752556,0.1336191958346224,0.04690861240203146,-0.048347230221738306,-0.11441320290893206,-0.1301468063681442,-0.10466299453980396,-0.05719803025281941,0.00393337090779569,0.06886933638312086,0.11322288222421487,0.13316173994404742,0.14174808578789203,0.14429133951868936,0.13966589072430474,0.12496360125049115,0.1079979839693708,0.09732234921672189,0.10300375516810789,0.12458681999132272,0.15470465255861193,0.18258087464538914,0.20906179921888307,0.2445178891315631,0.29544296518812596,0.3592647913664494,0.42113841755310155,0.463338847101752,0.47622721796339723,0.45205723124239283,0.3892707860934534,0.28915127043167005,0.18283707974376137,0.1281993504199364,0.12672703615555506,0.15398618359486754,0.1929610658496812,0.23232411931272612,0.2533557709683495,0.24404279168353582,0.2149446490105859,0.204933576347956,0.25172224675167243,0.34063530579550194,0.37054818019709485,0.14774625039213485,-0.33251428174379366,-0.6228535257075931,-0.7303575453001975,-0.758460237342472,-0.7274146148079107,-0.5814484851302384,-0.0832407480442822,0.6091370090521845,0.7681445015237185,0.7389643117734173,0.6740119576966414,0.6189890351684323,0.5834615892321433,0.5355698432745775,0.4201255312777051,0.17502127801006295,-0.1757107395176274,-0.44508910197607887,-0.5791497724327699,-0.6318606050458544,-0.6447552028528691,-0.6357290781988204,-0.6172287946111802,-0.6056286964941989,-0.616371089703252,-0.6529110019120202,-0.7001419083851388,-0.7487487011648942,-0.7975768481933443,-0.8313097520683761,-0.8374778117565845,-0.818098838599204,-0.7758694183499231,-0.6968687401325884,-0.5304728606641058,-0.16145620061223864,0.38556438621686995,0.7097216734754124,0.7873424847723297,0.7830569957430743,0.765001351095841,0.7578243627636123,0.766826118348977,0.7872954028456756,0.8020174127251929,0.7918138424789795,0.7658577578133633,0.757351604123916,0.7829147732694004,0.8243522726584905,0.8577489560616726,0.8751051262744236,0.8782409839414129,0.870654955991324,0.8580789683295904,0.8418446582721095,0.8096469034816134,0.7258031206847246,0.49764746820426087,-0.011940881086495166,-0.554669996858995,-0.8068301420804777,-0.8918847075044396,-0.9205728671751455,-0.9293135818715194,-0.9233775982447329,-0.8937063611035951,-0.8027726995891478,-0.5353612858682172,0.049350562517313665,0.5356301805823974,0.6970970980945786,0.7035760294768943,0.6232909494264683,0.499284903650763,0.42376472518007896,0.4677237648324272,0.5704211234107394,0.6540797961851724,0.7130272859209666,0.7570607640403201,0.782747322546664,0.78636847028206,0.7636431765252688,0.6989709067490792,0.4810522581120104,-0.3104373615878221,-0.875761176640059,-0.9660566057848545,-0.9822514371186862,-0.9840165939676498,-0.9823218308392943,-0.9806304596964714,-0.9796422165806794,-0.9788535465042583,-0.9770747090727483,-0.9732517414576627,-0.9669866785075414,-0.9587642814457802,-0.9487149338905275,-0.9366716769589577,-0.916823070362829,-0.8673862080987669,-0.6746631154072943,0.04183236608819392,0.6487458355118061,0.8273688035134079,0.8920634069113845,0.9235831836794614,0.9400823548697828,0.94872199273336,0.9542811019211302,0.9599611114646666,0.966206914048909,0.9715207246150291,0.9749143591747131,0.9762382780281779,0.976413191469811,0.9759638113321658,0.9756920280609055,0.9747250935480716,0.967465700434836,0.945655797365564,0.915806031906048,0.9060950518382965,0.9169478363337109,0.9278910627492492,0.9314181285608681,0.925352944870887,0.909524205670143,0.881445368763762,0.8344566029740711,0.7546536029346642,0.6058991321087182,0.32935562798198154,-0.03336379171945697,-0.3311483921377063,-0.5472258903899474,-0.7087368554091602,-0.8216238219699328,-0.887884807541711,-0.9199101972077842,-0.92961123213599,-0.9211799115973592,-0.8952601989160831,-0.852129718826973,-0.7998511171549264,-0.7646083477029283,-0.7636362774806665,-0.7940837686124247,-0.8342655640971354,-0.8665969279493089,-0.8916612002457738,-0.9191767127543949,-0.9453541827933452,-0.9635370481178402,-0.9743873788565004,-0.9794701534010144,-0.9786917225298859,-0.96822753199741,-0.9315939782311247,-0.7998604634665211,-0.43880434461235807,-0.166720418258749,-0.28518092930057953,-0.5761715443791768,-0.7556243116306065,-0.7913697894025044,-0.7203583858173382,-0.5766914092652464,-0.44948066161921335,-0.38547475338876847,-0.3754163628865333,-0.39573031764358796,-0.4328264728130851,-0.48145371462306735,-0.5389397725886235,-0.5915707612551007,-0.6153800632167594,-0.5915589372980778,-0.5037672716684576,-0.3386165877761904,-0.08853575762929235,0.20961300924531134,0.47466366737807175,0.655513081033248,0.7552092139258655,0.7975303386209942,0.7868854762070121,0.7030053130588063,0.5052291378871951,0.15961179402626255,-0.2612734282671556,-0.5417331645792656,-0.6401054426990349,-0.6084108315448673,-0.4350043378741914,-0.05167442023831719,0.39871724363269456,0.6499483400203289,0.7237554391375539,0.6878347535677733,0.5533435781986538,0.41013603929064235,0.4671377109261351,0.6981097293736386,0.8532246856607867,0.9127095803503037,0.936104249675971,0.9458363733199786,0.9490747342004741,0.9496038044843342,0.9487998078554454,0.9445239128369513,0.9342476179245915,0.9118846103076549,0.8598972544719282,0.7174109716985995,0.30483807098151994,-0.35831803700215137,-0.7163775835393261,-0.8338549647328337,-0.8646908976008122,-0.8567491008818481,-0.8428493488238707,-0.8686052758142805,-0.9238850973630504,-0.9623580615323389,-0.9788778000973563,-0.9824632347001061,-0.9751070024112228,-0.9380344697919205,-0.6139714646530748,0.742380811325219,0.9405152666731583,0.9711988757452625,0.9797669766533287,0.9808180015566278,0.9777047855936172,0.9723788740275289,0.965473389273132,0.9568019506202204,0.9457847295710692,0.9304055029071757,0.90827137333442,0.8755815724439094,0.8182011234363162,0.6886182371643531,0.3496877355457399,-0.27568468835554405,-0.704654526509835,-0.8560500612381874,-0.9013286609955257,-0.9049274864295669,-0.8827096416716995,-0.8341905696460558,-0.8118361132206559,-0.8941215363920971,-0.9561330168118106,-0.9756587830034721,-0.9808610784924032,-0.9805680531929309,-0.9764288858480346,-0.9669763383091147,-0.9458159373488968,-0.8939044898143076,-0.7578115364980975,-0.4494431468134931,-0.07979356855538165,0.10439633601365943,0.13648962303917736,0.17264429123798095,0.3373111872267416,0.599396022994043,0.8035852007470884,0.9099216366889687,0.9599452237515047,0.9835016514089989,0.9915129297804802,0.9892248926518884,0.9845128093396054,0.9828262335004837,0.9835632076988712,0.9839049542548979,0.982521809766547,0.9788952893439944,0.9712567535242851,0.9561949019890984,0.9234063745673093,0.8463388597701731,0.6867903428452712,0.48504672748379873,0.33400968954814336,0.18049918512663232,-0.1598357473374904,-0.6525051426093187,-0.8915926266814175,-0.9559658066581038,-0.973565398656605,-0.9776413718445233,-0.975563305459073,-0.9679859768347544,-0.9547132526943818,-0.9359055120667734,-0.9111120393444255,-0.8812720206684515,-0.8525485971540567,-0.8374073589070222,-0.836799677313138,-0.8355745555629994,-0.7979600686992925,-0.6403495588676299,-0.14420945867526408,0.5111416621491306,0.7833167831786054,0.8711636106007594,0.9020028378553802,0.9112050388237088,0.9135297055743318,0.9177776477855171,0.9272095091813636,0.9407704211493529,0.9560408874820207,0.9715666818693466,0.9831457459902979,0.9867956729756736,0.9844457386395187,0.9813863180703726,0.9808191309553888,0.9823354589277797,0.9845370399139951,0.9860516289316807,0.9857690371426356,0.9825412438371754,0.9734220319718105,0.9510695936622545,0.9002416078318481,0.8049057795888173,0.6754237207915985,0.5408633908803397,0.41705738619332305,0.2925745532853333,0.14107688044820388,-0.05438385653137915,-0.286435835865044,-0.515166389742073,-0.6898191731586653,-0.7940844724192804,-0.8513148420828595,-0.8850044291242023,-0.9060237277044331,-0.9191770578310263,-0.9235642437320053,-0.9172632819342852,-0.8991427431360749,-0.8673725693234655,-0.8170114074572559,-0.7357268343349798,-0.5965747308639429,-0.3622175900886472,-0.03273159469454875,0.3157305499054515,0.5780443577151504,0.7169568078715611,0.7986039969924426,0.8653397416054451,0.9186862711392911,0.9531833988933299,0.971996469315217,0.9819332724166833,0.9867225179692151,0.9830613069682023,0.9437898743147868,0.6531202397605439,-0.3384185870446114,-0.7485334919361694,-0.8540634639111361,-0.8924182156811541,-0.9079711020231968,-0.91021336153015,-0.8969597115587569,-0.8466000168336623,-0.639658476646993,0.1499019090850042,0.6826000448384694,0.7613986788683872,0.7150697647010692,0.5886928184101444,0.40277550850743365,0.23555565430523123,0.19518519673845477,0.30588421287325945,0.4461467018919694,0.47722022557521343,0.2889634140245139,-0.19987458068413982,-0.6306627812431062,-0.8109069601668509,-0.8839639091874667,-0.9217256871668907,-0.9459915916308891,-0.9623979267511406,-0.9731597442630329,-0.9803433411788867,-0.9853580730663707,-0.989314715488384,-0.9916523192076622,-0.9904901918606364,-0.9861327142643065,-0.9812657519438817,-0.9751192674309606,-0.9625004498421055,-0.9309039687377448,-0.8524952196644116,-0.7054308026360919,-0.5630053380506926,-0.5170765052368755,-0.507916190766829,-0.3939581340548053,-0.018672250110808912,0.43571381120465785,0.6500912018002585,0.7234612887529958,0.748417525824699,0.7556199866880606,0.7563191758428656,0.7532089075710054,0.7504371013010507,0.7500786565822327,0.7535783391388274,0.7617567566385717,0.7739887545497878,0.7940148331764029,0.8218735733077254,0.8532285349005815,0.8834094504202717,0.9086257943816471,0.9275666777205268,0.9387646346923664,0.942157181812075,0.9389564427188319,0.9329332814443732,0.930499832248416,0.9338699290977499,0.9391508199826533,0.9386388882511775,0.9220670065782386,0.8621268118745038,0.6690886484078955,0.2767209639503582,0.08597012809148763,0.27729325827001267,0.5997582195255948,0.7807530143214387,0.8358059319185529,0.815413100376205,0.7163997047584144,0.48615243673015707,0.11409609190940843,-0.21396393827836133,-0.3847716834174397,-0.4441717980798844,-0.45396728182228535,-0.42552276964195707,-0.3116665049729153,-0.21121394462060084,-0.23480487483260065,-0.31843661151889063,-0.4182189159568717,-0.5253737265238851,-0.6217264048943801,-0.6834399626310963,-0.7112580085997868,-0.7222806695637269,-0.7322602906249446,-0.74762177475389,-0.7688884884107529,-0.7972100576533222,-0.8323412465697413,-0.8657307002038664,-0.8847847617185852,-0.8887800555665755,-0.8721131389537444,-0.8165639739558875,-0.6561810639950828,-0.2032253364200689,0.4708472943419676,0.7953954794058455,0.8944794287735555,0.9203604168573865,0.9150454143321729,0.8871963080810742,0.8422644522585481,0.7883683199379914,0.7318892805628529,0.677314178827443,0.6215908706561315,0.562507403154095,0.5098354808107569,0.49446968738131497,0.5314302608610781,0.6105147563211973,0.7080708698496904,0.788573362385224,0.830372902701551,0.8354054817253702,0.8117532246486044,0.7651660434109164,0.700828447684013,0.6292798383807341,0.5585525397167055,0.48493335064931187,0.3917621109347057,0.25675339148600584,0.0796165127040667,-0.12352230592188912,-0.3088686099887113,-0.4380227137292156,-0.503522736824166,-0.5158613004527159,-0.49831556945103406,-0.45974445238373196,-0.3915832950095936,-0.2894473346815466,-0.16170298309313022,-0.0046477914230183565,0.17706465774159072,0.3515665500544676,0.49114756460750286,0.5832980289146524,0.6302783723077461,0.6112298052118118,0.5210948764736848,0.4339648535932329,0.45047625009132786,0.5726498330150972,0.7087957281461493,0.7906158290171921,0.8223856316394648,0.8183905043459658,0.7640444041087752,0.5806326658313407,0.07643839998937114,-0.47732485999409424,-0.7081851662698824,-0.7896935656445092,-0.8166352384410573,-0.8149911421158448,-0.7897218711343115,-0.7415623143249459,-0.6497433137352676,-0.44232071419803515,-0.15040406968114584,0.06646285296668289,0.22802158513197757,0.39777456204424533,0.5876154276111395,0.7481881597830846,0.7994289746333875,0.3066714322053308,-0.8783700939534705,-0.9717872368709133,-0.9865580609614059,-0.9916596091754525,-0.9947252330728027,-0.9968670759315915,-0.9958790829750462,-0.9843165329397829,-0.9583342452222031,-0.9473025842310374,-0.962724083183453,-0.9765043607266615,-0.9799947274253136,-0.9753221395809281,-0.9561658060453849,-0.8744426552812801,-0.4079022193056312,0.43376577586707216,0.6622060001900434,0.6347172859838561,0.40673677268655023,-0.017878522512745326,-0.37335167361562677,-0.5647774566389776,-0.6845819771163949,-0.788510385656028,-0.8695336838250356,-0.9162957664567848,-0.9334874079813397,-0.9239903673301837,-0.8794980146847406,-0.8006184424193844,-0.718086798444594,-0.6161091788088322,-0.27169919420784344,0.5863419035743923,0.9242654459397761,0.9798457371231697,0.9912615948238925,0.993517361638425,0.9930828258855315,0.9912716219396759,0.9883337060653345,0.985124564874653,0.9825734017514695,0.9775676343875584,0.9657626745569174,0.9508434276112865,0.9376974407375975,0.9258268687200449,0.9128241616778574,0.8959973239479109,0.8755083456306461,0.8518060912985426,0.8240176767216916,0.7875705310263788,0.7356989712277258,0.6641269769749159,0.5708711693297502,0.4716422744341978,0.38113955980418657,0.29083569945701127,0.15276466230782498,-0.06812585531672656,-0.29725518864001654,-0.44474288309578236,-0.5042069965456528,-0.4833577475308186,-0.376142118592611,-0.19901033822609648,-0.018440207042713527,0.12961647943102605,0.23134668729225283,0.272538964098044,0.28441697840931923,0.29908726621614146,0.32674215886156893,0.3711624772237949,0.4230782223104485,0.45711230931351843,0.4524134237154743,0.3985272441455274,0.28619499126138453,0.12239950762264705,-0.06178613730666171,-0.22821907543279646,-0.3366589784118723,-0.3674751185352458,-0.2962771415313191,-0.11861167210918674,0.12637316390734474,0.3647863116035732,0.5461801185682092,0.6691887464285504,0.7437060903558044,0.7595905526510807,0.6356954117775332,0.12923696964858822,-0.4462110717591589,-0.6662552673393465,-0.7354630339339665,-0.7483857281427779,-0.7364818616053576,-0.7193709053986032,-0.716866757157109,-0.7403607215936249,-0.779977357516152,-0.817487045070347,-0.8391582021632877,-0.8418767516139967,-0.8306300180124389,-0.815948171544653,-0.8090607459085053,-0.8128011277708107,-0.8290276715727812,-0.8552705231640979,-0.8870479255768561,-0.9203257117835468,-0.9544605437205537,-0.98146368631331,-0.9929932977742031,-0.9916620585756581,-0.983391243937441,-0.9692594892078525,-0.9427998829582543,-0.8821929722085405,-0.7324807596819609,-0.424364209590285,-0.10558149940060073,0.003884591542555935,0.061776546647045044,0.18974326582713572,0.3852493392880347,0.5677824855865113,0.6904875116857909,0.7635712218524681,0.8061800667304716,0.8266453970838312,0.8271627216455917,0.8123663790057791,0.7967137965564457,0.7910623092173823,0.7922243366014897,0.7869055630223648,0.7660155569536314,0.7280449464232228,0.6847418398914016,0.6466354287447327,0.6152303010491689,0.5979507580768519,0.6003510546720219,0.6190203443884091,0.6442437992700376,0.6717648464964379,0.6975886227025844,0.7207504712003049,0.7500752282313599,0.7990662115480658,0.8491093476840181,0.8697830917035766,0.8705372407427635,0.8725732945776644,0.8775908708459801,0.8789724207604324,0.8703707357515631,0.8441643832632754,0.784140426649676,0.6572287287355055,0.42917569012314843,0.18314681516238948,0.17325361267399408,0.5487047184078251,0.7712489439225764,0.7875369005586786,0.7592314609107507,0.7237686440433425,0.6865452836295409,0.6369316053457067,0.5591725364928672,0.4468433179432058,0.34064594398094533,0.30988552469124575,0.3621018211022541,0.4054106253560426,0.3370638338910125,0.15712659781176733,0.008398559112875039,0.021422506101032485,0.23451036011756382,0.5372831646438477,0.7264517724604485,0.7864541407113633,0.7716139508804098,0.6678523230226859,0.20655768999732282,-0.7797319104390756,-0.9708972664806895,-0.9904142005893808,-0.9937175869686304,-0.9937301606083756,-0.9892570020986539,-0.9745142860345926,-0.9442302675291594,-0.9272509441733479,-0.9428425246478709,-0.9607784003476829,-0.9711650865013126,-0.9761296350009859,-0.9775883616775969,-0.9754642032240866,-0.9655977903479699,-0.9260093620295416,-0.7324939371795743,-0.01774520024983138,0.563279303351505,0.7338780535948733,0.7599076833815404,0.7131417478947603,0.6453456960957453,0.6126591071279799,0.6404268792912502,0.7079903647045868,0.7778918369383233,0.8256349692959034,0.8455086556316426,0.8432755288289376,0.825095290714732,0.7951759734494035,0.7522412518728935,0.6953509321932908,0.6149731274138037,0.5004246976156802,0.3506397158348829,0.18694726761083277,0.018731032691378567,-0.1384042916152789,-0.24224964818795944,-0.2508825003319198,-0.14442573264839342,0.08281288026068866,0.3651501673759832,0.5720196465325247,0.6789209311279214,0.7229898886226958,0.7276176864807146,0.7034573553257835,0.647236650664041,0.5460267195805912,0.368537725058353,0.07492010883666515,-0.3206478083275332,-0.6497556769343449,-0.8090831944005968,-0.8618695839940417,-0.8736408032589296,-0.8648011800118452,-0.8382367142867192,-0.8036088461948984,-0.770819701089409,-0.7400579808708182,-0.7064483008265492,-0.6655370483038783,-0.6156488993327491,-0.5617067055786539,-0.5055105345994212,-0.45587812776830394,-0.4109053141474202,-0.35382336515734103,-0.2424099837718359,-0.04945487818782825,0.19197269082715163,0.4224844965018083,0.6156428765271194,0.7688053613690123,0.8770606786410703,0.9441486478134741,0.9772905001370594,0.9907308405559974,0.9943449822714479,0.99012710600978,0.9783117779231597,0.9664870954560651,0.9650226578516488,0.9667860409509068,0.9309023433070177,0.7861648198674472,0.4716547763236889,0.11411390686602421,-0.07483525443403266,-0.07996438708654682,0.06764515039466167,0.32379101904501717,0.573638910767763,0.7448651653281414,0.8472164589868706,0.9061270154166078,0.9330748090578017,0.9387165178435307,0.9313732625084385,0.9097784678367313,0.8603885628819931,0.7490548122322951,0.5185409585688389,0.1472978657737672,-0.22525760094009617,-0.46914960878598694,-0.6028453411465785,-0.6728896171210773,-0.7072044641570384,-0.7179935635886603,-0.7166106546350132,-0.7248684599206365,-0.7704840842741417,-0.8303132743955953,-0.8664322417056103,-0.8772455683451738,-0.8768033680354548,-0.889056407224967,-0.92503340684703,-0.9593571977424435,-0.9788240253669439,-0.9882748708388427,-0.9929201438583708,-0.9949916602009959,-0.9931448381425242,-0.968068888982701,-0.6358183343473252,0.5003326786745071,0.7380512887422985,0.7645784821211796,0.7479151271324641,0.7245220418523306,0.7050565075476453,0.6766325990899272,0.6180643779096923,0.5470480798110093,0.5042754971591449,0.5162004057246317,0.5959794719225899,0.7111019010900244,0.8081176187289605,0.8674879438188559,0.8976768546015148,0.908884745270042,0.9064720703032781,0.8904950637566384,0.8586561396784954,0.8088487758611873,0.7378960664234786,0.6334934880716041,0.4570743044895644,0.10573909755567608,-0.4405034561927743,-0.7732705211694846,-0.8630298187000346,-0.8535453983198394,-0.7757690257928572,-0.6372002328050674,-0.4770363283976152,-0.3591382176923667,-0.3673833861539662,-0.5339626051608868,-0.743386125911648,-0.8684845746354926,-0.9227007260138042,-0.944756985339764,-0.9518487550127851,-0.9481117160812483,-0.9208000766095729,-0.7137077426869197,0.5528130952613955,0.8386045896308573,0.8373512062817173,0.7480638540094894,0.5502356867007538,0.3158115214599615,0.24141429032858402,0.3716066809308067,0.5649861052437541,0.692009111709146,0.7455676814546786,0.753055087275055,0.7292273299676076,0.6801073676256493,0.6110947042989325,0.5284847912176008,0.4356690794324088,0.31039539343832556,0.104587236222304,-0.16848328638589022,-0.3543843295974311,-0.35989093185452853,-0.09881795892570952,0.5320859695985359,0.8607913452693184,0.923804140335194,0.9387392187298571,0.9429146491505426,0.9416808533865569,0.9341960290724152,0.9191415105450043,0.8957214146212974,0.8616562268798289,0.8030972943432878,0.6896910684929947,0.4667370668572147,0.11541672919503924,-0.23653565749840472,-0.45667125623648075,-0.5420995760372048,-0.502195629702215,-0.29919089544225896,0.07655321256322255,0.4581696062579348,0.6978013110476451,0.813907656333914,0.8524300370709116,0.8365701749848782,0.753840467502347,0.5554459426343876,0.24472559898566446,-0.008302292546395045,-0.14541956390516322,-0.2434476594543083,-0.3573369077210729,-0.48127540700988597,-0.5776678294606166,-0.6162273595669415,-0.5971015213554642,-0.5378317215933769,-0.4742221064699556,-0.4554723015264546,-0.49819065890796066,-0.5693308186699764,-0.6305269001742435,-0.6664275638886097,-0.6775260907346473,-0.6701600928549454,-0.6530041565962486,-0.6370076658649776,-0.6370134702607541,-0.6645026546308396,-0.6216156448869764,-0.3705064595034662,-0.21309662699834142,-0.15907647611464318,-0.12717885072228177,-0.05801540064599622,0.09013021604223286,0.30277200107927416,0.49681662496289763,0.6126796332920798,0.6487556369200905,0.6246337648187531,0.5503235183099077,0.4357664293618948,0.29750186157936404,0.15584409021987808,0.019045575920075088,-0.10652289017593333,-0.2166691665982478,-0.307118002625579,-0.37873522814116095,-0.4355475124379336,-0.47892128632645087,-0.517631114745972,-0.5804942801618539,-0.6878484519597032,-0.8068700072606738,-0.8873477935963727,-0.9292490461731838,-0.9491018587292156,-0.9575166928885004,-0.9598339256103295,-0.9593071231073942,-0.9568260851173139,-0.9502133338858753,-0.9177855406790136,-0.7671706880487047,-0.3587679027221115,0.12821699755354724,0.48120262120833707,0.7031597177481136,0.8282288131442487,0.8692518752973281,0.8777749064357188,0.8922309367971065,0.9108134486338323,0.9283750636748087,0.9444253089514103,0.9569313196036839,0.9636779664619556,0.9646976624861717,0.9620653118369482,0.9584007035828795,0.9584343567315775,0.965903522194235,0.975519875338901,0.9801900247761652,0.9775185993438218,0.9673661588894269,0.9503322740202498,0.9233622874401707,0.874663510370655,0.7780998814551561,0.5907004918958919,0.28351880085297876,-0.08573842245747645,-0.41967290603241286,-0.6725155541805525,-0.8468428380693651,-0.9455514718327537,-0.9865375015607033,-0.9974498774086797,-0.9976566319244922,-0.9948002785773312,-0.990419300736045,-0.9837641327448582,-0.9742305931010801,-0.9609525887412975,-0.9399529377737841,-0.8986090164472101,-0.7813417318660286,-0.34396267904642563,0.35127517209108644,0.632327820068096,0.7221107189767563,0.7670600676998992,0.8102799258477275,0.8644387336853764,0.9122546668666438,0.9388671342450392,0.9450865227374434,0.9354735054612754,0.9107580346634432,0.8655808255973741,0.7926754590250727,0.6876475281103356,0.5109397945316383,0.16284667910992534,-0.27993695511258165,-0.5784580317366035,-0.7220764046427268,-0.7945171918815119,-0.8357485564055842,-0.8560234282575907,-0.8532825410945929,-0.8239909288444611,-0.7488039089738091,-0.552577244771507,-0.07090589833781893,0.46367830461779513,0.6935590119984878,0.7473894425426963,0.6813467613040923,0.41134568418775774,-0.10727030087207308,-0.5057473290886774,-0.667864726936524,-0.6963092613609136,-0.5547421114722377,0.13059103828148538,0.7705852266275177,0.8993982476442388,0.9261010056942908,0.9327382262115939,0.9365916688457309,0.9444798432811108,0.9492213104884281,0.9307888728855954,0.7728730623904898,-0.2376075720218398,-0.7527569807198183,-0.8128703684442489,-0.7653947680803258,-0.5644002817475343,-0.031070634488665698,0.4341658315294619,0.5359414052752148,0.4467058568402278,0.22043337910519895,-0.07434807301404171,-0.2891775947265488,-0.3446996696371536,-0.21040228127929234,0.14418238599239372,0.5407889811405265,0.7574801728199283,0.8534134149217325,0.9012483797823856,0.9287586686466239,0.9468207322336648,0.9584413154470797,0.9624847244258457,0.9602860971866602,0.9593222496129032,0.9645468114584312,0.9670799956872376,0.9498314665875001,0.8974786148984457,0.7884126241016838,0.5737148168101538,0.21564058355914842,-0.18857673650826476,-0.4607613907490463,-0.5950802261478464,-0.6665770467550051,-0.7297189910829918,-0.8080553383988328,-0.8818721151376078,-0.9256297724174833,-0.9444122731847064,-0.951529679394984,-0.9551990377303606,-0.9568654905576107,-0.9521184594060804,-0.9356244067230162,-0.9092903554870359,-0.8908382610126369,-0.8961912259220942,-0.916646409955053,-0.9351605783513667,-0.9430769932482994,-0.9334723898346307,-0.8737404580156326,-0.4829870403923208,0.645800184159085,0.9070460495818947,0.956644755672288,0.9720051918136641,0.9777538854274238,0.9805552517274081,0.9833704012917893,0.9862465696191521,0.9865130605482509,0.9847172658482989,0.9853502234214526,0.988697442549495,0.991434200570947,0.9912677720343978,0.9877270077936121,0.9821586303394952,0.9761898452732538,0.9694894149245901,0.959317657768813,0.9422387036567232,0.9148045590651385,0.8749197433061419,0.8230721601515696,0.7627809852234958,0.6971229555259314,0.62196964107996,0.511546018703878,0.31051870976790114,-0.018325772640379788,-0.34880148145269163,-0.5347595156144814,-0.6005311481869487,-0.6067845293294989,-0.5834073997843179,-0.5524762457285504,-0.5206176637566196,-0.4945074998455075,-0.4616536431754366,-0.30100208641602333,0.28701426863471996,0.8360850160950842,0.952283861464505,0.9734912154738348,0.9690178998877367,0.9298899731236541,0.7908292440280957,0.5060688979983418,0.2249856203616467,0.03002749263211644,-0.16295242096906215,-0.42941990540409775,-0.6996084312540591,-0.85739622385833,-0.9264641419414456,-0.9570649631158575,-0.9729044799054057,-0.9819464459483837,-0.9871386475924674,-0.9899043625448171,-0.9908308814316387,-0.9902207981691955,-0.9879775440658004,-0.9833013861952357,-0.9730473067263998,-0.9488031097973787,-0.8926543661139915,-0.768897833382128,-0.502190331235587,-0.04864329667340778,0.3336395180503115,0.5142629826381377,0.6074389931791102,0.6755524330942475,0.7388993051125561,0.7954833802006619,0.8383824024888841,0.8653119930080284,0.8732756845075546,0.8556816344360528,0.8003499141617425,0.6928736906763244,0.5594842818899551,0.5082966109918381,0.5934499940282788,0.7221404548082136,0.8059062109512257,0.8445439404517312,0.8624444363870674,0.8744901856111117,0.8855635669129974,0.8938025005797843,0.8968772934313257,0.8935536396596293,0.883909421242378,0.8680174153223145,0.8441079194833403,0.811552852728576,0.766656848190239,0.6933563683371619,0.5587691108915757,0.2955496478506078,-0.1274512679749281,-0.5013311123528921,-0.689598408901605,-0.7610063439204949,-0.7706932551358675,-0.7150263138454646,-0.5639403769835916,-0.3437020020198274,-0.24019268385741774,-0.40314609274760604,-0.6765109786943574,-0.8163532052842162,-0.8528403311809564,-0.8412203566589722,-0.7999749890320117,-0.7294595585704997,-0.6205395072109056,-0.46111960127713764,-0.2730867490513102,-0.12483008858100832,-0.05776004649310835,-0.05271798401753715,-0.05737118729817919,-0.041209744270279,0.013042903987435088,0.1136984830696246,0.24584462129283535,0.38048825143652487,0.4910550861007757,0.5773795633110738,0.6383689228901054,0.6763819981432205,0.6964418051293549,0.7128591425250865,0.73237854145319,0.7564842751610047,0.7584393139433168,0.7310007304761308,0.7076500482777515,0.7083451605147657,0.7208191210453281,0.7189465137956571,0.6600579018297931,0.49346290786962094,0.1962557529904788,-0.14325502310470262,-0.409820853176257,-0.5772352801335647,-0.6661575799759256,-0.7053791885409256,-0.7077177600971908,-0.6853906995661218,-0.6512167808922509,-0.6037994949638623,-0.5180404814859298,-0.33081111213044634,0.025788952581649875,0.44548074096318235,0.6986450206624055,0.8021570446233062,0.8318267587184338,0.8150745404555343,0.7500407773619778,0.6236949198188464,0.4617959594264275,0.3412892125774786,0.33375933376026173,0.46010305258867834,0.6449713300242447,0.7937450060323137,0.8772288412116251,0.9095999469992435,0.9108517381861785,0.8871222161123233,0.8255249802155274,0.6905511806742928,0.4688505384931585,0.2354736941876002,0.076955914514953,0.0270221627860472,0.06936410246698058,0.14709107768621654,0.19971810646112714,0.17058234536873484,0.039009096477214324,-0.17469457199934582,-0.4245438165327131,-0.6073417799980992,-0.6725955683271038,-0.6855630724923576,-0.6925835692215844,-0.7122567084549767,-0.744900821950933,-0.78608612214155,-0.8222751216832045,-0.8392462892876189,-0.8290442071072928,-0.7977106202420862,-0.7738745894957163,-0.7905151016125076,-0.8416716583492395,-0.8946188168245071,-0.9290115166314016,-0.9444984206233921,-0.9446898857404564,-0.922584020745595,-0.8338942435677874,-0.4952386852072476,0.2018336450537378,0.5884200122127229,0.7088248637759291,0.7417166122324028,0.742624342120781,0.729643635399773,0.7114761033407329,0.6898891067101474,0.6660376189787662,0.6446848754788509,0.618944820857508,0.5715651616708863,0.4808067638796282,0.33528600785487433,0.1609849790066213,0.01886359286224891,-0.024125560891038227,0.04755444002080815,0.19581446270337066,0.35745117872854426,0.49008900245832576,0.5782747613017866,0.62054800287267,0.6109574456749657,0.5371161282136407,0.385697368326935,0.18679269815194627,0.023702922754609033,-0.03765468820746023,-0.01847904660961939,0.020730491825033642,0.04213804041996883,0.03376514646052723,0.003146057251455901,-0.029957768627820243,-0.02814021181017143,0.019654854229252616,0.1165064005769902,0.2620655621713528,0.43337561635766036,0.5876144529800804,0.7127037088711862,0.7945940779995547,0.822981168277371,0.8081557664520336,0.7598250403939776,0.6930066060964976,0.6417149492999321,0.6270712210964506,0.63871859309776,0.6490792903631161,0.6366754320781087,0.617481493346742,0.6465118180348153,0.7528677105556381,0.8165208862877601,0.7997853734004108,0.7638080091466488,0.7134178566450234,0.6285774450942725,0.49350338884499334,0.3280369129128563,0.18681389796920045,0.08368012351391808,-0.006591390660558146,-0.08301673341396401,-0.10651394450421232,-0.054847281259447246,0.08236784329456517,0.31256456290084106,0.5028792382911882,0.564650726054789,0.5741601304772382,0.5862223044595988,0.6210587212018761,0.6867795778612655,0.7663111682513148,0.7945383428998785,0.7460033641441518,0.7012361098155802,0.6891979512379477,0.6916494585874153,0.7005198423569902,0.7152717044208694,0.7086454352539091,0.5067860565429226,-0.5996905141009697,-0.9424714125737691,-0.9793893589668273,-0.9886275720877347,-0.991768839291853,-0.9914358569037427,-0.984152111935444,-0.9382245433243838,-0.5211556685214079,0.46757387525876415,0.735860396477811,0.8030355512503329,0.8190963986434093,0.790004066461694,0.6500104602372069,0.15982801822569595,-0.524508848295101,-0.7736038239231977,-0.8354532605625119,-0.8458521461020421,-0.8407651948254387,-0.8374013708938486,-0.8427300271282643,-0.8513077484980947,-0.8493963583892447,-0.8114521892752175,-0.6759213915445624,-0.32605796881571514,0.11221064757667389,0.3525997134678564,0.43433077681733967,0.45743135143081043,0.5151764546955585,0.6490565061317707,0.7816288825606771,0.8569437721466755,0.885806315512176,0.8883174387569674,0.8810111489485409,0.8752610761500459,0.8777495407728432,0.889634813687097,0.9018725112838173,0.896015577436378,0.8456978616163247,0.7152825995344372,0.46516622206507613,0.1369128979268957,-0.09924541381100617,-0.22205907447784426,-0.32424479598073874,-0.44972330052719967,-0.5677958056507235,-0.6463212763195533,-0.6827979787266624,-0.6858645081319655,-0.6711056800701773,-0.6624336733122763,-0.67169356555076,-0.6805733936791647,-0.6377061267121953,-0.42868263789615374,0.14569885455819323,0.6797266455158801,0.8614633070356703,0.9116411873504154,0.9126128417826039,0.875623412026945,0.8062077018925872,0.7346610112776268,0.6916155533881936,0.6718125385957308,0.6473207389853105,0.575844528148275,0.39206233433611515,0.012115615079587458,-0.421651716967069,-0.6637179442210681,-0.768956931213363,-0.8314536111503267,-0.8799162514860353,-0.9107541426211537,-0.9153629594754031,-0.887447117252529,-0.8104198654765911,-0.65090205097792,-0.4300756138393581,-0.3018486502497431,-0.37428634660003984,-0.5267512290468482,-0.5677347697310688,-0.3905181998407223,0.07363828189943641,0.5152776865453291,0.713158716148331,0.7812805135464128,0.7924073376102799,0.7742169731047444,0.7379087409975579,0.6963002040549587,0.6707561818721786,0.6792520835780466,0.7164392717736918,0.7585239166035352,0.7873267409399108,0.7996458150885636,0.800356447445698,0.7977382109610585,0.798137021246045,0.8006840778181045,0.805147382976449,0.8123362745171402,0.8223545602167204,0.8357187115252095,0.8485486604742796,0.8492300365964913,0.810890913260435,0.6740699892381233,0.17563753347897548,-0.6558497494295877,-0.9114677545067985,-0.9652695848115467,-0.9798906513896656,-0.9829017106816311,-0.9751863284369141,-0.9330453898453839,-0.6879296290791105,0.11160650261786816,0.5356735410279272,0.6028960551374171,0.4764166341186303,0.0184847551223769,-0.5744283387923952,-0.7881449988580349,-0.7838156175430968,-0.5863207895348839,-0.08391182412080496,0.3780093903663426,0.567739969974105,0.5998380139963954,0.5080818451971304,0.19023689108278372,-0.4284232890086353,-0.8173151949277502,-0.9257078334630978,-0.9511049236014827,-0.9501021479000612,-0.9306672051466035,-0.8781104079718777,-0.7389057652369526,-0.4116898211992816,0.0035782119597080196,0.23368746300435517,0.28106748326820874,0.1971383218986758,-0.03130033755861467,-0.3906914558595546,-0.6333326700265663,-0.510485379669592,0.07034605384452587,0.5165017501401141,0.6918881199094035,0.7599614707782794,0.779051951590033,0.7568717107816282,0.7216297439761127,0.746517665694841,0.8130268057036144,0.852083262433132,0.8513941497775661,0.8160456182927237,0.7411822875251826,0.5961371609274412,0.31910349356553,-0.10177881853828462,-0.4758858179937218,-0.6684164433199171,-0.7436949835725236,-0.7685976316239623,-0.7934309000974203,-0.8496052921801533,-0.9108282553892137,-0.9477659245857513,-0.9650659499463483,-0.9721471586686984,-0.9727172848339485,-0.9664344658353445,-0.9490040835183795,-0.9135904871298384,-0.8593288137423335,-0.8031866870074066,-0.7636646956132803,-0.7377090297758008,-0.707920321802076,-0.6561033356025282,-0.556279384104278,-0.3443669132929814,0.14096615840633483,0.7183656013785092,0.8952466798485657,0.9212777661928678,0.918577657404933,0.909758960519629,0.9015710497968767,0.8986374957382914,0.9011384030410348,0.9057751131805729,0.9087274258538905,0.907419382946667,0.9032441304374442,0.8990030307904219,0.89666744781452,0.8980268199221788,0.9032498228653987,0.9079069798829031,0.9095247725651445,0.9101807114916791,0.9130915445669745,0.9166832773548128,0.9168849773057411,0.9094226991424219,0.8906950153435184,0.8570689025065951,0.8035142141535419,0.7214299524251861,0.6009933883855504,0.4508999445864961,0.30671976745876195,0.20651864156237804,0.17432054662170626,0.2201964148073248,0.3450964553626476,0.5081981333849144,0.6556914629045293,0.7576643890080351,0.8133887456460338,0.8362555657059623,0.8389944736998026,0.832758042711942,0.8215852601460084,0.7977195518638166,0.741503768548207,0.6138752295783069,0.3377373084992788,-0.047002625796183244,-0.20014456823978768,-0.10787003311858884,0.04172111744119108,0.1266611312486004,0.10244117587236254,-0.006071767294867892,-0.10725073679985266,-0.10404542816663608,0.017814461590249808,0.17710301748583301,0.2749342735541106,0.30239975806111774,0.30956918456308596,0.3572198965986314,0.4590678939390136,0.5750224517242204,0.6578421274947865,0.6922713929285075,0.6695521061968884,0.5776554304468438,0.3999458103439798,0.12187807450137382,-0.21506366834566315,-0.4997159265309172,-0.6724428777028929,-0.7588137368632636,-0.7868111675540793,-0.7714097719857844,-0.72902236190586,-0.6878845404604302,-0.6766997099146698,-0.7100597628047836,-0.7708161573820195,-0.8237004129111771,-0.8679952462410452,-0.9069618279268651,-0.9295278117884157,-0.9285683624016169,-0.8971902536215933,-0.8188005453373692,-0.6483926631083762,-0.3024917006409369,0.1793007458116643,0.5261913106927741,0.6732505931309262,0.6975260087642452,0.6282774694666104,0.4632346971708959,0.22735249122334844,0.022180775972377133,-0.08768964830015545,-0.12547837911159607,-0.14392561868750228,-0.18816495413046197,-0.27842930005033256,-0.397133669818855,-0.5123098968116347,-0.6139266783903932,-0.6943912663874322,-0.7408362340529513,-0.7387881858375365,-0.6940246788568842,-0.6345446146686412,-0.5886623266642153,-0.5652817844564488,-0.561293270115142,-0.5698757015640131,-0.5806644381574303,-0.5757582974359883,-0.5313723510882201,-0.43060537827538337,-0.30027169120786396,-0.18396877302543566,-0.09919288067809379,-0.0466269414862483,-0.04858415703622027,-0.11569230003466144,-0.21772451807653262,-0.32735859685522845,-0.42640954738165143,-0.5043800058080175,-0.5624367224750837,-0.5941984703965352,-0.594303793374526,-0.5563908994123412,-0.4807010933528108,-0.37986121334811257,-0.28481092136206126,-0.23448084588221704,-0.24043622929068284,-0.28696603160735773,-0.34801886167888585,-0.4099212588525743,-0.46774372350918825,-0.5006553742475393,-0.48359476655656575,-0.4245730692500132,-0.3438700744477985,-0.25234930793979327,-0.145916780072755,-0.020720467600068255,0.11796450128334578,0.24093082122750167,0.31680086927262824,0.3434217795890868,0.338897005786578,0.3438384188251359,0.3812536560384306,0.4427069720437125,0.5201985448356534,0.607438274470111,0.6971281085575302,0.7708071052018982,0.818712132872977,0.8495936960519549,0.8727781654994299,0.8886018852988988,0.8985255815537619,0.9040866304268286,0.9076210572051887,0.9087435409366075,0.9078828396057413,0.906469381462487,0.9054415966572252,0.9024536087012301,0.8944874069781333,0.8791675596398715,0.8573463984825457,0.8293679652712381,0.7923528804409445,0.7448723703146319,0.6828773922792598,0.6150411377508532,0.5660006895162399,0.5749055678795778,0.6343354654397527,0.6883678859957775,0.6888756015143715,0.5713964162283823,0.14438060941012623,-0.49899079838202615,-0.7831341342274492,-0.8719325613583966,-0.9049499866247744,-0.9184661116937609,-0.9245979155638824,-0.9311765401949457,-0.9433309318196458,-0.9601874259221239,-0.975514740756133,-0.9853969337843763,-0.9903070109979093,-0.9914804403608074,-0.98789633345081,-0.9658589255706272,-0.7155997014703525,0.7209341818436955,0.9166289495401589,0.938463980724983,0.9254986880367486,0.8886558602011384,0.8470492735309954,0.8377464153260271,0.8633523987630498,0.8941412703513519,0.9120120761250537,0.915283389589857,0.9016221375353659,0.8596003278407977,0.7570846087791899,0.5397074710529979,0.23749961540000003,0.026227849685999182,-0.040798285556504534,-0.025613531953861665,-0.01977068410636862,-0.10278184244141506,-0.2812127610831445,-0.4635500630631764,-0.5586788509045398,-0.5380279337815129,-0.40947512173665557,-0.1824483880085648,0.10050166513905011,0.38211871146210863,0.6165467675542489,0.7830456557874922,0.8813687243621641,0.9331212362361773,0.9598350465102164,0.9742505091836445,0.982546126329402,0.9876021430097373,0.9910129649447165,0.9932971258283233,0.9933036304800771,0.9893959787518348,0.9797437602564605,0.9609621048338286,0.9184533714246902,0.7104085971819687,-0.5822356800261341,-0.922650800240801,-0.9602287323564346,-0.9666892772607562,-0.9636649443298502,-0.9517382777373677,-0.9222481473073513,-0.8246325554496846,-0.39808106910111385,0.09739551051203843,-0.020941645119807048,-0.42906146084813895,-0.7127227768065441,-0.8258920855573805,-0.854028718460583,-0.8033868271493447,-0.48136574219314576,0.2689540454814413,0.5746554887839941,0.6208124052472564,0.5663437110625119,0.42412575417143905,0.21648930008861073,0.050312743049286575,0.051159544993563635,0.24105147323157353,0.462080555840064,0.5493066953038687,0.4507330797299154,0.04415422621073058,-0.5212644972860204,-0.7895703393807582,-0.8784105533700348,-0.9088592422529045,-0.9167757021724477,-0.9157299004524675,-0.9149538547941884,-0.9197647435806461,-0.9268611799814137,-0.9311215235458662,-0.9256646837861147,-0.8889344212435869,-0.6543664978114292,0.47810690935522626,0.8342053912486488,0.8799409399396118,0.8774336842394072,0.8545678413423272,0.8076335123352494,0.7202830608876053,0.5741566552542586,0.3888137327393033,0.2287600149402005,0.13960129481081507,0.1198292959756293,0.14227381267696365,0.17269690633374118,0.17167571635198298,0.08563003973912398,-0.1460923798877056,-0.46610438711635255,-0.680218897996424,-0.769302534311403,-0.802403633376766,-0.8142423929981143,-0.8179209172758529,-0.8143487109464366,-0.7830812523604005,-0.6828857363785004,-0.4619241672281651,-0.06001635029204545,0.4583933402429567,0.7764687994875114,0.8815656933165427,0.9094042550791047,0.9170294901128316,0.9113423195835452,0.882700004022737,0.8229021948406415,0.7400246662231144,0.672256018381241,0.6565299162283643,0.6980109386028157,0.7380488616838411,0.7238056832777876,0.6577812376033314,0.5317397612481547,0.21986769022825792,-0.3967971181660566,-0.7495478706560709,-0.8306073416779735,-0.86352660557071,-0.8950556713733445,-0.9182316168862791,-0.9181661096431037,-0.8883376897930839,-0.837236354797234,-0.7613808911522549,-0.6218034167386768,-0.3602207149578658,0.04405483458391843,0.48468729439782676,0.7633001561985667,0.8808603563840036,0.9269900064858012,0.9448191894510574,0.9517504958724642,0.9554889783205649,0.9593180176734778,0.9638297501497993,0.9677982806667418,0.9706932157687076,0.9704661768843375,0.9623990063733086,0.935342417488568,0.8448785244484472,0.4947250751558165,-0.15090831397832996,-0.43054586342165896,-0.4164678884540422,-0.23359272179379362,-0.014996365601445022,-0.09100002485747186,-0.5822677412905926,-0.8583430650114954,-0.9333696872914647,-0.9605143038307214,-0.9724688482307455,-0.9775522721745584,-0.9787218214456774,-0.977132426704039,-0.9729619656550954,-0.9650767506515373,-0.9495299511864301,-0.9147916412091636,-0.8331808425948725,-0.624838796252026,-0.10610079869392473,0.5410029423207852,0.8242605374244977,0.9180307626064993,0.9527548894083484,0.9660139515241282,0.9696207027989466,0.9691593650577793,0.966350775883614,0.9618106946555609,0.954933050426587,0.9424393957486762,0.9136014385129242,0.8138783503849862,0.10094941760608672,-0.8822226324324953,-0.9776405816840225,-0.9920640468786716,-0.9956603533575371,-0.9968267014386176,-0.9971378598024383,-0.9967389147107777,-0.9945049433436987,-0.9864341403020277,-0.9623749750853157,-0.9095638427546632,-0.8366625813727124,-0.7884302272089144,-0.7885877001078737,-0.8157503495715193,-0.844159372041224,-0.8628039782886167,-0.8631534464658382,-0.7930991113057198,-0.02920430911842801,0.8186648767740794,0.9135720771548479,0.9340259433612923,0.9393882446019512,0.9383116026007018,0.9327113801990814,0.9245239173731873,0.9176988647732893,0.9162954679762313,0.920362770734606,0.9270040655619092,0.933043204094451,0.934564990255976,0.9277500485505745,0.9099823224754874,0.8844593883564752,0.8611967260710407,0.8521886106240708,0.8578291099173776,0.8677078667117123,0.87113174743776,0.869829061791473,0.871481895706813,0.8811157450039039,0.8977718006485554,0.9153859188021459,0.9236389458617199,0.9123353932508109,0.8653411781492669,0.7507686797271876,0.5169789177038877,0.1936325226145312,-0.10265969102004238,-0.32615196909676397,-0.4958813381970615,-0.6252806242470808,-0.7180697913952825,-0.7704447037142461,-0.7854393272276181,-0.7721140595153891,-0.7391264489945253,-0.6971089279940409,-0.65516609540013,-0.6141603659040465,-0.5652867973179948,-0.513711153780933,-0.49954327474847965,-0.5253170635769477,-0.5355422983198915,-0.46364101760669213,-0.2417314395762189,0.12997530779691502,0.45569449113082383,0.6456146139641608,0.7494105519332179,0.8078341678311509,0.838761276896583,0.8497081939216381,0.8463493790568765,0.8368694600204191,0.8340664275111664,0.8427533691139201,0.8613879502250172,0.8826891111421482,0.8991139850070395,0.8978676913206857,0.8568133278020738,0.7095694627223077,0.2211609093863275,-0.5295441469704716,-0.8082380648505245,-0.8651915297840068,-0.8671655628748989,-0.8605737377189892,-0.8709641296327448,-0.9014119298855655,-0.9311335648384382,-0.9472869083409006,-0.9528344531843999,-0.9511402886505144,-0.9418023820240174,-0.9229380489442457,-0.8902049408690691,-0.832983628849711,-0.7293035573049178,-0.5444968754383042,-0.2824195199300179,-0.06678885130562753,-0.031238456205412626,-0.12999319927326577,-0.22943175605148602,-0.3042892069220686,-0.37100331856202295,-0.44111647214208016,-0.5223486684446179,-0.6050687181232668,-0.6515774898502658,-0.6285640503202822,-0.5658228744559084,-0.49785461818048243,-0.421142356232386,-0.3212743474819194,-0.16308832699453812,0.12322875768420852,0.4892584986852023,0.7251600259285176,0.8168079134537958,0.8399427968495095,0.8225857632803331,0.7654521238996983,0.6562524796125299,0.4940168023993657,0.32166142302598877,0.17917287899089995,0.06310432959728576,-0.04649317236736966,-0.15442797877522377,-0.23393496875161784,-0.27750456715292754,-0.29660052379484525,-0.3006984937627267,-0.29566622227983774,-0.2889067081976699,-0.2755607251765779,-0.2344359240506551,-0.15379419313161405,-0.02847650407640661,0.13385808631875626,0.30370159212306086,0.46352269456207457,0.5931554198882529,0.6804543882670632,0.7203204546841104,0.7187800721948087,0.690000335336761,0.6725242277029011,0.7051166150314161,0.7779766752580412,0.8587832270553545,0.9167649294690802,0.9397796398722064,0.9365877364112739,0.9137090934408467,0.8687023535932049,0.795093848643777,0.6769249794953891,0.4621574977120124,0.07762981383099006,-0.37969920005057173,-0.6692338797386657,-0.7945646473230714,-0.8392667324030701,-0.8427546360488027,-0.819098058132644,-0.7652036696820123,-0.6713042735322133,-0.5338165583373009,-0.37056653023888,-0.2128105646245097,-0.07070424044921335,0.0599894734802433,0.18988688859362352,0.3254917538605466,0.4640501841271372,0.5872949307407509,0.6792782722652647,0.7433891543352353,0.7899109445511197,0.8281466439103883,0.8602917332443892,0.8833731547645999,0.8938791573521583,0.8934723411233656,0.8936564677779538,0.8910985650256829,0.857344383434548,0.7734601938976506,0.6777608933804462,0.6053405471573522,0.546402695648829,0.4830814509287745,0.421303974346369,0.3786554256645299,0.3667499433823077,0.3942496273693387,0.4513141381603864,0.5188460896698549,0.5714033417055474,0.5879740567702104,0.5516422150353284,0.4163194072772324,0.16372976127574404,-0.05607025996025774,-0.18127275659009756,-0.24828823307252543,-0.2827138672574911,-0.3021487104637319,-0.3147335034686084,-0.32201866943820906,-0.33850154482096906,-0.37622150439208485,-0.42335385394573816,-0.48097828934530784,-0.5782870761363096,-0.7144332765714341,-0.8376369194361071,-0.9108321159114615,-0.9388170543369041,-0.9366584603902687,-0.9054824859685336,-0.8218119293462103,-0.6028189606894746,-0.1159781603433851,0.43972365789860385,0.7355356397548303,0.8562325206871637,0.9084129143943985,0.9325680549347529,0.9454317650970134,0.9539407865931544,0.9608390904742744,0.9660545403299983,0.9685719284208726,0.9669221512937922,0.9581586404985326,0.9346718701036014,0.8675040415715481,0.619034052628072,-0.16921749374112788,-0.7394773295271074,-0.895406991432487,-0.9468946616471142,-0.9660368870641776,-0.9702297907093549,-0.9654071746310472,-0.9520890245485717,-0.9340778699084296,-0.9265540094286895,-0.9405374414909454,-0.9598382484159071,-0.9725758380383088,-0.9786628243499167,-0.9799198587279953,-0.9758940961331386,-0.9622151402980841,-0.9250652065553645,-0.8283532936315376,-0.6543888565083256,-0.5251504221953469,-0.46074600089912315,-0.3112852523878577,0.14145098870499587,0.7130398743581382,0.9125460147027673,0.9566918120518819,0.9606442670417524,0.9403476637084607,0.8925703426672605,0.8293168286959353,0.7888989026923302,0.7874689062512075,0.8151916791981869,0.8579480176768864,0.8999113287361992,0.9309634494801448,0.9511068399866494,0.9637288144494789,0.9700346170132923,0.9697872367816794,0.9620664745058612,0.9451014993613682,0.9173698806073786,0.8751183825844834,0.8067306990008407,0.6879261159491419,0.4742471319234851,0.0986196458059491,-0.3672968769782899,-0.6578037646326237,-0.7695440324758933,-0.8142492626962076,-0.8626434489474369,-0.913406932119866,-0.9474514235319911,-0.9652799586715999,-0.9741533658094008,-0.9782496780496929,-0.9788831130807042,-0.9715472299023954,-0.9111888903494386,-0.13846152766471914,0.7839078783181128,0.9054423109928442,0.9384715131572751,0.9517052861088305,0.9554328734777973,0.9528322685818033,0.9485676704870598,0.9461928902698158,0.9449936817045814,0.9436947642853168,0.9418840950980933,0.9362045144462732,0.9194763752596997,0.8779920410611155,0.7714955328219624,0.46928413689891485,-0.144909966918146,-0.5869128576786669,-0.7533014408840887
