0.013778649754413357,0.015144650533696773,0.01579058647236822,0.015977661981599094,0.015938835564426282,0.015292897447799086,0.012906811889338225,0.008035807318392547,0.0012340534682259065,-0.005617115584383686,-0.010516352995729386,-0.012789485413032651,-0.013488369633966296,-0.014151953548087974,-0.015376763989902271,-0.016936894677094007,-0.018359369849000474,-0.019273564597520765,-0.01929827350551569,-0.018013456026850245,-0.01503791110029674,-0.01059753629634736,-0.00544415976228645,-0.0006614011668680389,0.0028471326554754175,0.004816710312029369,0.005713257085099427,0.006373312710904506,0.007421636864349223,0.008988830662041402,0.010563081036366774,0.011329028870784755,0.010686621220429907,0.008611151355263058,0.005501474845829376,0.0020000008670527374,-0.0013038085994273108,-0.004067571940097491,-0.00618892915498185,-0.007784357971029801,-0.009062112339194801,-0.010223387455841362,-0.011359951486537243,-0.01227062012469669,-0.012831842296477812,-0.01304715500202021,-0.013018917805708687,-0.012630649278069051,-0.011370542885354286,-0.008603249731798482,-0.004039334743785967,0.0019364659774761472,0.008201704385900841,0.013520982343381548,0.01688479797553044,0.01801783589586548,0.01768604393880464,0.017202472423413395,0.01748485092039588,0.01856847102474106,0.02006154245435996,0.021505193890033258,0.022592348816562288,0.023224173779923096,0.023361820583385363,0.022938251748933755,0.022045246331914802,0.020774544184471493,0.018939091576930463,0.015991781668732732,0.011360796533368625,0.005272042453153341,-0.0012438035227363422,-0.006863102289964816,-0.0107140155478658,-0.012870668713650625,-0.01427196544383451,-0.015969756002223015,-0.018324071720144258,-0.021094895339972403,-0.023657456297024097,-0.02481874230344941,-0.02311035381237661,-0.017526358401098157,-0.008437354842245939,0.0017917477872815832,0.009804194134493486,0.013055058803440536,0.010831339846215622,0.004269605649426132,-0.004406424829703023,-0.013174225652355692,-0.020681917904337842,-0.026167092929326844,-0.029463842770035647,-0.030886309230119112,-0.030886309230119112,-0.029785047684190945,-0.027935462321781776,-0.025605855511855468,-0.023007989892080305,-0.020540729744824474,-0.01848996878765255,-0.016781589008402754,-0.01479436337639857,-0.011539970419134927,-0.006248934013877243,0.0014387767351114393,0.01117372102413775,0.0219393541233019,0.032224946173347147,0.04023387751777254,0.04457190800302737,0.045076649248318196,0.042859991223637976,0.03940440307000982,0.035849957504844446,0.032482620118246215,0.02911878924040706,0.025232575675694112,0.020287444380763648,0.01436105254587281,0.008544085563822969,0.004029584035888807,0.0010893354958269176,-0.0008237679858995614,-0.002493321565772119,-0.004625265823562017,-0.007798475480207688,-0.01231297700814185,-0.017949922879638258,-0.02384101440771713,-0.028570815573459182,-0.030533349721114447,-0.028920268573704763,-0.023855127560983513,-0.016587454744582935,-0.008793853529345953,-0.001681487688410081,0.004181361416263464,0.008713513097603612,0.012363235515051585,0.01555409750305899,0.01829315346030327,0.0201780217058784,0.020915732343984857,0.02037215596969822,0.018455522239494968,0.015028169104222585,0.010552491815505483,0.006574505729313267,0.005000255354987896,0.006899241109740914,0.011851426803348816,0.0184731702149452,0.025176101283071062,0.030640113112027745,0.03404275516134945,0.035267572137031,0.03463574717367019,0.032588512326859116,0.029750614203767872,0.026669177068601467,0.02362302281660102,0.020322740331664115,0.01597060322701015,0.009645355821574135,0.0006375322964062666,-0.011116403762639074,-0.02470226522988672,-0.038259887322867094,-0.04947731774097136,-0.05621201429372535,-0.057662728839899084,-0.05471893850819494,-0.049318479428052016,-0.043162661734352396,-0.036925649850256044,-0.030971031708832433,-0.026167092929326844,-0.02360803848103424,-0.023159771628366462,-0.02304682284312037,-0.020999592352220795,-0.015930927407094453,-0.008539714406630742,-0.0007284658693302511,0.005473237649517852,0.009115899134421132,0.01043954085230364,0.010252467521028517,0.009271206981068137,0.007728722091370884,0.005670900201654267,0.003436594201523815,0.0016187919651843453,0.0009234388639097732,0.001682326854760936,0.0034895381278745143,0.005625015029892509,0.007591064398129864,0.009253559005617905,0.01076780452104788,0.012077328729752503,0.01278327170527509,0.012320878631606424,0.01034424004250778,0.007280450882791607,0.004230779232253319,0.002564754158492932,0.0032812863548768102,0.0062991903428312275,0.01045013225112068,0.014149270306602759,0.016210622662591722,0.016447113809856702,0.01540584841100093,0.01385983305503133,0.012553839312599057,0.012190279692954347,0.013266841042710587,0.015571745478509225,0.018042544803860406,0.019616797356141528,0.02018861092673969,0.02025567671817978,0.020054481521815267,0.019567381718107426,0.018596710399008336,0.016877739220941497,0.01428692799984378,0.010820750625354331,0.00629565987655888,0.00011866487367366879,-0.008109091173501698,-0.017904035529920752,-0.02772722797243008,-0.036230293917638996,-0.04309205240890545,-0.04856312081449533,-0.052851711704202796,-0.05590492253283643,-0.057274464668170946,-0.05649085796852398,-0.05393888187642208,-0.050677414918879234,-0.047161824084311445,-0.042682618507277746,-0.035845558034227454,-0.02579647019918169,-0.013156577676905458,-7.899894167708065e-05,0.010736039036419764,0.017276596969442424,0.019189700233373328,0.017869588981763166,0.015261129785215214,0.012765623729824859,0.01113489678492069,0.01060896838608428,0.011131366318648342,0.012606785416905507,0.015014049417088948,0.017947241816108794,0.020749837454432315,0.022786491792205106,0.023598324798384845,0.022910025442400988,0.020891023435989933,0.0180496057364051,0.015038758325083872,0.012257343306438686,0.009613588158990266,0.00673334404223262,0.0035142470358694414,0.0005457599927225779,-0.0014979426454515535,-0.0023238940319914776,-0.001896800176156904,-0.00034019755948619043,0.0019752928302401106,0.004629634802798493,0.0071816174287676485,0.00915119726327735,0.010174812508727139,0.010220699858444647,0.009701832392152934,0.009373568723408691,0.00977948522649856,0.011089009435203181,0.01315742054578109,0.01573764036806177,0.018593179932735987,0.021395773393103758,0.023471241080314856,0.024152483859665525,0.023322987632345294,0.021685210644675185,0.020195669681328635,0.019747396294793607,0.02038274519055951,0.021074568478948463,0.020403923632282092,0.017368369490921687,0.011946729791100426,0.004936720029820155,-0.0026062725289739633,-0.009941011136814627,-0.016580395989993994,-0.021878502039619375,-0.0252564242911674,-0.026283570002889535,-0.025083472824981662,-0.022411469591442964,-0.019157083168046575,-0.015789741425536838,-0.012415336572526652,-0.009136236885223832,-0.006132452584403052,-0.0036934230995914925,-0.0021509390810765406,-0.0016179530166290658,-0.0019956318878162614,-0.0029310057314458583,-0.0038452004799661497,-0.004145224774443118,-0.0036722446578689124,-0.0027192234921758077,-0.0017061957252227083,-0.0011767390380697052,-0.001402640528882243,-0.0020874046270911,-0.0029133577559956256,-0.0038099023511099324,-0.005055891234646813,-0.006894869952548686,-0.009086821247189729,-0.011483493848556127,-0.014317850615596267,-0.017932274904188025,-0.021807892714172435,-0.02453989862865077,-0.02460342959790701,-0.02135962368354891,-0.01531675913100688,-0.007773768750168512,-0.0002378360349412116,0.006161530471634456,0.01097252800572899,0.014131622331152527,0.015758818809784348,0.015945894319015223,0.01505287801221751,0.013566867515143306,0.011812600386176002,0.009885377435111461,0.007919328066874107,0.006129762809050586,0.004604928072759317,0.0033765893426284206,0.0023388522320892443,0.001322296394615124,0.0002916206522117914,-0.0006508121638023238,-0.001324986823354316,-0.0014273485656948698,-0.0008167085779238931,0.0004292794344306872,0.0021835465633979908,0.004410793808939499,0.007065135999293458,0.009984208711179669,0.01269855793838477,0.014654018085760834,0.01564939831285485,0.01609767169938988,0.016722431374294494,0.01777075552773921,0.018744957313110648,0.018522585852979306,0.015889417748436423,0.010686621220429907,0.003877806655514149,-0.002991010590341252,-0.00867031552323857,-0.012337683738181025,-0.013590729198351099,-0.012620060057207762,-0.00999042677484873,-0.006411300615113191,-0.003058074203825589,-0.0013708730840939478,-0.002330954964536172,-0.006224225105882316,-0.01229179856641927,-0.018846469652708316,-0.023678647806481178,-0.025009335211218127,-0.022760922591688545,-0.019001777499355322,-0.016276839051288926,-0.015595604983761266,-0.015941516627955742,-0.01511203564632577,-0.011342303511087011,-0.00448407766404865,0.0043190212874602354,0.013369204963006892,0.021092218632354446,0.026390311614245317,0.028804640902884957,0.02840932015452363,0.025744373497618125,0.021251054767318044,0.015017579883361293,0.007171028207906358,-0.0019956318878162614,-0.01159997527803032,-0.020452485511661806,-0.027617807475500585,-0.032460557426488734,-0.03427130983785784,-0.032573506211734826,-0.027564861371194134,-0.020117165266284372,-0.011677628112375946,-0.0039052053388615436,0.0012834695418511603,0.0022576689314712703,-0.0009720157711841723,-0.006150100559853285,-0.010103375560094824,-0.01080931853561741,-0.00858560175634825,-0.005267673473916865,-0.0025145000074946995,-0.0008873026576805767,9.748660618754867e-05,0.0010928650909169642,0.002070594946809421,0.002762418888585097,0.0024659228824247255,0.0006128244773892148,-0.002553326424667513,-0.005994794891162032,-0.008525596897452855,-0.009252716136742273,-0.007876130492509065,-0.004893524633410866,-0.0009720157711841723,0.003486009839557918,0.008176995477905914,0.01239147271136311,0.015271719006076505,0.0163412216012438,0.01598119244787144,0.015257599318942867,0.015035227858811527,0.015070525987667744,0.014541069300514742,0.013118594128608278,0.011611405189811491,0.011216080085538663,0.012582078686866331,0.015254071030626273,0.017781344748600502,0.01828256641739773,0.015465853269896324,0.009638297066985192,0.002875369851786941,-0.0025603851792564557,-0.005648883246967557,-0.006548958308354212,-0.005747714523035764,-0.003721660295903016,-0.000908481099403157,0.0021906053179869336,0.005257924943975454,0.008124049373599463,0.010785452496498116,0.013100943975202292,0.014901100631842855,0.016048256061355775,0.016542416797608313,0.016697724644255316,0.016990690184143342,0.01752720780384104,0.0179437135277922,0.01781311241118437,0.017107169435661783,0.016125911073657153,0.015229362122631344,0.014629311355721658,0.014258690803532256,0.013778649754413357,0.012737384355557584,0.010810161404493044,0.008176995477905914,0.00542382201148375,0.0031436264836800384,0.001749391557223148,0.0013152369866394555,0.0016505594099726407,0.0023000258149164306,0.002900076581826117,0.0032848168211491568,0.0033765893426284206,0.0032036335205311833,0.0028294825020694337,0.002172956689149975,0.001195226833257518,-2.6053294741337866e-05,-0.0013108680074029792,-0.002443905927738016,-0.0032522084676454063,-0.0037146015413140722,-0.0039828581732071705,-0.004208760099610858,-0.0045370237683551,-0.004964118713167549,-0.0053629764616684745,-0.005705357639590604,-0.006132452584403052,-0.007050177799195691,-0.00876561633303443,-0.011169349866945524,-0.013855459719883353,-0.016153298867225795,-0.01749811902683088,-0.017741671106640555,-0.017056906572840546,-0.01579680018012578,-0.014286082953012398,-0.012807133388482885,-0.01153290948659023,-0.010481054866873169,-0.009616277934342733,-0.008871508541647331,-0.008285577461871281,-0.007893778467959299,-0.007678465762416901,-0.007590223707209984,-0.007537277602903534,-0.007452566013968964,-0.0073078473881832496,-0.007036058112062054,-0.006499542670320107,-0.005652411535284153,-0.004688801148729758,-0.0038169632836546263,-0.0032133820504725926,-0.0030721938909592256,-0.003336922234535727,-0.003552234940078125,-0.003089841866409459,-0.0013955811209065748,0.0015270196615006567,0.005212037594257947,0.009002948171219289,0.012246754085577394,0.014534008367970046,0.01580823444781845,0.016245920791447942,0.015818825846635493,0.014188096723775571,0.011036061152940979,0.006574505729313267,0.0012128752442989016,-0.004593498160978146,-0.010449289382245049,-0.015937988339639147,-0.020561908186547056,-0.02378454001509408,-0.025319955260423636,-0.025528211389332842,-0.0252564242911674,-0.0248257988800826,-0.023731593910787628,-0.0212078441252185,-0.016425088143346988,-0.00876561633303443,0.0015623167013789985,0.013404500913907358,0.024773702178519035,0.03348151774387807,0.03766070991621355,0.03664062078112461,0.031010714062615387,0.021932297546668707,0.010676031999568618,-0.001367343271208326,-0.012824783541888868,-0.02293034576955768,-0.03224171643262974,-0.042082569918323806,-0.053059967833111996,-0.06372678925780971,-0.07047912725214667,-0.06916255300067611,-0.05876751867414385,-0.0427179013904437,-0.026414160229718604,-0.013551904959134038,-0.0047417472530362085,0.001915287753549142,0.009126490533238173,0.018692011208804198,0.030502444529007966,0.04289529588636145,0.053625670059872906,0.060865129637475215,0.06356890924542079,0.06172640223920231,0.056392958857517196,0.04953470687500982,0.04328708834640618,0.039150257413427356,0.03709243770166649,0.035874677302618126,0.03397216761546002,0.03034713450440521,0.02472430614208669,0.017647215343676078,0.009955971514868144,0.0020811841676707113,-0.006400711394251901,-0.016100354940875094,-0.02671419541397433,-0.03628676831026204,-0.04221668843346948,-0.04273201454371009,-0.0380410463290081,-0.030201559942009362,-0.022072623235704688,-0.016012110707712426,-0.013156577676905458,-0.013265998173834956,-0.014797891664715165,-0.015705027658646516,-0.014190782143216537,-0.009513916192002177,-0.0023062460565412444,0.005783851164856111,0.012705616692973714,0.01700127940500463,0.018533175073840596,0.018416693644366405,0.01830374268116456,0.019224998362229545,0.02123340679186781,0.023873640184866887,0.02639738997043602,0.027996336185021814,0.028345789185267388,0.027604543724977084,0.025818511111381663,0.022991197853240206,0.019426193558594058,0.015751760055195407,0.012490303987431315,0.009783015692770907,0.0074816439012003666,0.005646193471615091,0.004534333993002633,0.004174302661674521,0.0039907576187159935,0.0029106658026874076,0.00023161557552082274,-0.0038240220382435696,-0.008151445878991106,-0.0113528927319483,-0.012521228781139553,-0.011667038891514655,-0.010099847271778229,-0.009760994382172695,-0.011607034032619264,-0.015055561253702726,-0.018271125615837807,-0.01921355973862537,-0.016979251560539168,-0.012087072903782413,-0.005955966296033468,-7.546923768924648e-05,0.004410793808939499,0.006874532201745986,0.007372221226315119,0.006747463729366257,0.006341547226276388,0.007199265404217882,0.009207671655900397,0.01111018787692576,0.01127255447816171,0.008822933594533108,0.004311962532871293,-0.0009225999153544937,-0.00560299589725005,-0.009083290780917382,-0.011303477093914197,-0.01249299158482803,-0.012757719928404533,-0.012048246486609598,-0.010216326523296668,-0.00738196975625653,-0.0038946161180002537,-0.000142533744135441,0.003736618496000782,0.007626362526986082,0.011300791674473232,0.014474003509074655,0.01685303031294657,0.018201380938824008,0.018469639748672856,0.017911945865208327,0.01689891548470833,0.015716461926339187,0.014678726993755761,0.013856304766714735,0.01269855793838477,0.010326592067057546,0.006330958005415097,0.0009446173056323534,-0.005158252976987367,-0.011084636100055202,-0.016181536063537318,-0.019531234186508324,-0.020381891431905122,-0.019262975376659476,-0.01855350411282029,-0.02065368070802632,-0.025482321861659586,-0.030766303868239826,-0.033921856837612265,-0.033604180211773554,-0.03012389403992923,-0.025139947217604708,-0.021292557892108818,-0.020710157278605118,-0.02337508433390886,-0.02703540032812963,-0.028242554082670693,-0.024246920021028243,-0.015083798450014249,-0.004099339602681362,0.0038495694592026266,0.005766203189405877,0.002525927741320119,-0.0019356268111252926,-0.0037146015413140722,-0.0009896644000211307,0.00565678269247638,0.014064556539712439,0.02180521382859872,0.027071554393595983,0.028977614148628202,0.02749159493973099,0.02329123303749593,0.017393076220960865,0.01076780452104788,0.004163713440813231,-0.0018826813602055674,-0.006665439737828402,-0.009577449339214167,-0.010163382596945969,-0.008310284191910457,-0.004318180596540356,0.0007045967810729037,0.004862597661746876,0.006638041054481009,0.006168589226223399,0.004989666134126606,0.004661402465382364,0.006105056079011409,0.00919355414672251,0.012970347214505965,0.01609414341107328,0.01768251347253229,0.01780958194491202,0.017191883202552105,0.016464763963262685,0.015578804233098166,0.01405043903053455,0.011427862324808713,0.007686367385881475,0.003253049158565287,-0.0014202891577192016,-0.005991264424889685,-0.010301040290186988,-0.013915464578778744,-0.016354494063590307,-0.0176922532906507,-0.018624098192576974,-0.019958329131320774,-0.021723183303193613,-0.02287739966525123,-0.021878502039619375,-0.017706372977784338,-0.010424580474250123,-0.001074377295729151,0.008614679643579653,0.01685303031294657,0.02232056171839684,0.02426190435659502,0.022617046834778456,0.018088432153577912,0.01198555620827324,0.0056356042507538,-0.0004213808601041642,-0.006591315191799372,-0.013396597112487033,-0.02077016213750051,-0.027211880082631958,-0.029957999150376682,-0.026537715659471998,-0.016386259548218422,-0.0016461904307361643,0.013665698791211512,0.025469058111136082,0.031271916295831044,0.03074245525276654,0.025603198405839266,0.0188473190554512,0.013220955870948832,0.010178342974999486,0.009754778496459384,0.010937229876872772,0.012472656011981083,0.013429209821902285,0.013468036239075097,0.012776212950686148,0.011660823005801344,0.010376007705091651,0.009137077576143713,0.008184056410450608,0.007704015361331708,0.0076122428398524445,0.007513409385828487,0.0071780869624953015,0.006659219496203589,0.006122704054461642,0.005727376772233064,0.005512064066690666,0.005448528741522926,0.005533242508413245,0.005713257085099427,0.005967396207814639,0.006320368784553807,0.006821586097439537,0.007573414244723881,0.008568794471817897,0.009542994079233582,0.010114807649831746,0.009910084165150638,0.008773517956499005,0.00684982547170681,0.004382556612627976,0.0015870247381916253,-0.0015191208693785586,-0.004882935412549576,-0.008154976345263453,-0.010731665701271783,-0.012228263241251529,-0.012884788400784263,-0.013375418670764451,-0.014211958406983366,-0.015521482615687986,-0.017176916290631332,-0.01903001469566684,-0.020936059205008805,-0.022785620609904713,-0.024592844732957222,-0.026336516107195986,-0.027706036462972993,-0.028214327776137926,-0.02722954330377245,-0.02432105763479178,-0.019697129076060867,-0.014264904511289816,-0.009228009406703097,-0.005451218516875392,-0.003005130277474889,-0.0010179020319238043,0.0014246579191601028,0.0047178790359611615,0.008667625747886104,0.012755034508963568,0.016447113809856702,0.01915440428247286,0.020612177583235546,0.02155107906179501,0.0233194593440287,0.0265244519089485,0.03040360889702826,0.03314972796477298,0.03298030478690384,0.029228209737336558,0.022405262417552654,0.013693935987523036,0.0044178525635284425,-0.004159344461576755,-0.011169349866945524,-0.01641096845621335,-0.020427778781622632,-0.02416221932187243,-0.02817549482509786,-0.03198757077604727,-0.03460309961696292,-0.035545522849971735,-0.03484663862903809,-0.03265470040213155,-0.02934383740815636,-0.026167092929326844,-0.025203478186860948,-0.02712365109515955,-0.0301591987026527,-0.03193817473961493,-0.03127810169016384,-0.028027241377128292,-0.02252441837668906,-0.015373233523629926,-0.0074984511857307205,4.101123348441418e-05,0.006468615698656118,0.011579639705183371,0.015698813950888957,0.019373247454287607,0.023030030804280274,0.026651513847460975,0.029718837829360998,0.031829625424985825,0.03300500280512002,0.033619186326897844,0.03402509194020896,0.03427218102015823,0.033947447817686334,0.03230259029586977,0.02892466804432175,0.024173653589565098,0.018917915313163634,0.013962196975327636,0.009832431330805011,0.006803938121989303,0.004922602520642269,0.0039625204224044705,0.003853099925474973,0.004792003581990192,0.006578036195585614,0.007696954428787015,0.006200356888807269,0.001389360879281761,-0.005839487044515028,-0.013438951817976441,-0.019259444910387127,-0.022234989836940635,-0.02275386601505535,-0.02213968249327752,-0.02154669701482403,-0.021176078640590377,-0.02022658576321387,-0.017886387554470515,-0.014159014480632667,-0.009912773940503104,-0.006407770148840843,-0.004304063087362469,-0.0034286947560149914,-0.003022778252925122,-0.002270950105640778,-0.0006684605748437072,0.001915287753549142,0.005293220894875921,0.009133549287827116,0.012987995189956199,0.016327104092065916,0.018582590711874698,0.01940501511687148,0.018822610147456273,0.017163646006240582,0.015035227858811527,0.013277430263571876,0.012405592398496746,0.01239853146595205,0.012769152018141453,0.012987995189956199,0.012712675447562657,0.011886724932205031,0.010831339846215622,0.010079511698931279,0.009963030269457088,0.010121868582376438,0.009775956938181965,0.008487611171199923,0.006895710643468568,0.0065603882201353825,0.008844112036255687,0.013898661650159894,0.020612177583235546,0.027530427890771057,0.03339681704472225,0.037007715222953166,0.0373042221188923,0.03394391952936974,0.02759748714834389,0.019563851251835077,0.010976058472001338,0.0027094727842786465,-0.0047135100567246855,-0.011229354725840917,-0.017155737848908753,-0.02221029181872446,-0.025118755708147623,-0.025387014517996468,-0.0248257988800826,-0.026629472935261002,-0.032255829585896116,-0.03975294132883998,-0.0451781202067566,-0.04504397991205342,-0.038090464144997956,-0.02592353213769417,-0.012334153271908678,-0.0017132551331983765,0.002787125618624273,0.0006975373730972353,-0.005864195952509955,-0.013731919535820217,-0.0200359819656664,-0.023272720413612558,-0.02350216805197885,-0.0216843568860208,-0.018948829217093118,-0.016008582419395827,-0.013265998173834956,-0.011190526130712352,-0.010452817670561646,-0.01147290462769484,-0.01358014215544556,-0.015436768848797666,-0.016089765720013804,-0.01577209127213085,-0.015592076695444672,-0.016043878370296295,-0.0161991862169433,-0.015133214088048352,-0.013050683290336807,-0.01075637460926671,-0.008825621191929823,-0.007321964897361135,-0.0059242008114053476,-0.003961681909440341,-0.0004178512650141176,0.005875623686335375,0.014431648803585244,0.022528817847306048,0.027142141939485415,0.026905659504043437,0.02266293636245172,0.016789494987778833,0.011614935656083838,0.00795815448404692,0.00516615242249619,0.002095303201417623,-0.0018050276546776403,-0.006330117314495217,-0.010530470504907272,-0.013177753940672287,-0.013209521603256159,-0.009849238615335362,-0.003167496878710837,0.00521909634884689,0.012451477570258501,0.015988251202460384,0.015377611214689406,0.01239147271136311,0.010132457803237729,0.011290202453611942,0.016323573625793567,0.023146507877842965,0.02863168943669922,0.03052714254722414,0.028299899657594132,0.023044143957546656,0.016824793116635046,0.011632585809489822,0.00864997777243587,0.008332303324552918,0.01039718614681423,0.01376453224523547,0.017103641147345187,0.019486198417489452,0.02068277166299223,0.020972206736607907,0.020809840135371956,0.02075689620902126,0.02140636261396505,0.02296297154670744,0.025031376123418093,0.026757406056073876,0.027212751264932354,0.02584673741791443,0.022931195172300568,0.019373247454287607,0.016048256061355775,0.013418618423085244,0.01134667902419074,0.009412395140581505,0.006853353760023406,0.002956553152404915,-0.0022815393265020684,-0.008123208682679583,-0.013650736235202243,-0.01820053153608112,-0.021465513714206057,-0.02347391996588857,-0.02435634051795774,-0.023996324432319884,-0.02237265841996041,-0.02001127305767147,-0.017886387554470515,-0.01690512919246589,-0.017353402579000917,-0.018726457756961776,-0.019997153370537833,-0.020184228879768708,-0.018888824358197727,-0.016170949020631778,-0.01270477382409808,-0.00941508273797822,-0.007145480786947302,-0.00625246230219384,-0.006545427842081865,-0.007410206952568052,-0.008200863694980961,-0.008455002817696173,-0.008056145069195247,-0.007180776737847769,-0.006146572271536689,-0.005341798019945895,-0.004953529492306259,-0.004999414664068016,-0.0052712039401892116,-0.005373565682529766,-0.004992355909479072,-0.004028745522924678,-0.002553326424667513,-0.0007778817251599295,0.000881082416055763,0.002074124759695043,0.0027341816922735736,0.002991849103305381,0.0030165580113003083,0.002921255023548698,0.002670646367105833,0.002208253293437167,0.0015234898486150348,0.0005810570326009197,-0.0005943366822014018,-0.0018756217344343237,-0.003008658565791485,-0.003764017179348176,-0.004085219915547725,-0.0040428630321025635,-0.003838141725377207,-0.00387696814255002,-0.004533493302082753,-0.005627704805244977,-0.006425418124291077,-0.006072447725507658,-0.004205229633338511,-0.0013779324920696163,0.001498781811802408,0.0036872028579666787,0.004912013299780979,0.005296751361148267,0.005070849434744579,0.004753174986861628,0.004806121091168078,0.005377934661766242,0.00630624909742017,0.007128671324461198,0.007114551637327561,0.005865034465474084,0.0037436794285454766,0.00155525729340333,-4.017213247223211e-05,-0.0006719903877293289,-0.0005272721975347648,-0.000114296046894095,5.5130071215308426e-05,-0.00026960326193393167,-0.0010143724368337577,-0.0018156168755389306,-0.0023168352774025347,-0.002260360884779488,-0.0015332399031254703,-4.37018364600663e-05,0.0022788473731938505,0.005194389618807714,0.008268767999385177,0.011138425073237283,0.01394454682192165,0.016902445950980675,0.019874466945129086,0.022440567080276128,0.024096009467042476,0.024498386792036992,0.023735971601847112,0.022048774620231398,0.019715628632209735,0.017093051926483895,0.014375172233006446,0.011565520018049735,0.008579383692679186,0.0051696807108127865,0.0011211027228196376,-0.003636946529012695,-0.009069171093783746,-0.014963788732223461,-0.02118666786145167,-0.027758982567279444,-0.03528079232843948,-0.04430628451963722,-0.054313011115326326,-0.06313024717761485,-0.06742944471182963,-0.06470098886522539,-0.054514210667602335,-0.03858462052533899,-0.020155991683457185,-0.0030721938909592256,0.00938768841054233,0.016027077619633196,0.01779193396946179,0.016771847012328596,0.015070525987667744,0.014089265447707364,0.014350463325011519,0.015490562177891251,0.016574184460192185,0.016796555920323523,0.01585059133126361,0.014068087005984786,0.012034971846307344,0.010337181287918837,0.00925708947189025,0.008635858085302234,0.008194643453356147,0.007689895674198071,0.007036898802981934,0.0061332932753229335,0.004834358287479601,0.0032248097842980123,0.0015305492565907033,7.277861293403685e-05,-0.0008731840595248151,-0.0009225999153544937,0.00022808598043077608,0.0026212307290717296,0.006020342312121089,0.010224230324716994,0.015176416018324894,0.02066865197585859,0.026136187737220366,0.03010004542445594,0.030964846314499635,0.028306956234227323,0.023199453982149416,0.01787664773635211,0.014569306496826265,0.014311636907838706,0.016447113809856702,0.019316770883708808,0.02137459495138118,0.021858159932905172,0.020792192159921726,0.018494348656667783,0.015038758325083872,0.01022775861303359,0.0039589899561321236,-0.003192203608750013,-0.010057490388333068,-0.015532069658593528,-0.019153554879729976,-0.02113019129087287,-0.02239029986154339,-0.02387629729088309,-0.02622709561026649,-0.029657963966120963,-0.034038333911174945,-0.038792876654248194,-0.04277437578306675,-0.04451454064854642,-0.042456720936785555,-0.0360149812120966,-0.026315346377296406,-0.016079176499152515,-0.008176154786986033,-0.003506347590360618,-0.0012543927435976323,-0.0004990345656320914,-0.001279100562614684,-0.003979329884890574,-0.008172624320713686,-0.012129429787227572,-0.013576611689173214,-0.011116403762639074,-0.005108837338953264,0.002649467925383253,0.009924203852284274,0.015141120067424428,0.017604860638186667,0.017287184012347964,0.015056406300534108,0.012599726662316563,0.011399622950541439,0.012087917950613794,0.014018671367950682,0.015585865165642861,0.015451735760718437,0.013457447018213808,0.010464249760298567,0.007827555545394842,0.0065603882201353825,0.006941597993186074,0.008720571852192554,0.011491397649976453,0.015003462374183409,0.018932032822341523,0.022885305644627305,0.02644327949810928,0.02911173266377387,0.03005064938802359,0.028582271620709365,0.024907842473222214,0.019856818969678853,0.014121030932335485,0.008381718962587022,0.0034789489070132236,0.0001927888098750892,-0.0010355506607607626,-0.00034372737237181215,0.0013293558025907922,0.0028541914100643612,0.0035283667230030778,0.003358939189222437,0.0028330129683417802,0.0026106415082104394,0.002967142373266205,0.0035777823610371818,0.0036977920788279686,0.002483570857874958,-0.0003084301146978952,-0.0040922808480924186,-0.007720822645862061,-0.010350455928221092,-0.011575266370035392,-0.011367014597037687,-0.010276333560147812,-0.009178593768668992,-0.008719731161272674,-0.008910334958820145,-0.009284483799326143,-0.009566862296308628,-0.009965717866853803,-0.01121523503870728,-0.013809572370165843,-0.01730751522928341,-0.02076663167122816,-0.02382335118657664,-0.026534187371155402,-0.028793184855634774,-0.02987327667166336,-0.028740238751328324,-0.024804629150183027,-0.01861703726003228,-0.012118840566366283,-0.007865541271647776,-0.007745529375901237,-0.011762341879266268,-0.01793580319250462,-0.023173884781632847,-0.024928162800378906,-0.022351466910503322,-0.016333313443911972,-0.008811503682751938,-0.0019179784000839092,0.002914196268959754,0.005490885624968085,0.006708637312193443,0.007820494612850148,0.00987478821425017,0.013203307895498596,0.017329540895793125,0.021152223491249837,0.02376421968793739,0.02497843001911165,0.02539494227693006,0.02586440063905492,0.026937435878450315,0.02853285380471951,0.030220072565892733,0.03165665217924258,0.03252498135760287,0.032588512326859116,0.031759016099538885,0.03032949306282223,0.028730525068678927,0.02721980784156555,0.025645559645195926,0.02363360768155081,0.020774544184471493,0.016793025454051178,0.011893783686793976,0.006698048091332153,0.001749391557223148,-0.0024756735903218863,-0.005818308602792448,-0.008871508541647331,-0.012390629842487476,-0.016735703836640997,-0.021656119689709277,-0.026290626579522726,-0.02944972961676926,-0.030543934586064234,-0.029922694487653216,-0.02876143026078541,-0.028577872150092377,-0.030035643272899308,-0.032485277224262414,-0.03512550408339424,-0.03708801645149199,-0.03747628062322012,-0.036071455604719645,-0.03353712095420072,-0.030798080242646703,-0.028443753634946705,-0.026601246628728238,-0.025083472824981662,-0.023300968499702836,-0.02031129735214844,-0.015447358069658957,-0.00882915165820217,-0.0013955811209065748,0.005229687747663931,0.009698301925880585,0.01162199658862853,0.011706708177563101,0.011198429932132678,0.011212549619266316,0.01213380312237555,0.013626872374038698,0.014918748607293086,0.015419968098134566,0.014908159386431795,0.0135703958034599,0.011914962128516554,0.01061249885235663,0.010199521416722066,0.010845459533349259,0.01239147271136311,0.014481064441619347,0.01664124807367652,0.018444933018633678,0.01964503455245305,0.02035097752797564,0.020965147982018963,0.02187582315404566,0.023188869117199626,0.02461841393347379,0.025638481289005224,0.025786734736974785,0.024960788577528665,0.023471241080314856,0.021946410699935092,0.020693360883853516,0.019620327822413876,0.018600240865280684,0.01757662126391939,0.016595362901914764,0.015444677006129493,0.01361628315317741,0.010711330128424835,0.006680397937926168,0.001904698532687852,-0.002895707602589641,-0.00692310714886021,-0.009570390584625225,-0.010661071621515101,-0.010636362713520173,-0.010361045149082383,-0.010346927639904496,-0.01051282252945704,-0.010308099044775932,-0.00920330049870817,-0.0071984247132980015,-0.004865287437099342,-0.002860411651689175,-0.001582655758955149,-0.0011061447405174463,-0.0013038085994273108,-0.0017944384338163502,-0.0022074147804730378,-0.0024191970197430883,-0.002415666553470742,-0.0024227274860154353,-0.0028251135228329577,-0.00383461125910486,-0.004999414664068016,-0.005451218516875392,-0.0047135100567246855,-0.002892179314273045,-0.00045667811777808115,0.0019541146063131055,0.003927222293548254,0.005321460269143195,0.006154471717045513,0.006472146164928465,0.006390962864310491,0.006140352029911876,0.005988574649537218,0.00582620804830127,0.0051414435145012635,0.0033554087229500894,0.0004328092473163089,-0.002998069344930195,-0.006266581989327477,-0.009273894578464852,-0.012316505296458446,-0.015595604983761266,-0.018973538125088046,-0.021656119689709277,-0.02231618402733736,-0.020106576045423083,-0.015161451284359875,-0.008490298768596638,-0.0015650071301181907,0.0041601851524966345,0.0075487075146847046,0.00798992214663079,0.005561479704724769,0.0011987564283475647,-0.0033863378725698307,-0.0060512692837850785,-0.0056206438727002825,-0.002768639130209911,0.0005669382166495829,0.0023882700480790985,0.0013575934344934658,-0.0034569319523265144,-0.012051776952881945,-0.023272720413612558,-0.034507792273299816,-0.04215668575252983,-0.043434427052960335,-0.0376139492062399,-0.026505939285065123,-0.013573081222900865,-0.0025074390749500056,0.004386084900944573,0.006800407655716955,0.005977985428675928,0.003923694005231657,0.002536516962181409,0.0030059687904390184,0.005356756220043662,0.008586442447268128,0.011336087625373699,0.012405592398496746,0.01126902401188936,0.008427606312304528,0.005473237649517852,0.004304901600326598,0.0057379659930943535,0.009080603183520665,0.012635022613217028,0.014481064441619347,0.013672759723756207,0.010686621220429907,0.0071569106987284725,0.005155563201634901,0.006172119692495747,0.010277174251067693,0.01627768627607606,0.02258882052824569,0.028250481841604277,0.03276146379304485,0.035934679983557774,0.037748960683243474,0.0381442814316048,0.03688418157275728,0.03375683313036011,0.028956422639171114,0.022761771994431426,0.015536447349653006,0.008081694668110054,0.0016893862627366041,-0.002765108663937564,-0.005426509608880465,-0.007618460903521507,-0.011059929370016026,-0.01617800777522072,-0.022037318572981215,-0.02731071571461167,-0.030992201438732013,-0.0326017542978251,-0.03234408035292604,-0.03078041702150621,-0.028189607978364242,-0.02451517883087709,-0.01952417325396363,-0.013131868768910532,-0.005648883246967557,0.0022894365940551403,0.009490050152882882,0.013683348944617497,0.012282052214433611,0.005010844575849186,-0.005426509608880465,-0.015757973762952966,-0.024232806867761858,-0.030575689180913596,-0.03491019137785184,-0.036787981267236265,-0.035111369150570344,-0.029280284659342615,-0.01990891131533092,-0.00855383409376438,0.0028294825020694337,0.012529132582559879,0.01939089542973784,0.022786491792205106,0.02277588514769781,0.020470989423722177,0.017731929110566397,0.016192974687141492,0.016510649135024442,0.018321390656614794,0.02070395010471481,0.022733545687898656,0.023732443313530516,0.023315931055712107,0.0212439960127291,0.01738601746637192,0.011816130852448349,0.004979076913265316,-0.0021932950933394005,-0.008486770480280043,-0.012743600241270895,-0.014074300713742344,-0.012069424928332177,-0.007028999357473111,-0.0001495931738906669,0.00681805780912294,0.012462066791119792,0.015956483539876512,0.01700480987127698,0.015709403171750243,0.012846807030442832,0.010150105778687963,0.009895966655972751,0.013425679355629938,0.0200191855709148,0.027318643473545255,0.03253203793423607,0.033520350694918134,0.029715309541044403,0.022137003607703806,0.01269855793838477,0.0030553844284731215,-0.00623128386047126,-0.015239104118705502,-0.023978661211179395,-0.03202993201540394,-0.0385775639487058,-0.04298263191197596,-0.04497339236616399,-0.044535710378446,-0.04218846212693671,-0.03901171764810719,-0.036300881463528424,-0.03510784086225374,-0.035729080960664766,-0.03702801377055235,-0.03735627526134084,-0.0361138168440763,-0.03379126661078319,-0.03056863260428041,-0.025708219432151767,-0.01837348953613411,-0.008680904744099861,0.002441213974429798,0.013478625459936389,0.02270529760180838,0.028811697479518148,0.031342525621277983,0.03074245525276654,0.028377543780116758,0.025860872350738324,0.024247791203328636,0.023750084755113494,0.023916001424223548,0.024187766742831483,0.02416306872461531,0.023672440632590875,0.022680599583592205,0.021198108663011594,0.018928504534024924,0.015183476950869587,0.009581822674362146,0.0027200620051399363,-0.003746369203897943,-0.007876130492509065,-0.008596190977209539,-0.006203046664159736,-0.0024262557743320316,0.0006728295540801835,0.0019011689375978056,0.0015305492565907033,0.000926968676795395,0.001802337008142873,0.005328519023732137,0.011385505441363552,0.018406106601460866,0.024268960933228213,0.027131557074535625,0.02594204476157754,0.020933380319435094,0.013609224398588466,0.005907391348919244,-0.00039314322820149073,-0.003298095817362914,-0.0017203145411740447,0.0037083812996892593,0.011018413177490747,0.017587210484780683,0.021081629411493153,0.02061570587155214,0.016888326263847037,0.011343148557918393,0.005533242508413245,0.0007681316706494941,-0.002157998489052209,-0.003287506596501624,-0.0032027928296113027,-0.002465084369460596,-0.0013320462313299844,-0.000255484445982595,2.1844046779638787e-06,-0.0017061957252227083,-0.006090095700957892,-0.012807133388482885,-0.020307769063831842,-0.026389462211502436,-0.029036745647267447,-0.02730013084966188,-0.02143374605162219,-0.012545937689134482,-0.0021227014491738668,0.007908738846012816,0.015529388595064064,0.019108519110711104,0.01755897328846916,0.010799572183631753,-0.00020606854659380134,-0.013964880216812848,-0.028143718450690983,-0.03969293864790034,-0.04541460264219857,-0.04315911166647829,-0.03309238238984954,-0.018249949352070978,-0.0032133820504725926,0.007933445576051992,0.014022199656267276,0.016867150000080208,0.019002626902098203,0.02158637719065123,0.023894809914766463,0.024173653589565098,0.021046331282636936,0.01474579278519585,0.0070545489563879175,0.0003728039528297651,-0.003732249516764306,-0.005228847056744051,-0.005592406676388759,-0.007237251130470815,-0.01227062012469669,-0.021289027425836472,-0.032619395739408086,-0.042661426997820655,-0.048083077587420676,-0.0474124196730198,-0.0413448527463501,-0.03227702109535321,-0.02315271505173327,-0.016245071388705058,-0.012485930652283338,-0.011582327302580088,-0.012552996443723425,-0.014261376222973222,-0.0160403500819797,-0.017406346505351618,-0.01766048780602258,-0.016343902664773265,-0.013724858603275523,-0.01101404202029852,-0.00891386542509249,-0.00648542298318647,-0.002154468893962162,0.004703759348827524,0.01328449119611657,0.02206641606181438,0.029743557627134678,0.035560528965096025,0.039118481039020485,0.040308015131536076,0.039340872100753585,0.03668651030879787,0.03311797336992362,0.0295141317683259,0.026506810467365517,0.024388966295107496,0.02296297154670744,0.021685210644675185,0.020294503135352592,0.018769666221105576,0.017174235227101868,0.015603513141093093,0.014219864386359441,0.013160951012053437,0.012582078686866331,0.01249736491997601,0.01278327170527509,0.013178598987503669,0.013439799042763574,0.013492742969114273,0.013369204963006892,0.013160951012053437,0.013033882539673707,0.013108004907746986,0.013213897116359887,0.013168009766642381,0.012765623729824859,0.011876133533387992,0.010488956490337743,0.008752339514776424,0.006779231391950127,0.004640224023659783,0.002243551422293384,-0.0005166831944690498,-0.0035910613572509385,-0.006739562105901682,-0.009648043418970851,-0.011952943498857987,-0.0132730569284239,-0.013446012750521137,-0.012701243357825735,-0.01156820761544645,-0.010477526578556573,-0.009475087596873613,-0.008486770480280043,-0.007399619909662513,-0.006195987909570793,-0.004837048062832069,-0.0034604624185988614,-0.0022780088602297214,-0.0013920513080209528,-0.0008625948386635251,-0.0008025897619725565,-0.0011590906270283218,-0.001582655758955149,-0.001681487688410081,-0.001423818752809248,-0.0010355506607607626,-0.0007319954644202977,-0.0005272721975347648,-0.0001248852024167126,0.000881082416055763,0.0026177002627993827,0.0047461162322726845,0.006486263674106351,0.0070757252201547475,0.0061897676679459794,0.004103708581917838,0.0016329107811356822,-0.00012841488462498926,-0.0005696288631843501,0.0001927888098750892,0.001318766581729502,0.0017917477872815832,0.0009763847504206485,-0.0012155658908336686,-0.004169933682438045,-0.00681721711820306,-0.008504418455730276,-0.009570390584625225,-0.010879914793329845,-0.013583670443762156,-0.018846469652708316,-0.02634710097214577,-0.033847741003406234,-0.038439895365686025,-0.038213997795193834,-0.03314885678247259,-0.02503052672067521,-0.016668638045200912,-0.010710487259549204,-0.008253809799287411,-0.008917393713409088,-0.012274148413013287,-0.018041693223161768,-0.02527406573275038,-0.03174403176397211,-0.03502314016309793,-0.03358653877019058,-0.027758982567279444,-0.019502994812241048,-0.010978746069398053,-0.003608709332701172,0.0021482486523373484,0.006330958005415097,0.0092041433675838,0.011106659588609166,0.012567958999732693,0.014311636907838706,0.016718900908022145,0.019641504086180706,0.022479400031316193,0.024685473191046626,0.02604440868187385,0.02646092093969226,0.026054993546823633,0.02489372931995583,0.023012389362697293,0.02063688431327472,0.018204911405096353,0.01645064427612905,0.015931776809837338,0.016944802834425836,0.01917911319046779,0.020912204055668262,0.019189700233373328,0.011727888797241431,-0.0013955811209065748,-0.017000430002261747,-0.030600408978687283,-0.03870815417553487,-0.03999297383215607,-0.03528079232843948,-0.0266436078680849,-0.016495682223103672,-0.006990172940300298,0.0005598788086739146,0.005956806986953348,0.009606529404401322,0.012137333588647896,0.014166918282052991,0.01609767169938988,0.01811313888361709,0.02012507560157195,0.021988771939291753,0.023439486485465493,0.024286602374811197,0.024533691454760465,0.024427799246147564,0.024276017509861407,0.024378381430157713,0.024657225104956344,0.02472430614208669,0.024194845099022186,0.02274060226453185,0.019941530558613425,0.015624691582815676,0.010372477238819304,0.005286162140286978,0.0013011179528925438,-0.001268511559548969,-0.0026309792590131394,-0.003552234940078125,-0.004964118713167549,-0.006976053253166661,-0.008836210412791114,-0.009633925909792966,-0.008910334958820145,-0.006866632756237163,-0.004056982719236201,-0.0008696542466391934,0.00263181994993302,0.006052109974704958,0.008374660207998078,0.008639388551574579,0.006352136447137678,0.001985882051101401,-0.0029698321486186716,-0.007113713124363431,-0.009563331830036282,-0.0100751383637833,-0.009051523118333512,-0.007473742277735792,-0.006587784725527025,-0.007339612872811369,-0.009799820799345509,-0.013174225652355692,-0.016026230394846065,-0.016838063401025803,-0.014716708364097192,-0.009715109210410938,-0.0028780596271394078,0.0043613781709053966,0.010736039036419764,0.015239951343492635,0.01740013715350556,0.017424843883544736,0.015984722914143788,0.014018671367950682,0.012479714766570024,0.011862016024210104,0.011794952410725769,0.011445510300258947,0.010068922478069987,0.0072875096373805496,0.003097741311918282,-0.0018932703632712825,-0.006704266155001215,-0.010664599909831696,-0.01326952646215155,-0.014250787002111931,-0.013894283959100414,-0.013375418670764451,-0.01403900476284188,-0.01658392645626634,-0.02043836800248392,-0.02411280150588257,-0.026202375812492802,-0.02639299049981903,-0.025249367714534204,-0.0234386153031651,-0.021049007990254897,-0.017635778898027653,-0.012662416940652921,-0.0059206703451330014,0.0024659228824247255,0.011696118956701812,0.020238026564773796,0.026390311614245317,0.0292988190627835,0.029214096584070173,0.026619759252611612,0.0218299336263724,0.01546938373616867,0.008921764870601314,0.003976640109538108,0.0017529211523131948,0.0019294065695004787,0.002960081440721511,0.0034824793732855706,0.0035530734530422547,0.004001346839577284,0.005293220894875921,0.007216913379668115,0.009066483496387029,0.009482989220338188,0.0068851214226072766,7.277861293403685e-05,-0.010498705020279154,-0.02242560452426686,-0.03280295385010112,-0.03971060186904083,-0.042919100942719716,-0.04310618734172935,-0.041076593936501246,-0.03725038305272794,-0.031638139555359206,-0.024306922701967885,-0.016319195934734087,-0.00994806989140357,-0.007163128762397535,-0.008006729431161142,-0.010745785388405421,-0.012821253075616521,-0.012563585664584716,-0.009863356124513249,-0.0058571350199652615,-0.002020339924628888,0.0008493149712674678,0.0025082797658698857,0.002885959072648231,0.0019011689375978056,4.807064146008255e-05,-0.0015050022712227971,-0.0013461652650768958,0.0013823014713060925,0.006366253956315564,0.012310289410745133,0.017774285994011558,0.021981715362658565,0.02496784515416186,0.027149220295676117,0.028857587007191408,0.03016004810539558,0.031229555056474383,0.03229553371923658,0.03331562285432552,0.03406392489124902,0.0343110139711983,0.03393686295273655,0.03282852305061768,0.03093659822840936,0.02820459231393102,0.024872537810498748,0.021335768534208367,0.01807078200017193,0.015462324981579727,0.013108004907746986,0.009348859815413764,0.0026918248088284133,-0.006824275872792003,-0.017106322210874648,-0.02474462646924338,-0.02708128985580289,-0.023668062941531395,-0.015934457873366798,-0.006227755572154664,0.002751829667723807,0.008642919017846928,0.01038659692595294,0.008547616030095316,0.004806121091168078,0.0011422809467466427,-0.0008096491699482247,-0.0007319954644202977,0.00017514024637680324,0.0003763337657153869,-0.0007037578325176241,-0.0030298370075140654,-0.00639012217339061,-0.010216326523296668,-0.013763685020448337,-0.016128592137186617,-0.016566276302860356,-0.015320287419323475,-0.013604848885484737,-0.012567113952901311,-0.012613001302618818,-0.013417775554209612,-0.014102540088009619,-0.013693093118647403,-0.011539970419134927,-0.007593751995526581,-0.0024368449951933215,0.002970670661582801,0.007739311312232175,0.01147374749657047,0.014389291920140084,0.016789494987778833,0.01862141712904751,0.01938030620887655,0.018596710399008336,0.016168265779146564,0.01261384417149445,0.00880881390739947,0.00576267272313353,0.004040173256750097,0.0032036335205311833,0.0021482486523373484,-0.00016371201162156113,-0.00387696814255002,-0.008225570425020137,-0.012132960253499919,-0.014843776836476924,-0.016206244971532245,-0.016001521486851137,-0.013996647879396718,-0.010661071621515101,-0.007057236553784634,-0.003940503467717761,-0.0012049766699723785,0.0015623167013789985,0.004230779232253319,0.006073288416427539,0.006496852894967641,0.00558265814644735,0.003821332262891103,0.001601143554142962,-0.0009473077343715454,-0.003756958424759233,-0.006750151326762973,-0.009612747468070384,-0.01169527608782618,-0.012422397505071348,-0.011829405492750604,-0.010505763774868096,-0.008931513400542724,-0.007011351382022878,-0.004554671743805333,-0.0018791515473199458,0.0001998482178507576,0.0010187411982746587,0.0002492642043577812,-0.0020979936301568154,-0.005461807737736682,-0.00874443789131185,-0.010763433363855655,-0.010654012866926157,-0.0081585068115358,-0.0037287190504919593,0.0015623167013789985,0.006503913827512336,0.010192462662133122,0.012451477570258501,0.013768060533552066,0.015024638637950238,0.016863619533807862,0.019009685656687147,0.020908673589395917,0.022401734129236062,0.023499489166405138,0.02362302281660102,0.021540492018889475,0.016401226460139195,0.008907647361423429,0.000926968676795395,-0.005341798019945895,-0.008229100891292484,-0.007971431302304925,-0.007120771878952375,-0.009549212142902644,-0.01757577403913226,-0.029601489573497914,-0.0411330683291243,-0.04768420677118524,-0.04699945748307549,-0.04002120013868883,-0.030007416966366537,-0.020530140523963184,-0.01367544296524142,-0.009475087596873613,-0.006446596566013657,-0.0029310057314458583,0.0017423321492474795,0.0070545489563879175,0.01205968075430227,0.01622474234972536,0.019253235558541068,0.0208733754605397,0.020954558761157673,0.01974033536224891,0.017894295711802344,0.016362400042966383,0.015868239306713845,0.016680074490849333,0.018275505484853037,0.019863877724267794,0.021025152840914357,0.021632264540368734,0.021392245104787162,0.019807401153688998,0.016595362901914764,0.011893783686793976,0.006253302993113719,0.000273972241170408,-0.005320619578223315,-0.009863356124513249,-0.013121279548049241,-0.015175570971493512,-0.01598740397767325,-0.01535911601445204,-0.013361298983630815,-0.010163382596945969,-0.0061853986887095026,-0.0020697557804585666,0.0016717378516952208,0.004943780962364849,0.007764020220227101,0.010128927336965382,0.012013793404584763,0.013475094993664042,0.014583426183959903,0.015419968098134566,0.015967074938693555,0.016005899177910617,0.014964635957010596,0.012680909962934537,0.009624177379851556,0.006652160741614646,0.004379026146355629,0.0029989100358500755,0.0021906053179869336,0.0013399448056565073,-0.0001495931738906669,-0.0022780088602297214,-0.004413483584291966,-0.005941848786855581,-0.006414828903429788,-0.005723005615040836,-0.00387696814255002,-0.0011343825902156949,0.00181645582409421,0.004107239048190185,0.00521909634884689,0.0051414435145012635,0.0041601851524966345,0.002649467925383253,0.0009763847504206485,-0.0005378614183960549,-0.0015332399031254703,-0.0018297354736946918,-0.001473234826434502,-0.0005978664950870235,0.0009304982718854417,0.0030165580113003083,0.005197920085080061,0.00678629014653907,0.007336925275414652,0.00676511170481649,0.0053108710482819045,0.0032812863548768102,0.0008493149712674678,-0.0019497458448722044,-0.00514413328985373,-0.008543244872903089,-0.011935295523407753,-0.015210866922393979,-0.018207592468625817,-0.020646621953437375,-0.022182043732634184,-0.02257383619267891,-0.021712594082332323,-0.019644182971754416,-0.016566276302860356,-0.012870668713650625,-0.009408023983389276,-0.00680662789734177,-0.004960588246895202,-0.0031886731424776655,-0.0010602586975733896,0.001375242063330424,0.0036907333242390257,0.005494416091240432,0.006825116563711884,0.008028748563803603,0.009292385422790718,0.010573670257228064,0.011593757214361256,0.011999673717451125,0.011523163134604573,0.00997008902404603,0.007111023349010964,0.002850660943792014,-0.0024368449951933215,-0.007830243142791559,-0.012069424928332177,-0.014233139026661696,-0.01415548401436032,-0.012122371032638628,-0.008613838952659773,-0.004272295424778599,0.0001857293583403058,0.004018994815027517,0.006736874508504966,0.008180525944178261,0.008568794471817897,0.008124049373599463,0.007114551637327561,0.005879154152607721,0.004968487692404026,0.0046861113733772915,0.004700231060510928,0.004297842845737656,0.002953022686132568,0.0007610722626738256,-0.001865032513573034,-0.004533493302082753,-0.0069089896396823235,-0.0086385478606547,-0.009443322112245495,-0.009115058443501252,-0.007671407007827958,-0.005567699946349583,-0.003619298553562462,-0.0024474342160546118,-0.0020626963724828984,-0.0020415181485558933,-0.0018897407681812358,-0.0013285166362399375,-0.00047432652881946447,0.00038692298657667695,0.0011493405725178864,0.002130600241295965,0.003828391017480046,0.005766203189405877,0.006440378502344594,0.004767294673995265,0.0015411384774519934,-0.001007312811062514,-0.0009578969552328355,0.0018199856369798316,0.005579127680175003,0.008198173919628494,0.008886468919700848,0.008487611171199923,0.008321714103691627,0.009059424741798086,0.010305413625334967,0.011029002398352035,0.010270115496478749,0.007718132870509595,0.004114297802779127,0.0006798889620558519,-0.001459116010483165,-0.001854443510507319,-0.0009578969552328355,0.0001892590841076975,0.0007151860019341937,0.0005422301798369561,0.0006834185571458985,0.0021094220173689597,0.004661402465382364,0.00743575655148286,0.009373568723408691,0.00944063451484878,0.006973365655769945,0.002070594946809421,-0.0044170140505643135,-0.011038748750337696,-0.016047408836568643,-0.01805581508825116,-0.017035725953162214,-0.014430801578798112,-0.012351801247358914,-0.012263559192151996,-0.014151953548087974,-0.01677805854213041,-0.018825289033029984,-0.01964771343802676,-0.019315921480965927,-0.018151115898047018,-0.016132122603458966,-0.01244004548052158,-0.006605434878933009,-0.00018841998309551542,0.004033114502161154,0.004608458539031665,0.002416507244390622,-0.000311959927583517,-0.0016603092466875012,-0.0008661244337535717,0.0014352469222258177,0.003701322545100316,0.0044249134960731365,0.0030447952076118317,0.00014337284514762306,-0.003015717320380428,-0.0052747344064615585,-0.006001853645750976,-0.005172370486165254,-0.0032239712713338833,-0.0006437527558266555,0.0023812091155344045,0.0062638922139750105,0.011629055343217475,0.018519057564662707,0.026090298209547107,0.03295560676868767,0.03751953482443469,0.038387842223237476,0.03509459889128776,0.028282258216011155,0.019687391435898212,0.011590228926044662,0.005812088361167633,0.0031259785082298056,0.00327069713401552,0.005448528741522926,0.00870292387674232,0.011943199324828081,0.014163389993736395,0.015236420877220288,0.0162918059632097,0.01886849749717378,0.023619494528284424,0.02935176516708995,0.0333403426520992,0.03309678186046653,0.027841026160419058,0.019126167086161338,0.010323061600785199,0.005152032735362554,0.005921511036052881,0.01197496698741195,0.02032627079793646,0.027353926356711217,0.030396552320395065,0.0281269481914084,0.020827490288777943,0.01034424004250778,-0.0007072874276076708,-0.010082199296327995,-0.017286336787560832,-0.023283305278562344,-0.029273228082709424,-0.03555610771492152,-0.04138721398570676,-0.045555799513534945,-0.04714416086317095,-0.04589111758095663,-0.04245317086891145,-0.038425782212419636,-0.035827916592644476,-0.036427965181598417,-0.04117895785679755,-0.04931495113973541,-0.058336893263059054,-0.06504336350928026,-0.06622581924560515,-0.05895813336147007,-0.042904987789453335,-0.021596114830813886,-0.0006119853110383603,0.015388198257594944,0.025267880338417578,0.030855425817570142,0.034935760578368405,0.03919967522941721,0.043530649138038856,0.04644971967196932,0.046128514757814015,0.04129632789221815,0.031854323443202,0.018699072141348888,0.0033448216800445506,-0.01189646910623494,-0.024204558781671583,-0.03105220411967165,-0.03098514486209882,-0.02488227327270565,-0.01638979001449077,-0.010036311946610487,-0.00821145291584225,-0.009644515130654256,-0.011197587063257047,-0.010272803093875465,-0.006248934013877243,-0.0003049005196078486,0.005797970851989748,0.010926642833967232,0.014851682815852998,0.017890765245529995,0.020354507994247987,0.022377036111019887,0.023993645546746174,0.02516904470643787,0.02601618237534108,0.026732708037857704,0.02733981320344483,0.027551597620670634,0.026609152608104314,0.02367596892090747,0.01832492112288714,0.010912523146833596,0.002434155219840855,-0.0058924331488214785,-0.012905966842506843,-0.017621659210894015,-0.01953829294109727,-0.018881765603608783,-0.016587454744582935,-0.013763685020448337,-0.011137582204361653,-0.008892686983369912,-0.006852513069103526,-0.004681742394140815,-0.0021756473356847423,0.0005598788086739146,0.0032318707168427063,0.005681489422515556,0.008007570122081023,0.010591318232678297,0.01372217318383456,0.01737895871178298,0.021212228350145232,0.0249254839148052,0.028363430626850372,0.03125427485424807,0.033283868259476164,0.034060396602932426,0.033421515062938424,0.03130016438192132,0.02776691032621303,0.022980612988290423,0.017329540895793125,0.01149492593829305,0.0061332932753229335,0.0015834949253060037,-0.0023168352774025347,-0.006171279001575865,-0.01075637460926671,-0.016312137180145146,-0.022224404971990845,-0.027406023058274782,-0.03086866778853613,-0.032340552064609444,-0.03223113156767995,-0.03117928783774164,-0.029700325205477624,-0.0283413897146504,-0.0278084003832693,-0.028426112193363728,-0.02974621473315088,-0.030829834837496066,-0.0307874735981394,-0.029153222720830138,-0.026022367769673878,-0.021906728346152142,-0.017452233855069124,-0.013078922664604082,-0.008875036829963927,-0.004593498160978146,-8.40472906509618e-06,0.00461198682734826,0.00843819553316582,0.010478369447432204,0.010305413625334967,0.008445254287754762,0.006087405925605425,0.004396674121805862,0.0038742783671975537,0.004347258483771759,0.005275572919425688,0.006126234520733989,0.006496852894967641,0.005995635582081912,0.0043190212874602354,0.0015976139590529155,-0.0014555861975975434,-0.00380284359652099,-0.004688801148729758,-0.003968740664029284,-0.0020097507037675983,0.0005775272197152979,0.003002438324166671,0.004671991686243654,0.005437939520661635,0.005586188612719696,0.005596775655625236,0.005808560072851038,0.006288601121969937,0.006899241109740914,0.007418108576032627,0.007848731809161673,0.008335833790825265,0.009002948171219289,0.00977948522649856,0.010340709576235433,0.010368948950502707,0.00977948522649856,0.008695862944197627,0.007386340913448757,0.006108584367328005,0.005067321146427984,0.004336669262910469,0.0039978185512606875,0.0041001802936012416,0.004520214305868997,0.005000255354987896,0.0052049788396690035,0.0049084828335086315,0.004079001851878662,0.0029071375143708117,0.0017776289713302463,0.0010152113853890371,0.0005951758485522564,0.00024573439147215943,-0.00027666266990960007,-0.0009225999153544937,-0.0015050022712227971,-0.0019179784000839092,-0.002334483252852768,-0.0031710251670274327,-0.004657033486145887,-0.006683087713278636,-0.00891386542509249,-0.010943447940541834,-0.01235533171363126,-0.012665945228969518,-0.011543498707451522,-0.009143295639812775,-0.005987733958617339,-0.0025321479829449323,0.0010399194222016639,0.004633165269070841,0.008056985760115126,0.010640736048668152,0.011565520018049735,0.01065485573580179,0.008579383692679186,0.006256833459386066,0.004481387888696183,0.003669554882516446,0.0036907333242390257,0.004124887023640418,0.00459080838562568,0.004862597661746876,0.004781414361128902,0.004301373312010002,0.003507188281280498,0.0027553601339961537,0.0022294317351597473,0.0020035306799383594,0.0020564761308580846,0.0021870748517145867,0.0021164814253446284,0.001759980560288863,0.0012728803209898702,0.0009199092688197266,0.0009057904528683898,0.0012093454314132798,0.0015834949253060037,0.0017670399682645313,0.001622321778069967,0.0013787718762160459,0.0015093710326636982,0.002592991354804455,0.0047425857660003375,0.007492230944105907,0.009987739177452016,0.011583167993499966,0.012042030600896286,0.01147374749657047,0.010157164533276905,0.008515848367511446,0.007103964594422022,0.006567446974724325,0.007220443845940462,0.008784107177360294,0.010626616361534514,0.01227146299357232,0.013168009766642381,0.012479714766570024,0.00972654130014786,0.006052109974704958,0.0035283667230030778,0.002864780630925651,0.0022647298640159643,-0.0008731840595248151,-0.007434915860562979,-0.01614624011263685,-0.02445517614993745,-0.02988741160448725,-0.03162402640209282,-0.03092161389284258,-0.02988741160448725,-0.03036392654324531,-0.03315944164742238,-0.037846903353365276,-0.043208529482468144,-0.047535975102773194,-0.04877137694340453,-0.045107532660867165,-0.03603970100987028,-0.022909176039658107,-0.00861736941893212,0.0036907333242390257,0.012260873772711033,0.01722718133140832,0.01959561891441895,0.02046745895744983,0.020428630362321266,0.019341479791703736,0.017022457846727214,0.013662170502894916,0.010421892876853406,0.00896059346572988,0.010563081036366774,0.01555409750305899,0.022497041472899174,0.028059867154278054,0.028377543780116758,0.021219289282689926,0.008011100588353371,-0.006841923848242236,-0.01860644803917099,-0.02474815475755998,-0.024998750346268337,-0.021094895339972403,-0.016319195934734087,-0.014617874910073235,-0.018341719695594488,-0.025856472880121335,-0.0324958620892122,-0.033674789537220494,-0.027349548665651736,-0.01477318275672024,0.00030573946816312813,0.013672759723756207,0.022620575123095052,0.026704459951767425,0.0270574412403296,0.025469058111136082,0.02359479651006825,0.022504098049532368,0.022585292239929094,0.02363360768155081,0.02517962957138766,0.026746821191124086,0.027812799853886287,0.0281269481914084,0.02771396422190658,0.026926829233943017,0.026058521835140232,0.025027847835101497,0.023368877160018557,0.020481576466627717,0.01621768359513642,0.01126902401188936,0.0067545224839551995,0.0034224745143901776,0.001251702097062865,-0.0003684351913888639,-0.001854443510507319,-0.00320632329588365,-0.004113459289814998,-0.004198170878749568,-0.0032204408050615363,-0.0014273485656948698,0.0003763337657153869,0.001724683302614946,0.002751829667723807,0.0038107430420298133,0.005028492551299419,0.006140352029911876,0.00680746858826165,0.007132201790733545,0.007248681042251985,0.007058077244704514,0.0064580264777948275,0.005550890483863479,0.004594338851898028,0.003680144103377736,0.002645937459110906,0.0013575934344934658,-2.6053294741337866e-05,-0.00119791726199671,-0.0016532498387118327,-0.0008272975809896082,0.0012552319099484869,0.0036166087782099955,0.004636695735343187,0.0027306512260012266,-0.002599211596429269,-0.0099163022288197,-0.016926307634188467,-0.021906728346152142,-0.024222222002812068,-0.024271639818801923,-0.023089184082477034,-0.02143374605162219,-0.019234738180347953,-0.015895631456193986,-0.010879914793329845,-0.0041487552407154646,0.003581310649353778,0.01082428109162668,0.016189444220869143,0.019196761165918022,0.02012507560157195,0.019563851251835077,0.018028425116726768,0.015677635509166375,0.012405592398496746,0.008120521085282868,0.0027341816922735736,-0.003636946529012695,-0.010834027443612339,-0.018857058873569605,-0.02803782624207808,-0.0386728495128114,-0.05010912092477466,-0.060504155251306924,-0.06740121840529685,-0.06889782247914385,-0.06409033363176415,-0.053370587882317515,-0.038394005838012765,-0.021440806984166883,-0.004967649179439896,0.008914706116012371,0.018981448460375624,0.025229047387377513,0.028642274301649007,0.03064364140034434,0.03204493813052822,0.03272968741863797,0.0321755283573573,0.030064762541289976,0.026722123172907918,0.02289591228913461,0.019182641478784384,0.015801175693229506,0.01269855793838477,0.00974771974187044,0.006698048091332153,0.003426004980662524,0.00010807573993060873,-0.002991010590341252,-0.0057088859279071985,-0.00801025989743349,-0.00962686497724827,-0.0100751383637833,-0.009595099492620152,-0.009372725854533059,-0.01052341175031833,-0.013075394376287484,-0.015489714953104116,-0.01573326485495804,-0.012623590523480109,-0.006616024099794299,0.0006128244773892148,0.007012192072942758,0.01104665255175802,0.012285582680705957,0.011396094662224843,0.00972654130014786,0.008611151355263058,0.008685275901292087,0.009712421613014223,0.010820750625354331,0.011004295668312859,0.009871257747977823,0.007795787882810972,0.005727376772233064,0.004435502716934427,0.0041601851524966345,0.004788473115717846,0.00598504418326487,0.007333394809142306,0.00855467696264001,0.009475930465749245,0.009952441048595797,0.00987478821425017,0.009221791343034033,0.008152288747866738,0.00680746858826165,0.005321460269143195,0.0037683861585846527,0.0022294317351597473,0.000881082416055763,-0.00026607366684388504,-0.001402640528882243,-0.0026345097252854868,-0.003933442535173067,-0.005130015780675844,-0.005987733958617339,-0.006308938872772637,-0.0059242008114053476,-0.004819400087381835,-0.0031074898418596924,-0.0010673181055490578,0.0009587361215836902,0.0026424091707943098,0.003750738183134419,0.004414324275211847,0.004799062336579135,0.005035553483844113,0.0052049788396690035,0.005339108244593428,0.005420291545211402,0.005388523882627532,0.005243805256841817,0.00497554862494872,0.004562571189314157,0.004163713440813231,0.003916633072686963,0.003846038992930279,0.003556603919314601,0.0025012188333251918,0.0004963439190973242,-0.0020979936301568154,-0.004649974731556945,-0.006718385842134853,-0.00807379304464548,-0.008737379136722906,-0.008966809351443191,-0.009132706418951485,-0.00962686497724827,-0.010706956793276858,-0.012164727916083789,-0.013417775554209612,-0.013760156732131741,-0.0127365393087262,-0.010262213873014174,-0.006559547529215501,-0.0023238940319914776,0.0012764101338754918,0.0034577726432463945,0.00440020458807821,0.005046142704705403,0.006616862612758428,0.009627707846123903,0.013549219539693071,0.01718482444796316
