0.9881938971333237,0.976196555212811,0.9182883057630381,0.44457732792546056,-0.5967814645505517,-0.8460317912489548,-0.9172947007528249,-0.9488482126688185,-0.9612959483574208,-0.960905301174066,-0.9516398587715933,-0.94690463877263,-0.9549160038231438,-0.9657786066082257,-0.9732811464184145,-0.9764025887317815,-0.9733594181747987,-0.9543347022766429,-0.8569150365094209,-0.2506363209653275,0.43113928504893906,0.1227675801328497,-0.6932898601269777,-0.9011544537713593,-0.9467779899806839,-0.9613698090168934,-0.9693386843182439,-0.9787137335785526,-0.9849405474189686,-0.9697449379181555,-0.9097539182069394,-0.8076473039926778,-0.7258929223104276,-0.7232206367879919,-0.7721228753477758,-0.8220156906296853,-0.8504242619321142,-0.8615183759883831,-0.8689133674992255,-0.8834506205137446,-0.9033780469193672,-0.9245540358198919,-0.9465416109819658,-0.9615849216023618,-0.9460977070264932,-0.8767812687817801,-0.7532895949401408,-0.5381173653639771,-0.0581380820658515,0.5833031592433746,0.8409352998376965,0.905970888403943,0.9160491445708715,0.8963461430421308,0.838444652662799,0.7256723386452856,0.5728104827964245,0.42977001420842526,0.30169215448012354,0.1322553402200202,-0.11826409106622812,-0.39800762092750974,-0.6125979579901866,-0.7436410831588569,-0.8088334531138107,-0.7995847832292555,-0.4820123142138061,0.7279026326414445,0.9381001829635739,0.9578087274188027,0.9301965651120188,0.8409684865906674,0.7256169488603375,0.736603874087115,0.8538670555969037,0.9378472700622802,0.972389202819574,0.9833912408307449,0.9836596045817853,0.973611193288209,0.94080930516933,0.8610170578056676,0.7550092282442922,0.7294149549152468,0.801405638479055,0.8739620091947642,0.9097181376860469,0.9214513938466765,0.9226022910456093,0.9181827736355649,0.9089908134772869,0.8961279298865973,0.8832451428360544,0.8726557032423634,0.8631050061937092,0.8530004459290994,0.840728106572658,0.8230301587762683,0.7959563270880765,0.7546632498455591,0.6985710082673006,0.6405777092679057,0.5939094526124361,0.5563177630200957,0.48832366374206926,0.2791032188342994,-0.27410847652820597,-0.7964004943176496,-0.9311516759982508,-0.9575105050404791,-0.9664447140853774,-0.9725204841400962,-0.9738743474364531,-0.9636525083875882,-0.9306786927992208,-0.8628162815432672,-0.7675410512340264,-0.6878025750274905,-0.6581260205264287,-0.6722278903479484,-0.7041785126982651,-0.7360461339421859,-0.763127639102524,-0.7863944715504345,-0.806809758802121,-0.8174698182488894,-0.7793340496212153,-0.6981832565046961,-0.6670452904559862,-0.6812237211996711,-0.7019525068883279,-0.7018324681250677,-0.6726765103096041,-0.6185515884545473,-0.5533519829451065,-0.5058494403600678,-0.49952883429651085,-0.5468299775582244,-0.6233220186274244,-0.6538208155149776,-0.5887306629398721,-0.45639736998356006,-0.2835647457898909,-0.08546438286506143,0.09459702803548685,0.21650561098387472,0.2818299402878187,0.31129610730726726,0.3213837643183105,0.31985365750654754,0.3016467744958139,0.2566000570060486,0.17547236863062243,0.06278395635640953,-0.05839187995211593,-0.1669455269342385,-0.24441750263729917,-0.28358406418652,-0.2944293040666113,-0.2907685488780994,-0.2851859965854633,-0.30016456320520335,-0.35695668049837376,-0.4324859087078311,-0.4757080662128485,-0.45027831290898696,-0.3301723316932579,-0.11636351690348312,0.13180518721648746,0.32831952977036777,0.4404477618166834,0.48459178461717717,0.4777034346296061,0.4545100286610987,0.4527473202928379,0.4882672052482743,0.5465833773271496,0.5975518326732118,0.610957671778076,0.5662805682836095,0.43442779086871486,0.2002653212458904,-0.004760251039574203,-0.06811509592913577,-0.04657072112348069,-0.00920379287220477,0.0042640712351529175,-0.02080911040514981,-0.08039593410085832,-0.15218900827839704,-0.21238816132926877,-0.23632617689646426,-0.1929939926223133,-0.007007165910273699,0.42120447688713,0.787271331985298,0.9170649337480486,0.9598857495030608,0.9767634564032961,0.9841471746540857,0.986167935053053,0.9844265123946826,0.9807053412716271,0.9766019113644101,0.9723270637407613,0.965836474983574,0.9522463425984484,0.9228118765928908,0.8683372330377928,0.7850035923386455,0.6692788278581343,0.4900095563793648,0.13411288982813344,-0.4515024498100121,-0.8181358486714143,-0.9227194438114041,-0.9477335725123,-0.9504584837411383,-0.9481815025428048,-0.9489470451587483,-0.9539103845059554,-0.9602992695349705,-0.965006292833189,-0.9658074111787451,-0.9585770041506846,-0.9278257598458374,-0.7961605530997494,-0.20082764537051587,0.555338332324883,0.7888335994867083,0.8600895999721093,0.8910829367860855,0.910750585624325,0.9251775803473155,0.9307041685803548,0.9286428875979554,0.9207183330749846,0.8862423144172344,0.7858657475981818,0.6322555008851775,0.4912410158081992,0.40273603297685057,0.3700026729401001,0.3825043491105748,0.428323484527522,0.49108543889103895,0.5375900509371099,0.5154118165761626,0.4115904781772932,0.2690425215778876,0.1244180668144934,0.005821389860639427,-0.06949050409522936,-0.07431996729712255,0.019139240789898534,0.23097410318543454,0.5174029426194663,0.7555897927664966,0.8847035358038339,0.9403189994807908,0.9615818012532826,0.9674769738393745,0.9660840400534123,0.9597508959110126,0.9461299464467341,0.9178583025708439,0.8762850423446253,0.8554627713479964,0.8670307776295676,0.8825107603423816,0.8850339164911188,0.8722480911508881,0.8442741972102213,0.7977668501224738,0.7208050800474647,0.5770987615682486,0.2721638298137243,-0.23831213018915062,-0.6559490366309079,-0.8439031204566829,-0.9159149193325472,-0.9365227055790193,-0.9342512617248523,-0.928728859529455,-0.9309744893809424,-0.9410598212149123,-0.9542311906270922,-0.9654234966574832,-0.9718235099157756,-0.972588459823335,-0.9654492007780904,-0.9410985243641945,-0.866484362059942,-0.6734850796560718,-0.38444236488576317,-0.16962445585901026,-0.06365894450887379,-0.02804008139928236,-0.08303695421060056,-0.29465127075347086,-0.604238527600124,-0.8017755316363214,-0.8677518062488442,-0.8427713106895187,-0.5862548429881552,0.32909731794833225,0.7585742192982053,0.8499200880600898,0.8705919901280081,0.8653372776103888,0.8446321700129901,0.819591074176101,0.8148489384379937,0.8465198508053592,0.8858654478076761,0.9062487448350514,0.9052427331623748,0.882502592761512,0.8281433287619189,0.7384729907183307,0.6596013239677296,0.6598025783541118,0.7252853301842733,0.7986213085230051,0.854026573457394,0.8873777348575769,0.9046822961250115,0.9142803140925928,0.9207993063035509,0.9264745764828529,0.9306984316715624,0.9291053598705489,0.9120445680508905,0.8576273253849581,0.7134595019679737,0.399166510778746,0.02459349725618042,-0.12998045726553084,-0.04275093502163439,0.16147618143407136,0.33173995303163184,0.40194677766831083,0.38668669983006854,0.3301143599650574,0.30014148639040805,0.325900621764803,0.3712916374131233,0.3762276503540924,0.2683733002924425,-0.03704598962752219,-0.47890522791093987,-0.7502515385447626,-0.8481447713739557,-0.8709513004274069,-0.8575450721501383,-0.8236972293903144,-0.78775505567219,-0.7700710297514292,-0.7712220539200473,-0.7689890911204594,-0.7516163553967152,-0.7293826667496326,-0.7294568297913702,-0.758809489797996,-0.7957266261889472,-0.8237235854270246,-0.8427957900807699,-0.8563100010802644,-0.8651126597735803,-0.8680174530928756,-0.8621278440500001,-0.8403114160774602,-0.783947058589341,-0.6643646407761657,-0.5162728886553972,-0.5119639969123738,-0.6628022183688389,-0.7948300317953221,-0.8577696086833209,-0.8771864145183238,-0.8654887981725026,-0.8072987344160383,-0.6264247677608195,-0.18449106577047145,0.2897158613712381,0.5177501231394133,0.61721017536926,0.6915818822635497,0.7813448374677937,0.867048491012351,0.9207120380028821,0.9461361795704222,0.9571871216421436,0.9596224370788602,0.956291098407712,0.9513075898316258,0.950193554685836,0.9537349753234267,0.957887019892906,0.9586761766244508,0.954870939953718,0.9467932031071132,0.9354611389390503,0.9213821821464089,0.9027375222831538,0.8781626025528684,0.8465945894173807,0.8052393587110951,0.7487339344540379,0.6645312280397198,0.5364060056414888,0.3492676009330047,0.10279548620256293,-0.1546584856595215,-0.3684687663064817,-0.5554895128151318,-0.7372945055869154,-0.8801888390971649,-0.9435227898276672,-0.9403056698636786,-0.9012557431185896,-0.851332510758466,-0.8103038326902923,-0.795739315909472,-0.8192988548927859,-0.870096919151889,-0.9183867851772856,-0.9492910059735592,-0.9644079163972942,-0.9681705089508555,-0.9634747599465495,-0.9517438166486946,-0.9352457085665286,-0.9184658324513664,-0.9067418028627556,-0.9029114806861482,-0.903677145041294,-0.8983395616665578,-0.8656108886111628,-0.7245838582426937,-0.16397251798172888,0.5109137376576778,0.7299290599810577,0.8022038558459228,0.8469261484193078,0.899321453530923,0.9491728907996966,0.957097435425129,0.9343481153499383,0.9086440170367674,0.8832482941651456,0.8532268922335623,0.8138412929999894,0.7640976628719994,0.7171791829675676,0.70097454153148,0.724308723240758,0.7697041769875135,0.8131050531280021,0.8430907576986005,0.8582938117999586,0.8621799783735533,0.8604842636949388,0.8578089114295216,0.8579418311985167,0.8644169373161317,0.8741539078262468,0.8819089548754366,0.8841412157694849,0.8791831986976074,0.8644310557230784,0.840074859418324,0.8103949604294882,0.7816211388388203,0.7580718781006456,0.7431193702726878,0.7412599696526112,0.7526073686049156,0.7649056601253995,0.7502761356533364,0.6195428922122462,0.19572842644377786,-0.2336459545985047,-0.4217816803958544,-0.4829020932064123,-0.4851686008540881,-0.46202990784809966,-0.4398565878600777,-0.42947318274040874,-0.42402526789448874,-0.40605747278874454,-0.36248970494907023,-0.29251767117753946,-0.20867889438648166,-0.13120903734966527,-0.07833702411294419,-0.05980803303632758,-0.07790292365657227,-0.11893269512212,-0.16169168759175925,-0.19404870302266533,-0.21068124591166246,-0.23225837644393788,-0.30339568750704365,-0.4530737043858685,-0.5817433385435312,-0.5587323098798914,-0.418057901146871,-0.22908212792823937,-0.03319963596248474,0.13187013361456218,0.24727839737470178,0.31486997663217814,0.3451295644664028,0.3506345055358378,0.34194409508862444,0.32987837584427604,0.3247417141308932,0.3194310515437788,0.2902793173535488,0.20231556332370684,0.028638100934805823,-0.21400435876045792,-0.4566812740776647,-0.6499500183082519,-0.7838195490999749,-0.8655747184545213,-0.9092159802475824,-0.9286749433401443,-0.9303711432294807,-0.9100462697781507,-0.8427070790419946,-0.6371964178142475,-0.14432387081947362,0.3555239470875062,0.5659852401315786,0.5854085621966115,0.4502645062997935,0.1107723051021839,-0.31112180962293867,-0.5119210381401726,-0.4780499932942353,-0.2509761748875143,0.052379104197790245,0.22231640427821703,0.13780383247944852,-0.3584955707676698,-0.8213950324262238,-0.9473247852266253,-0.9780175504332431,-0.9872155636494333,-0.9897769349336676,-0.9881844091568345,-0.9781164962501846,-0.9209087058276725,-0.3854188887326686,0.5866784836450534,0.7763068994916058,0.8124840522177684,0.8190503802344817,0.758278272644323,0.6692738377403685,0.7519125427800759,0.8397866056089178,0.8885669650366792,0.906031488973364,0.8918555532936778,0.8144380500098441,0.620474942304277,0.45840943650378724,0.4988644488667326,0.6249296804988902,0.7260182963116384,0.7890118338019151,0.821741722673835,0.7879783358342295,0.6067608854885342,0.41301271224643554,0.4250756106812525,0.5731920633338435,0.7080548762437303,0.7866814672244863,0.8287723309267362,0.8528787348803721,0.8681438459478606,0.877873035519134,0.8831241981450701,0.8842462875792766,0.879538825950992,0.8654334120652994,0.8308036675308668,0.7444953574750169,0.5321000536137444,0.13944724952875664,-0.23719844106137736,-0.45009827472323793,-0.6007275544498895,-0.7608721926088273,-0.8765118648707297,-0.9277110785973126,-0.9471565098240794,-0.9575037167520547,-0.9659748820350226,-0.9732234095348072,-0.9771134530062441,-0.9749107798799077,-0.9638225553921174,-0.935895740518754,-0.8565624586613741,-0.5587380481401854,0.2530320355097906,0.7269509707685068,0.8346939493342219,0.8066142466123618,0.4921568704195336,-0.5312244953439816,-0.8828876280704928,-0.9495981456387451,-0.9706168404248195,-0.9788980574563716,-0.981196804209672,-0.9773427790590493,-0.9605195831475659,-0.8998897630379034,-0.624775931384978,0.24279651243441194,0.7348900968711962,0.8561071348041911,0.8868673067043297,0.8845732553436192,0.8635446047418193,0.837766151645157,0.8314989019708191,0.8577821192611768,0.8987019954682107,0.9315895766539083,0.9523549651572397,0.9645904411681022,0.9722051766899178,0.9760157534778002,0.9737864661757655,0.9474066669355348,0.7211011560726112,-0.3279890663923415,-0.7175318346418221,-0.7871315179637987,-0.7886743190447599,-0.7357849836328921,-0.5512188074607833,-0.014775563300855499,0.5624759525249929,0.7713041784047315,0.8373357296307888,0.8580755550813358,0.8484535300607999,0.7970954224983742,0.7084774063528824,0.6808971956507831,0.7707039679689656,0.8660446210762054,0.9121562435825711,0.9267525330563193,0.9250538478756911,0.9098598765546011,0.8708409929842801,0.7601568677473498,0.3274368603080158,-0.6853662514150058,-0.9508261293302824,-0.979339313604828,-0.9823433487719327,-0.9835503467322408,-0.9851659939027508,-0.9864439806606206,-0.9868614372244889,-0.9867050284547108,-0.98607872471999,-0.9844295205238907,-0.9801205705969295,-0.970836180807826,-0.9576225395823001,-0.9436212437466102,-0.9316568988822012,-0.9244705756890162,-0.9202829254732331,-0.9093976784327703,-0.8642572597219309,-0.6504615002347381,0.22973261363005135,0.7575017969050255,0.8518336428995413,0.863287882381525,0.8496852784826712,0.826311528496327,0.8048849083000994,0.800104357634263,0.8239287375178518,0.871824063450623,0.9201696417051767,0.9456029419075358,0.9398303997852278,0.9088686622695923,0.8657945816291963,0.8227080729534484,0.7823553668630142,0.7280362066149424,0.6053899559105947,0.24378042984560414,-0.35558922241368074,-0.6348107231663128,-0.6807975538918563,-0.5877009414204605,-0.2961861722259342,0.08541078932793177,0.21156288325815525,0.15315006641394138,0.08884591553497424,0.17686613820810745,0.5063029405662366,0.8127857904083408,0.9195655979464435,0.9473760549341171,0.9503225004011411,0.9385735386391959,0.9031186790213209,0.8055162138622985,0.5182743146165809,-0.04202273155466733,-0.34298217311076973,-0.18836146732603692,0.3673415563503939,0.7315227791734029,0.8422914139548434,0.868964951443177,0.8570695354727254,0.8069354663479279,0.6897169599945536,0.44477987849297695,0.07487218740879406,-0.2267773110434943,-0.36743710274706104,-0.3870727584517957,-0.30780260635563256,-0.15960068167707653,-0.028912287606325242,0.00024558120471547946,-0.1994044492966497,-0.6263665757846564,-0.8803524195356568,-0.9499873202630089,-0.9678542189571995,-0.9710420357301974,-0.9651597388759007,-0.9429644502185095,-0.8612125100776448,-0.2957056741533469,0.7928474603504153,0.9460908845060898,0.968882321231902,0.9632674544654919,0.9010948133895956,-0.03616087493975508,-0.9086236515894313,-0.968340767659247,-0.9802502798379599,-0.9826587250542808,-0.9791204870367235,-0.9623005183827094,-0.8809701092602612,-0.30200457032348493,0.6143373177861045,0.8163266853850853,0.8684555732573624,0.8912727824065816,0.9026172020364124,0.9023016447357578,0.8866609556284738,0.8434409010609875,0.737909149879319,0.4867373231447403,0.033707038898290076,-0.3765078983587095,-0.5615176081151543,-0.6170166830828357,-0.6954965985928034,-0.8184905083985887,-0.8987136169343766,-0.9347184625462166,-0.9501446838757944,-0.9557866662041565,-0.9546452777556234,-0.9448818635862809,-0.9202570758223789,-0.8707240242175108,-0.7990357449199196,-0.7518507101358358,-0.7766151311612918,-0.8462397208780265,-0.9053507564854812,-0.9333834460334836,-0.9264534545835128,-0.8889213462212533,-0.8275200121377433,-0.7470994318962433,-0.6686843075303187,-0.6163245747632028,-0.5450350344079141,-0.246463899512685,0.5440885405943401,0.889079374270705,0.9475161245844347,0.9610478802470922,0.9651467191030567,0.964859829077661,0.9606357989687674,0.9521130666005216,0.9383597390551865,0.9185648128076687,0.8940530128125215,0.8685086864016647,0.8469208571837196,0.8334247334782322,0.8249872699196696,0.8171812214886154,0.8053241370835196,0.788078852643124,0.7679705530636544,0.7527660217885938,0.7478414846482117,0.7553043703247758,0.7735472111266334,0.7956464565078561,0.8141617094647576,0.8276599954580821,0.8341381507970417,0.8366224840331126,0.8388328146073697,0.8449479351419812,0.8563792727629908,0.8708014085621815,0.88239321047532,0.8860895723212853,0.876338486443742,0.8450950245571194,0.7831354841722604,0.6840672876447482,0.5380949745137269,0.3063529436937245,-0.07974958786577843,-0.5108029090347793,-0.744128873915056,-0.8283649998613568,-0.8546940433644868,-0.8578256620617489,-0.8463136115700951,-0.8211683135764497,-0.7863256771615242,-0.7546824321358643,-0.7354611902273839,-0.726162664879278,-0.708931540942593,-0.6544157545286998,-0.5402986935477256,-0.38724532032653936,-0.25247248119499754,-0.15757643215400632,-0.1024814320264409,-0.10006463544871187,-0.14684564917015555,-0.1981662982358902,-0.20969777321405927,-0.18118070965668553,-0.13912741247737645,-0.10819921691869791,-0.08967950772008919,-0.023869719693414216,0.16593832393052477,0.41258634688291673,0.5998813482172746,0.7102487329445883,0.7682910071073659,0.7873721095981057,0.7422079024116773,0.4729032705257395,-0.04098200097283902,-0.15459330643320726,0.045121424662933174,0.26205965071887954,0.31521679998008895,0.16102575541613362,-0.1779490315785838,-0.47855579200659343,-0.6162073848711598,-0.6557924583249366,-0.6687999957020241,-0.7044071969544196,-0.7914135477614498,-0.8967520923214252,-0.9589888223362556,-0.9821441881319612,-0.9886131150044715,-0.9873253694398586,-0.9777925532172452,-0.9492901313534874,-0.8664215513042718,-0.6903069103679059,-0.5325967595437469,-0.512040719864945,-0.6024190269521059,-0.7294818434154938,-0.825694530859943,-0.8724343913507728,-0.8825559482541053,-0.8640691156612339,-0.8126255730374843,-0.7116566734151331,-0.529920101446892,-0.22927493379835828,0.16129709618910826,0.47853485763797876,0.6469289011263168,0.7229220013291978,0.7645208336037348,0.811316232139838,0.8699633358581491,0.9193414839496838,0.9394882687965832,0.9346097758873486,0.9196055106821266,0.9040951279176187,0.8928521758498507,0.8828247759602861,0.8627493434074833,0.818337558179277,0.7545349480414146,0.7065168952267002,0.7073665737933238,0.7631210340051787,0.8402561488174993,0.8897382373546078,0.8902475584792741,0.7765398305550429,-0.14674823246234822,-0.8790227054216191,-0.9599607417009268,-0.9759457106454758,-0.9775229877091854,-0.967882559063929,-0.9324428388883819,-0.8167631583164154,-0.4830125743242214,0.042376856099562925,0.4092257853386016,0.5957963437664946,0.7016434312798999,0.77436877062911,0.8275581509258859,0.8641351046097989,0.8875918686312274,0.9020573911552633,0.9077989146556557,0.9065660554501008,0.9006486844533457,0.8924714898208334,0.8851951440657873,0.8824047840592111,0.8839749308218421,0.8870769167205536,0.8898100787200984,0.8893873841093693,0.8773233844541848,0.8351783120112546,0.7249391337903688,0.4862652100612046,0.14315975779504359,-0.14803740509366634,-0.2995967435287862,-0.3665784791854372,-0.43598074405507203,-0.5173720199702934,-0.5793126083315786,-0.602297068427789,-0.5713297541487921,-0.46956355256751736,-0.291484296803241,-0.06235934252864259,0.17936003508406792,0.3840220697661009,0.5097750025564,0.5464065741037097,0.45927017441930457,0.16382453353043006,-0.2304083843596197,-0.4601057075217599,-0.5435417742612607,-0.5567570353129062,-0.5339262580646504,-0.5008160226153584,-0.5046131952209524,-0.5999693946815444,-0.7468938431226053,-0.851499208696931,-0.9021118138541105,-0.921538675204871,-0.9151813634790001,-0.8383281547852383,-0.38480336061605375,0.4816490240763205,0.7621168544981292,0.8281782987514871,0.8402215632662972,0.8300454526423866,0.8059177896533253,0.7713244265092732,0.7362873961445207,0.7144372341428932,0.7011899472117248,0.6776412630809323,0.6204702456838479,0.49537082673617033,0.2399135449451527,-0.15369450962685538,-0.49117426713517987,-0.6730456565850017,-0.751955324028201,-0.7712561442805347,-0.7524495613175606,-0.7237785467146685,-0.7224879269683393,-0.7622556050382308,-0.8146599705033661,-0.854098247388443,-0.8749865137359523,-0.8828971200951671,-0.8830908780302794,-0.8777084072134191,-0.8639696092889333,-0.8337133604864156,-0.7600733156840245,-0.5205915953352253,0.2773849091415724,0.8402961202911187,0.9468357839448601,0.969554223887786,0.9721070751907444,0.9636889865063024,0.9436097035840331,0.9038832176190492,0.8246947484720358,0.6627777668807108,0.3957563122008055,0.19789215728732787,0.2204537349543851,0.33212993489181875,0.4015255891048034,0.4392405586236438,0.5135764322646764,0.6478714113994009,0.7730436841799228,0.8358984733796689,0.8363743511005466,0.7374360533115487,0.012029888745349236,-0.8765413959919054,-0.9667132658448007,-0.9808589575003661,-0.9841197367808652,-0.9837052044680371,-0.9796434550351235,-0.9709821530262797,-0.9573830939455513,-0.9393891728114226,-0.9146249243899431,-0.8770136245122444,-0.8352764317381123,-0.8479896959511019,-0.8807541748216351,-0.8902972247367446,-0.8970012035763674,-0.8859258073123257,-0.8190950206849754,-0.6106116651187972,-0.24130357063956717,0.10487309719174462,0.3141384432157895,0.3573302899338014,0.20905083491819934,0.004194358027075705,-0.10547756181276653,-0.08270966775652518,0.08085443738455861,0.3596089298492448,0.629588116997199,0.7917946927116144,0.8689189603241092,0.90478961714625,0.9216094705983867,0.9294158891474377,0.9322021424191237,0.9319878749756207,0.9299381243593696,0.9257770975637802,0.9192230319893927,0.9108815951042942,0.9011206828055031,0.8895081179176488,0.8760923475789598,0.8615636493711151,0.8492589927234883,0.8447665868074169,0.854635134012498,0.876530003636865,0.8711972143567878,0.721272141008881,0.22002292388311345,-0.43388355166191844,-0.7611658739928885,-0.8837983410344434,-0.9320938076251425,-0.9463486894346909,-0.9232112618808904,-0.7242530782840603,0.4501020997380936,0.8588883186258692,0.8999907581545253,0.8654868975547512,0.7081555118727069,0.24249935454325708,-0.1786940440584583,-0.15556041530724696,0.03497367193057572,0.06849866523898569,-0.11096429063882329,-0.37176781148571697,-0.5731111755494033,-0.6833923735965939,-0.7337519777970994,-0.7451395572848755,-0.7256400872190176,-0.6829073236357648,-0.64027791033275,-0.6278930455112377,-0.6565469013042534,-0.7078526674251169,-0.7486639193177226,-0.7575291131810878,-0.7208266134559977,-0.5946097100067199,-0.24061451158625585,0.2740392541601787,0.550476989032109,0.6630905961556587,0.7305689375271499,0.7903347323604184,0.8447019762782333,0.8864415118006972,0.9135377644609305,0.9262815588335829,0.9204730402256834,0.8739149888925053,0.7399332771838438,0.5444276019346547,0.3791646748648757,0.21374541158116836,-0.013928324667375229,-0.28425976899850847,-0.5202325826595572,-0.676725787108174,-0.7635235052181562,-0.8069877695612426,-0.818105631359968,-0.7931074008594284,-0.7145186429586773,-0.5680707367095928,-0.36424384814775407,-0.12024516439068968,0.15650661578068584,0.3986098735317847,0.5395887596007743,0.5855723873582809,0.5514687570333174,0.42859918123034063,0.19808871385678195,-0.11875478254376226,-0.4267586218954819,-0.6457430734684246,-0.7732142648804119,-0.8379416603001253,-0.8651534482911224,-0.8691736824201558,-0.8561980930421735,-0.8295555771707511,-0.7674990226982769,-0.6021649901605854,-0.27722890990238375,0.028592889900448372,0.14227059430788008,0.03714695206982154,-0.3312275133721611,-0.732281682155111,-0.9023447299494535,-0.9515867810834037,-0.9645169260963092,-0.9574162644916827,-0.8291481749489911,0.4175461411456021,0.7952120597738189,0.8322245308708047,0.8200823445127415,0.7973409526690501,0.789442219378169,0.8124467605445213,0.8564380506609955,0.9028700047662961,0.9394150216441483,0.9577124754250054,0.9570085997727704,0.9440926399276133,0.9171920967518424,0.8261202876012115,0.16632482563487608,-0.6514863560238269,-0.737745151760472,-0.6798122229284836,-0.6037588074603456,-0.688180049102791,-0.856193255680907,-0.9384939681198181,-0.9674370079334008,-0.9776978494180194,-0.9801119207894805,-0.9764247815937098,-0.9633037721563964,-0.9320441986766096,-0.8760895142247825,-0.8071901373229501,-0.7166769510900705,-0.44726699510945545,0.28228841372724556,0.744939490840451,0.8673593661838778,0.9048989622429746,0.9169475321716992,0.9190967014622993,0.9160392508174597,0.9095537860521382,0.8976480323326361,0.8804924678718863,0.8680921218460188,0.8715282064138093,0.8840966375219921,0.8944593522730961,0.9006940170327479,0.9031576274808369,0.8990499701398474,0.8834411961856151,0.8469818587310003,0.759247526454409,0.5293413177660985,0.027143674716450752,-0.45409031168110675,-0.6693386195719494,-0.7571326378306991,-0.8041700291463422,-0.8373028225338393,-0.8567870338060554,-0.8572026691127523,-0.8185793195710009,-0.6863815977599279,-0.3160593267419463,0.26521963376494434,0.6341787376498654,0.7849922634117019,0.8488973759417305,0.8872353123476375,0.9203538734312112,0.9518680654401162,0.96874276086127,0.9573031297143185,0.9266814198841492,0.890678034251177,0.8417008442074788,0.7538200592791796,0.6054222299035552,0.4248466754070258,0.2797352977794174,0.1867886868666085,0.10794531707564095,-0.012354053510669918,-0.20641377647272233,-0.43105246547524584,-0.5709389008480312,-0.568962145803839,-0.46455683534725745,-0.28857586654245637,-0.07695705915630154,0.11205277061559143,0.23575404894161522,0.2908578673925256,0.29129707464398513,0.2475995615377106,0.168570149252516,0.06619026584956267,-0.038428285303192006,-0.11577526042422359,-0.1507333121827129,-0.13967553783289696,-0.06795260917904344,0.12029112034031557,0.3584069460538743,0.4876277129437492,0.5145237835607732,0.4844891998615879,0.41589300492686915,0.3192768862132769,0.19841137727928634,0.05226698432113718,-0.12239832263989367,-0.3257439820034717,-0.5297154443468576,-0.697461873102022,-0.8082026379348086,-0.8680887404096134,-0.89686793860674,-0.911392050131651,-0.9172767209006661,-0.9111549263820478,-0.8889249174380474,-0.8461173292497555,-0.7796750878782817,-0.6994904317205062,-0.6317999086360132,-0.5771436238849806,-0.4482475074983556,-0.1568041071308533,0.18185664311284008,0.4105178958258232,0.5180658788135436,0.5548321136771618,0.5776354281746997,0.6181323319521642,0.6804128769835182,0.7475151833525826,0.7992287669301186,0.8303938724189319,0.8414089340557138,0.8105687062738831,0.5602183003926272,-0.5443512687180604,-0.9045193614416239,-0.9476500237837228,-0.9467338928576713,-0.9287141796104352,-0.896602828915596,-0.8366039846220081,-0.6581193612583722,0.0410549377554585,0.624822522621069,0.7485501135668615,0.7649202286985803,0.7446002089246717,0.6924446591312593,0.6099498081612212,0.5063600741425675,0.41891247774333673,0.379451676586529,0.3674228749990701,0.33483115055044205,0.23923159625150164,0.06633433314910471,-0.17778446517636076,-0.45934047648636284,-0.6941393911613202,-0.8256023359391664,-0.8803059810366424,-0.8940194767546863,-0.8731145086907145,-0.7825300921781351,-0.5889586417721421,-0.3985652380825252,-0.31914974143474706,-0.3094993392216354,-0.2967108981032824,-0.2277943795639183,-0.087430034876401,0.0675797544855643,0.16884278903085637,0.2596105253342319,0.39731392107765434,0.529738189586367,0.572074973500953,0.46569659836267047,0.1710724414812931,-0.11429854787335472,-0.1111175554336845,0.21779360711450324,0.5953407853530955,0.7637995894116444,0.8042077962320029,0.7899608470201184,0.7661909175324652,0.7688228433116634,0.7895982242848774,0.8040950250912371,0.7926273761581293,0.7187723147489383,0.49466049432842024,0.09081321707391744,-0.18339182888071837,-0.22773316141550143,-0.12107216088478552,0.02421130168360704,0.08809913977949857,0.06037117838768553,0.06533127307968206,0.17239132764673393,0.32975909540773274,0.4688586452138572,0.5537162266347456,0.5635185429732713,0.45822506458612283,0.1527987695582021,-0.3098983039116103,-0.6206931619073524,-0.7452981927526107,-0.7758066658099165,-0.7515848053932833,-0.6922395340210789,-0.6377088830376495,-0.6395300947808165,-0.6935600185407917,-0.7524361953106152,-0.7957242800382838,-0.8263302078764478,-0.8467968275858206,-0.8540144875964916,-0.8383673110636967,-0.770593958226786,-0.5521127455421947,-0.02059259978620427,0.4612942489450374,0.5931423057251294,0.4104874019683904,-0.05577818032665571,-0.2459351622332775,-0.1138134670223406,0.1752760244368333,0.4314328390465352,0.5540624316889201,0.5051473799728685,0.03609722132974744,-0.6572895030495833,-0.7979408488579132,-0.7428507035562407,-0.5819243934345667,-0.34035235354200355,-0.06287163330316431,0.20790437151933513,0.4663291171719271,0.69141553355042,0.8419502627491123,0.9188845681205019,0.9528664594535138,0.9657293316791686,0.966943009581235,0.9576171885447995,0.9305515093641729,0.859873314335909,0.6885163407220015,0.41342023606822514,0.22573903415461874,0.2253813049569735,0.35388450286562895,0.5281465565386937,0.6789117826429653,0.7754635091085431,0.8299236885497686,0.866415748601159,0.9016963223355658,0.9351266926819801,0.9581096608149139,0.9699478406662315,0.9739644210250767,0.9684045058708898,0.9335747009047356,0.7937332739679992,0.5366158129545774,0.6051752171254388,0.8430694126954773,0.9283054898331081,0.9518391429331082,0.9583677462801554,0.9541578472440142,0.9302783917286404,0.8103546823158322,-0.10086344504467223,-0.8248853233903927,-0.9238216380927533,-0.9526009414864752,-0.968523657364044,-0.9789451566320893,-0.9851327629495845,-0.987863357829578,-0.9878714109459868,-0.9855278810995869,-0.980605933004934,-0.9718745748548779,-0.9564720146711181,-0.9371426827852023,-0.9266185120480507,-0.9292665112824007,-0.9380246349868532,-0.946831572553797,-0.9528745036116791,-0.9536506925445064,-0.9445316001755982,-0.8974555363478247,-0.093807529783037,0.9729026670893751,0.9879391581507186,0.9795752396439109,0.967811538281602,0.9586615156100144,0.9540021665504509,0.9517644797647896,0.9482958262928967,0.9394627067154018,0.91636779116817,0.8367871829097903,0.30711247053039864,-0.805194146059587,-0.9508436415083098,-0.9684416112787002,-0.9613199511873799,-0.9259180439532584,-0.8191906806888309,-0.6231820750191114,-0.523529287585017,-0.576107531436129,-0.6354529292671264,-0.6113762935325625,-0.43627834814384414,-0.025116945996329285,0.47829367794297006,0.7818819868145788,0.8992345860574793,0.9395294665991091,0.9609121476068928,0.9794029779169149,0.9892889496632431,0.9846049215663678,0.9697744939183275,0.9559343790546958,0.9509465578890776,0.9535486144666685,0.9582283459775529,0.9613283276509883,0.9588947129671346,0.9313794584703982,0.5073804880402658,-0.7541970187620703,-0.9015918717681723,-0.9323644081814807,-0.9391882906022395,-0.9319406669660292,-0.9124668260630693,-0.8801217146309787,-0.8295552734619105,-0.7510408043560308,-0.6316590508395907,-0.4497482001848995,-0.2044772501580398,0.049028306674577735,0.2652701898985321,0.4560206802269413,0.6365365736612906,0.7826392043538057,0.8585900233715622,0.8888122657818062,0.9045548631719071,0.9170179989416772,0.9280343750972057,0.9364647014733197,0.9398738956180359,0.9362712698302961,0.9251790149325204,0.9061967483033447,0.8771796852023857,0.830093153391398,0.7472338470454634,0.6018136826033035,0.3753322316656969,0.10287317403684813,-0.14303852635533004,-0.3301832794405397,-0.47527544214605555,-0.5957270240703967,-0.6973511032630624,-0.7831871075028863,-0.8546127076059603,-0.9115535413544551,-0.9529949744669073,-0.9792637481496681,-0.993389592691468,-0.9977742184675201,-0.9946549977800285,-0.9884295432310076,-0.9836607083679184,-0.9807650947229818,-0.9780100174722078,-0.9730150756355728,-0.9624127762097462,-0.9391707104393044,-0.8887328006364508,-0.7873088181958376,-0.6087666238527029,-0.33370480480372117,-0.0005770114017875571,0.2734586919329942,0.430106584082577,0.48840435562185386,0.476251585628522,0.4150250651449021,0.3346387509992405,0.27965301742679993,0.28976969728779667,0.37745009879330227,0.5087007486470878,0.6222068165413293,0.6762738147513377,0.6610413413019678,0.5709432919226902,0.3017754210062331,-0.3561683261796504,-0.746217243640082,-0.7814295523897061,-0.6978213412380501,-0.42105723709910786,0.11699995451232154,0.45454753388852503,0.559753932512864,0.5760512818618775,0.5596131490428126,0.5397971907078497,0.5369379756145787,0.5560041872792407,0.5865487042322914,0.6156027358592577,0.6455173191343404,0.6795415916836598,0.7179980005133384,0.750674047105899,0.7678682634885572,0.761968627261175,0.7305196415000282,0.6727416384515821,0.5926628366193641,0.5039418096724055,0.4209166855185036,0.3488507057620637,0.29798917375746187,0.2807306316768104,0.2926174130835411,0.320432522233103,0.34562354708505383,0.3492051234918843,0.31385697039579386,0.2411795854027549,0.1611656488536949,0.10432644251952268,0.07195604330622764,0.036104235756353506,-0.0499905201044564,-0.199247157117584,-0.3603229661808915,-0.4724254420126728,-0.523263301556733,-0.5554055856727084,-0.6038675388305079,-0.6665642326089113,-0.7405293934564682,-0.8169602740496766,-0.8740545662074146,-0.8873450856548059,-0.8496005343917037,-0.7556402515880773,-0.5812522006595696,-0.27404025515717173,0.10416791071257031,0.3773554483319024,0.5377268375270182,0.6171648812407194,0.6279918327638698,0.5778984397550005,0.47882752416747765,0.3589924809750484,0.2616118615949988,0.21925368924042835,0.22934793543366583,0.26863547848502034,0.314962936294579,0.3551274197654311,0.3790597117290002,0.3784927162583336,0.3490195459918298,0.308173838160708,0.2738366540239349,0.25861133229216393,0.2612074576888835,0.25923208653637403,0.2360294601553392,0.19213960368135197,0.13946022520532173,0.1005102745952452,0.09590028049089362,0.1213182118554321,0.1506269618680914,0.16471224034994586,0.15602750716946623,0.141592812061647,0.16331845426184288,0.2798433264990322,0.4842632572925224,0.6929429044455131,0.8129983916227167,0.8377457847222336,0.807299476409592,0.7484978092208664,0.6736332808683492,0.5929959425993587,0.5269875816955808,0.5109631733173439,0.5618117312972242,0.646171973977956,0.7135714810609305,0.750164638846822,0.7582123404903381,0.7318081405961151,0.6380933105514369,0.4493785827206241,0.2668913669432184,0.20666221298572585,0.15932710401809647,-0.06311137248045495,-0.4992230932754794,-0.8099776233099407,-0.9189440703172708,-0.9530659036443491,-0.9638574064812723,-0.9661118720421314,-0.9672167292332613,-0.970725063695195,-0.9741107403364392,-0.9741104723246773,-0.9716582240554458,-0.9684053847421187,-0.9641310953315424,-0.955912826380551,-0.9352890643784206,-0.869196318173779,-0.5751944675759069,0.3075321194935308,0.7593844115544063,0.875559041687872,0.9184512777419583,0.9392453685943579,0.9482642438252528,0.9451329113030437,0.9235642114491268,0.8657955003204308,0.7616175009317167,0.6825129864771331,0.7307999896449515,0.8469610780706085,0.921065682983012,0.9499589012683177,0.9563569520318955,0.9409118902074436,0.7764777077570177,-0.7452417858563419,-0.9435418551993774,-0.9617222519296724,-0.9611344240558466,-0.9521312025402856,-0.9356133493731614,-0.9215539421552458,-0.9290433332075518,-0.9458043662924346,-0.9580873717135171,-0.9648210576368534,-0.9638789826865596,-0.9178336116673234,0.041400846312835075,0.8227374022484444,0.8975869979458653,0.9109838006041753,0.9054330434042909,0.8874667985241734,0.8636720222687588,0.8475034474581994,0.8477464739074635,0.8606357944571497,0.8750209433696625,0.8842418891296053,0.8876796891991665,0.8887638966704057,0.8907550387907337,0.8960620944743622,0.905010598777673,0.9151000019169018,0.9219611868598476,0.921141883476993,0.9057647750718538,0.8618617348202758,0.7548283697424963,0.5392039384898336,0.23885375752651467,-0.07117426325469721,-0.31597289516056226,-0.45760923717194973,-0.5023363203977045,-0.4712044938240769,-0.3567805791728514,-0.16189592028198344,0.04365210480140434,0.20499861714621923,0.3339822183892076,0.4614220751844208,0.5892388482103023,0.6839644268272662,0.7322967396341848,0.7550184790090563,0.7706952890601756,0.7817408350181616,0.7786772208759385,0.739387784899467,0.6337317410201836,0.472754800544234,0.3049461838270335,0.1446900771283986,-0.002652490760978641,-0.11865730556958898,-0.16498700131521066,-0.08874534714558167,0.15014455071376454,0.44354026349789266,0.5521935161357673,0.34753074624560076,-0.3087127301666866,-0.7573629424555253,-0.8849968672300241,-0.9239527421605312,-0.9387066269009378,-0.9457932703208423,-0.9474496675761815,-0.9382522417860903,-0.9134306817766168,-0.8665003194666712,-0.7576939104493414,-0.4007863259666379,0.3362218880204727,0.6977890222643057,0.7955771604910078,0.8207454296150005,0.8217870724912009,0.8113208036538088,0.7922246767863009,0.759263420051057,0.694376855793846,0.5504597708020256,0.2242819116865686,-0.3029905127771002,-0.7043738381350854,-0.8755607595942232,-0.9411839106239295,-0.9677161371086336,-0.9784702118614651,-0.9824109907098472,-0.9833650336954958,-0.982624843828985,-0.9800545726054112,-0.9738930684100499,-0.9574534927828726,-0.8958100191192153,-0.45594703239306955,0.7154779554584628,0.9253255944262453,0.9623360400322974,0.9708468511083054,0.9696876091012833,0.9644455222721855,0.9578508724139115,0.9510871557641627,0.942301049533257,0.9289424254503202,0.9080876927980707,0.8769059462203633,0.8304891953482387,0.7614466895589694,0.6622535662949698,0.5138450314881959,0.2923999188302053,0.009759415792185934,-0.2668223787952977,-0.47947625874082417,-0.6204376169219045,-0.6952120426460222,-0.7130426717246036,-0.6988063009959902,-0.6982997165911939,-0.7533730573186631,-0.8345059254265698,-0.8879201170974751,-0.9031209657069331,-0.8711218579893418,-0.6914752708598729,0.0909995265063966,0.7405142374657302,0.8823446477216045,0.9150791588751456,0.9095821900461799,0.867341154993654,0.8032739255482855,0.7712023619801494,0.785802586791863,0.8090279299620058,0.8089398383700451,0.768868092661099,0.6711828634592286,0.5390145897167458,0.44779455533722,0.444530079364728,0.5138723138849819,0.5960404546354356,0.653760405334382,0.6801596598055256,0.6835247772764426,0.6707480285031278,0.6464809653361446,0.6129794222275584,0.5657506675566912,0.4965090172540411,0.4041920543239995,0.2961806246920416,0.18291013879117138,0.0770107360649661,-0.025308655024839047,-0.1467427473058814,-0.29936300098659635,-0.4650677494983075,-0.5960404917709274,-0.6650774823260517,-0.6850094284578425,-0.6682270507962798,-0.611183543150918,-0.47482806345374834,-0.19732171348341584,0.18968791934533455,0.4790782488934195,0.6117650721249295,0.6693083053771498,0.6828333237636595,0.6526330118654358,0.6028340420310864,0.5607260694578586,0.5328441527303851,0.5129687143346711,0.4949753500035642,0.4775919029991368,0.45625045979505985,0.4394103705535661,0.4323993941339356,0.438324001512416,0.4248725797479286,0.3241418489846,0.0669914648682188,-0.25178374715258517,-0.4609006076036895,-0.576441132956739,-0.6499778225688219,-0.7029636760486887,-0.7455162360066326,-0.7736679003889977,-0.7831895531928731,-0.7830523689114112,-0.7827616613957963,-0.7814447612490864,-0.7698209951360043,-0.7292033294149468,-0.6329418623345298,-0.4461568049111133,-0.16801974452367005,0.09028123128822395,0.23075078960425033,0.2817122980176663,0.31728301676855997,0.41087530695367613,0.573914188965416,0.7382663874173059,0.8440077238604994,0.8956365523096622,0.9155065807095911,0.9144166651793036,0.8841039267753427,0.7450252942892687,-0.04373292643035891,-0.7636934557516362,-0.825636054911975,-0.7752396879618951,-0.697609507085315,-0.6269611593361356,-0.5985575347151197,-0.626993746000631,-0.6904702009778041,-0.7478561908312263,-0.7795540740606455,-0.7820704470213529,-0.7473287399785484,-0.6590738727137823,-0.5225908597997767,-0.4188316253842787,-0.4259125387003144,-0.5352777525875817,-0.6707326502931946,-0.7592676085943952,-0.7800168607298444,-0.7083844131998783,-0.38219103190244874,0.34044126359927307,0.7298117137549408,0.8447060696461698,0.8862538749328179,0.9057614862212223,0.9177829177124863,0.9250812070398919,0.9283779905344358,0.9280855701747639,0.9210470686086065,0.8994352481257343,0.849844302876409,0.745590761685403,0.58154898595983,0.4635211846877145,0.46302367600134287,0.5220033021762146,0.5782032946626048,0.6105705049765874,0.6234151085254026,0.6279375683537028,0.6405203002402868,0.6774737965528337,0.7372039144871574,0.7967697611905953,0.8344889221037398,0.8449860189016513,0.82932371470554,0.7813386143764258,0.6811740464445718,0.5060657811971999,0.231707435881233,-0.1565581620803908,-0.5515588336963139,-0.7776668275374042,-0.8633789840423427,-0.8871952266926801,-0.883159731921021,-0.8633897761345694,-0.8362020585198142,-0.8157536525553942,-0.8173418607919188,-0.8388162969795556,-0.8665783851086676,-0.889898675079189,-0.898911740020977,-0.8622280412440518,-0.4258224587782774,0.8362925024003355,0.9642554589894983,0.7690398844076609,0.08146379790648958,-0.3652419701824813,-0.5197777078220674,-0.5640810350008555,-0.5528037404148182,-0.48960940141216486,-0.3133109955752855,0.09912669295412851,0.508667874354235,0.6920828588392587,0.7713648368338466,0.8116849323887172,0.8293020202242094,0.8276690811600536,0.8092276865613395,0.7748162494984723,0.7169739638904613,0.6156971660647637,0.4194883191411511,0.051831334789440235,-0.40791681227322923,-0.6937698544427602,-0.8125370734671191,-0.8551947800419205,-0.8619646222911874,-0.8437915953134638,-0.7966746131123787,-0.6920640834536932,-0.3815456576140939,0.2317101031401769,0.5164303615486049,0.5654691295200904,0.4716817655390499,0.31068257780634034,0.2503068733558534,0.30888159349048855,0.4232809102411171,0.5548768097907278,0.6620310293816412,0.7229815681256795,0.7450025569019719,0.7399139304091806,0.7281251053145461,0.7428128179979889,0.7906887604888695,0.8435998480690188,0.8748799704897056,0.8805124081111432,0.860806997349574,0.7971287254314627,0.6566471953294403,0.48369192001593586,0.3761445054471766,0.34011175109702396,0.35091303989284467,0.39570890146944904,0.43253220796608915,0.37669735120956843,0.1099154766271172,-0.3783977568210153,-0.7177042758985478,-0.8486980455175491,-0.8965315684698245,-0.9128061767213493,-0.9115017860333311,-0.8929522166831929,-0.8546097838537674,-0.8188275321056006,-0.8178761920532689,-0.8277841683813302,-0.803722573982816,-0.6726637810396761,-0.15645341895094594,0.6052974737045776,0.8458985701871973,0.8809120394880646,0.8435803290130213,0.7834841172101823,0.7748377397753259,0.8252285820056522,0.8747208667601208,0.8943950782003827,0.8791244122267315,0.8050664843149687,0.5960558252357542,0.14460091800967828,-0.411952924793244,-0.757756950542768,-0.8975995332178044,-0.9468158322621782,-0.9632047314582822,-0.9690288601055488,-0.9720157243696715,-0.9737817865288667,-0.9737732091966139,-0.9709266026065834,-0.9643639310545986,-0.9552912144393491,-0.9487328877560245,-0.9459718798351296,-0.9400118142423273,-0.912430372324821,-0.7434287072503193,0.40183030073826853,0.8814413520694666,0.9426930459011145,0.9559527337821844,0.9563019386346571,0.9493499172004339,0.9340698496330292,0.9070875392452611,0.8659411579767397,0.8105133278548712,0.7477360973921865,0.6934509579817726,0.6687206296334998,0.6754975395254696,0.6860706706300198,0.6634886631172601,0.5771562933972111,0.4293571568194656,0.31754551714202517,0.35210217289920437,0.5174811993024879,0.7107457937608618,0.8447507040671484,0.9091910387729407,0.9320502788106446,0.9298673722891504,0.8966945437328698,0.79141723053375,0.5788719381008409,0.49628857806521814,0.6830645525684544,0.8593059869013014,0.9336528176883843,0.9598947059537238,0.9681751553912886,0.9691180217025235,0.9660524740413188,0.9590525364938826,0.9469178237934038,0.9281002617726453,0.9044148033086179,0.8804140362333149,0.85624295166598,0.8077372493449335,0.6876183241715925,0.4717200189588341,0.20977550304633225,-0.028012878035265497,-0.20619565773756152,-0.3225617261217457,-0.39305107703597575,-0.4403213716931155,-0.50063938655169,-0.579320119991089,-0.636233470330155,-0.6527015407362672,-0.655225409595726,-0.6595095659510495,-0.6506350375744073,-0.6056093527546013,-0.5383239630546051,-0.4499873687169732,-0.3021966570340348,-0.11346821364995999,0.030036026962835298,0.08855452103583175,0.1029280804225289,0.13092798382139467,0.20213449709531023,0.295180130573853,0.35175339486055385,0.29678165940688245,-0.007516738941704333,-0.5508798625751938,-0.8253510365090696,-0.8850271041344888,-0.8684188568740119,-0.785173773888146,-0.6052002006914491,-0.3822416069172009,-0.2818088609383628,-0.4074266813838112,-0.6792851915520223,-0.8688475357713861,-0.9426451640819834,-0.967331292525505,-0.9732424976825841,-0.9718691659373989,-0.9697170987144689,-0.9701374763031272,-0.97244345217447,-0.9738402565301869,-0.9726451082924257,-0.9673555370869391,-0.95493406069519,-0.9297707635004226,-0.8798165129955942,-0.7768136882995594,-0.566439029907854,-0.2607534411462921,-0.02453502312356247,0.11283948074461093,0.2312075504787536,0.40293540705731723,0.6281685978052772,0.8137784019196247,0.9081779287113169,0.9468244642769152,0.9617067152686574,0.9658661562135668,0.9651984448556665,0.9635250298167678,0.9630767614630884,0.9637368651267824,0.9635622636308211,0.9605066276585329,0.9512550859747807,0.926558393766642,0.855641867307726,0.6232947294097655,0.032411997307896796,-0.49451065668380934,-0.7009589795023508,-0.7729977889367298,-0.8033898181000603,-0.8392968610867638,-0.8900948688724388,-0.9292183033476169,-0.9469058412122418,-0.9481593115300359,-0.9315153997123231,-0.8733092464321875,-0.6482758494227264,0.11213769289369321,0.720705226494823,0.8923062192267072,0.9445389686387495,0.9583475205485186,0.9588152024094565,0.9587269551735969,0.9630840905957893,0.9688763323613404,0.9706076508787972,0.9665838994715278,0.9585152332622177,0.9483925721158085,0.9359100784218143,0.9195167207696793,0.9003045215465413,0.8804195489960286,0.8590017091935575,0.8307592874463636,0.792713642910396,0.7485144363044148,0.7085608265257473,0.6802522123167946,0.663924570218668,0.6489300220263566,0.6241013828317946,0.5722201376290317,0.4668494816022661,0.28117802129068925,0.06350957083793711,-0.030505048874078882,0.07045790268319098,0.30318792756842866,0.5070314301415058,0.5955986458902321,0.5860294582527182,0.49241550703320347,0.3307142876869093,0.1571506696810798,0.013367484693004856,-0.13751075760857712,-0.3786469312962602,-0.7160881319511461,-0.9464291907665818,-0.9931458639740554,-0.9636628937027841,-0.9095959940605559,-0.8315547669833291,-0.7028812617470803,-0.4748001827522009,-0.13051155502773573,0.1613285768795264,0.17811009899304625,-0.24181948275328433,-0.7103411274803298,-0.8694675028048827,-0.9227622627176681,-0.942323931277312,-0.9449993614671067,-0.9369829774542487,-0.9231118053715536,-0.9058737542096732,-0.8856065453110245,-0.8614559266187131,-0.8219085951826215,-0.7319348907418165,-0.46293308918056986,0.14340160598301907,0.5689327006073299,0.6646567745155068,0.6143144453793882,0.48611762399713354,0.30555199475973205,0.06917900445308754,-0.18304693578629522,-0.3568881127716676,-0.37305226730373814,-0.05294109386010772,0.6838664640710342,0.900859490643525,0.887083987825316,0.7993721421730287,0.6286651213368842,0.38839414186486865,0.1650830819593071,0.022558039025577358,-0.05354170021197033,-0.11332871777367703,-0.22149757744764537,-0.44169311252706916,-0.7222123217787577,-0.8558915334353969,-0.8631906752836361,-0.8446920091017006,-0.8218583793975514,-0.7869698570329907,-0.7401599262131897,-0.6972126502054191,-0.6627806845430728,-0.6256231081758528,-0.5544321134860871,-0.38333564393118,-0.0206434683102959,0.41928343560392184,0.685147827363466,0.8148051156682454,0.8827995333730401,0.9089781722091004,0.8950237908371308,0.8499709534448535,0.7965738174451573,0.7551686014049891,0.7341343290255082,0.7331548763871414,0.7422226263806606,0.730737322232958,0.6684058625380928,0.5594303302230935,0.4340539078065047,0.318184008459561,0.2340296588542992,0.20688765014106622,0.2755651663679091,0.4244243345287399,0.5660640747608291,0.6429513272417088,0.6409917193098765,0.4997268285304783,0.0008400503861832307,-0.5791967835261285,-0.7878290577546864,-0.8397548229805677,-0.8006523581350854,-0.5453956954553429,0.1186862269496202,0.5834671388140193,0.7474206283968154,0.8121303576902201,0.8455919768229511,0.867353601808402,0.8814838557938133,0.8865195541952131,0.8786625192021782,0.8478713137678614,0.7766912319587213,0.6386331243941693,0.40332245569797,0.09841863722366476,-0.15234894688519277,-0.27685664882561667,-0.3205960641911649,-0.34770334822522125,-0.38360469756536697,-0.3943356729507875,-0.3011612035067239,0.05290840904849397,0.5642545996929088,0.725897873964614,0.718754978862372,0.46602229874068457,-0.6526183183432985,-0.9595289116900937,-0.9860043688064496,-0.9895507764891536,-0.9888276118480597,-0.9853947861296728,-0.9763223883404641,-0.9527087540247311,-0.9028737103706658,-0.8496737181960655,-0.8351358351664645,-0.8374111604304687,-0.8146660044924188,-0.7001038492792113,-0.26452496833881284,0.444899131851747,0.6787469216394977,0.45261669831728324,-0.6854734271214901,-0.9437816645107799,-0.9740377204030214,-0.9794162076263075,-0.9765584044423755,-0.9647056375819696,-0.9342905364616172,-0.8583456145064368,-0.701737567007689,-0.5585795815258853,-0.6242490209882502,-0.7803316234567499,-0.867144041132324,-0.8992815960589368,-0.9022588600107913,-0.8799136134133386,-0.7955516135400563,-0.38943865332555366,0.6341372618107137,0.9144161847215052,0.965463240800903,0.9814651000650875,0.9873821981282562,0.9882386993234542,0.9864727046589923,0.9849067001134123,0.9859538520266103,0.9892020222575125,0.9919585033543475,0.9924991635351716,0.9913709265101343,0.9901409995407948,0.9899693543537686,0.990848212846106,0.9911746710975117,0.9871694950523103,0.9729398408514514,0.9426967723271489,0.893846649109721,0.8265632870710824,0.7366945141075492,0.6305143426629225,0.5264015284276281,0.3900504189138697,0.10167923099532199,-0.4405805958501044,-0.8179526863412688,-0.9299075846432908,-0.9619508618233493,-0.9744159226419996,-0.9809465566865967,-0.9836967300671647,-0.9823620468551357,-0.9749819006818572,-0.9579334140543392,-0.9284110686887116,-0.8964632100395338,-0.8951542917909237,-0.9302100912431163,-0.9549032363860891,-0.9568586527688633,-0.9409955254825731,-0.8872249914324909,-0.595149260077849,0.6183036807547445,0.9350741670679208,0.9793574458260856,0.9907777070823824,0.9937382420418269,0.9926961942686008,0.9890411008824441,0.9836465225783261,0.9771981841889106,0.9700395471630331,0.9604254151634616,0.9434192485632428,0.9107587070805759,0.8604664011223021,0.8129524131368314,0.794103991579021,0.8005826201882248,0.8117391080401466,0.8115731219847397,0.7913710175406198,0.7450169127325552,0.6742584918528551,0.6099586002768984,0.5979542446892672,0.6121421378219828,0.5812469635654165,0.42642486247618955,0.06282860433864461,-0.4246428522507418,-0.7337416222028015,-0.8566163362059764,-0.8960554581185544,-0.8964983414525368,-0.861050098686825,-0.7600523778960048,-0.5603139100026735,-0.3762187750326451,-0.3934776209980107,-0.5693802066311324,-0.7306975183991871,-0.7901583428758446,-0.7639872058165784,-0.6845067875380436,-0.5963296822738572,-0.5700570454380827,-0.6215921922110151,-0.6970510888993605,-0.7636902473315622,-0.8229460247452921,-0.8686038923971047,-0.8995101054987074,-0.9147012114342662,-0.9143650974805014,-0.890522408002702,-0.8044516656176858,-0.5470585469522953,-0.11078509474741656,0.1518789942784353,0.16531085404002804,0.032403009379335455,-0.14560140229755825,-0.29105054449930085,-0.3839751772797607,-0.45001440811614335,-0.511211317701277,-0.5770035623231538,-0.6376791732139305,-0.6842357320537144,-0.7101765915370412,-0.715187443256785,-0.6938974865370588,-0.6323987808862357,-0.5120234267962479,-0.34811539227693117,-0.21405074752386777,-0.1899990418812822,-0.3197324168932898,-0.5569267502942131,-0.7593784066125423,-0.8698156632978439,-0.9177850608147585,-0.9311741783559262,-0.9135186913895667,-0.8368168024913142,-0.6230339544785924,-0.3088278837008855,-0.13787822276195943,-0.12364944094192759,-0.17388591512954044,-0.2202829656470351,-0.2260989615422768,-0.18215613085921853,-0.09465014822513707,0.0035088122754799193,0.07884131002248773,0.1242601921636417,0.13997683959151783,0.14056481133251253,0.13582190474585615,0.1322698661710082,0.13397076651056436,0.14370319970854162,0.1684980038975953,0.21627152028783284,0.29218476230810286,0.39709738513058396,0.5162213162091623,0.6202227472341829,0.692675697435038,0.741496386779036,0.7735927712433163,0.7940098966039787,0.8081538183929086,0.8202818298940416,0.8336317884716694,0.849596144130311,0.8660939055064932,0.8736989509794266,0.8452279797697944,0.6951288942209989,0.27470631285659025,-0.2577365078726813,-0.5912938763502155,-0.7546540650743251,-0.8338511159943656,-0.8722918102594077,-0.8911077505389465,-0.8994523011693117,-0.9003353532398641,-0.8937626933073196,-0.8792556613958894,-0.8515905236383922,-0.7973583533677324,-0.6854851399620108,-0.44873719826015046,-0.023952007295915928,0.43452765439256075,0.7031139990222419,0.8039253250448906,0.8291246963818899,0.8307568886010673,0.8290455000225304,0.822375317531101,0.805479775262263,0.7810392840385723,0.7547969578765336,0.7295077142678631,0.7036537403491825,0.6746900716112756,0.6364248416483494,0.5950217727373623,0.575329288172545,0.6034451119348514,0.6795514838197177,0.7756001440316147,0.8495956268277075,0.8864560554692412,0.8971772789371023,0.8946723901361916,0.8858600558073564,0.8737807599824544,0.8613906544283277,0.8520479858484604,0.8367290583893449,0.7849630355738672,0.6635659668489852,0.4607047072269652,0.17488417045929894,-0.17411675620732064,-0.5031286068543892,-0.7283131415749851,-0.8523707818921377,-0.9151931483301408,-0.9471324032766057,-0.964338124576435,-0.9728600973435384,-0.9727900335562558,-0.9647870605762153,-0.9516359596284815,-0.9348964672904801,-0.9120906748578097,-0.8741213486747068,-0.8016603915188732,-0.6531184120926218,-0.33294250487944327,0.20184589356845578,0.6288185069841918,0.8158362114645321,0.8904110131021529,0.9226575601884102,0.9339963878666139,0.9303676784878294,0.9133035004375718,0.8836223465604008,0.8414978055590181,0.7861892353796547,0.7156929030935434,0.6422469795317532,0.6094542901914002,0.6502873185900774,0.7255118707619507,0.788138943570856,0.8244492761572788,0.8394983824278119,0.8317786067821459,0.7901689535969685,0.6882111358903883,0.5307052097081145,0.4418537117081061,0.5050462852706142,0.6204507898504451,0.7010578480281867,0.7356501642667918,0.7225100248869912,0.6397627410105127,0.4190382051564742,-0.017759870937125003,-0.48865272215609473,-0.7540491994261328,-0.8756809508299925,-0.9350544099078677,-0.96324886248829,-0.9735771550590822,-0.9726725582012223,-0.9648217608000306,-0.9520025180374329,-0.9336166718959668,-0.9037261423040929,-0.8480351365999752,-0.7464532944425817,-0.5988692717723803,-0.4498517034986105,-0.3471398349239999,-0.30676648251939803,-0.3152703272528752,-0.32544046833991247,-0.1757924628156764,0.44397653860531816,0.8177091896535642,0.9063555694937396,0.910173517825642,0.5716073860278995,-0.7522746933273482,-0.935481937082646,-0.9739379033542355,-0.9857351100228486,-0.9690137472470629,-0.7913023964073088,0.1407130135211061,0.6725086948137223,0.7890757761437233,0.8184342890573963,0.8228209110261023,0.8196920261075371,0.8092284153511671,0.7900709879814225,0.7684174438173909,0.7273781981846247,0.5603204516576133,0.19366722442766407,-0.1082987284399551,-0.008482200071853376,0.4804769784681557,0.7888749590666463,0.8908434033077782,0.9293450266310594,0.9486212636313508,0.9577863362647071,0.9524757457615199,0.9346176693290544,0.9213350812262671,0.9148208107415947,0.9071380832698414,0.8912898630018692,0.8607989305509977,0.8028074132243999,0.7004738004401027,0.5259578906640845,0.25374318786015765,-0.07364490299661458,-0.33635711071005997,-0.4626294569426418,-0.4519580424907809,-0.29307881049315077,-0.003005253453604347,0.28700026254210415,0.47278706930269576,0.5852331812003515,0.6880490102828759,0.7818362885129954,0.8445827675672217,0.877174590831185,0.8901468932223807,0.8875404091674413,0.8681702037741706,0.8406896339786822,0.8299356995690961,0.8317641699554554,0.8319022015916369,0.8229899626929232,0.801979211619886,0.7688806250961439,0.7297940061542759,0.6961553101079831,0.6712351155819243,0.6407783918062943,0.5962445580087663,0.5569791972300042,0.5690482971380314,0.604694766980453,0.5257130117075086,0.1568804334711841,-0.5719087690201097,-0.8925115358740279,-0.9557515417347808,-0.9702901900879135,-0.9750502185191867,-0.9772023596680257,-0.9779179326056036,-0.9776542698852771,-0.9763538502060628,-0.9736595894151309,-0.9665677548410337,-0.9421642400765088,-0.8813617602117171,-0.8322118231368254,-0.8659918429112866,-0.9199191385079978,-0.9539896640667227,-0.9711993946866094,-0.9783241854409841,-0.9771180200926343,-0.962114828039935,-0.9176624485644105,-0.8127843307466907,-0.6088554209765051,-0.29965417865988675,0.0784266274619443,0.4154671727370823,0.6073735422416546,0.6800996307058951,0.6879086597409992,0.6387358122121367,0.4858158383162479,0.09445277921877535,-0.4673592203545047,-0.7571674696232855,-0.8449419618270265,-0.8613159784973717,-0.8484277829174144,-0.8133851339477891,-0.72836647702631,-0.4809647933995835,0.16784903626871087,0.6463334932170927,0.7233732287459914,0.7155601530632739,0.7050353303082153,0.7125151280447053,0.7465940119370167,0.8039662136721217,0.8630497817958249,0.8956626635435091,0.8936241399864541,0.8708505892637551,0.8412551516936086,0.812181471608261,0.7880613995393192,0.7738342421995891,0.7748026978430798,0.7924607782167271,0.8184339408462614,0.842352822082147,0.8551350412630923,0.8528344556957265,0.8422070069538021,0.8321772535158656,0.8275909672138022,0.8249873858290309,0.8183563096049252,0.8031308735638665,0.7779655614653619,0.7394338214255896,0.6794509475859623,0.581038555705707,0.4087029943448206,0.16113728673133557,-0.06529433729726826,-0.19332549760411624,-0.24393128207457326,-0.2553243124608544,-0.23964127759842116,-0.17831410776823,-0.05013196827020697,0.10781455456607188,0.14752668609134764,-0.03358433461916503,-0.3546833751532849,-0.5975059059456947,-0.7074949376465052,-0.7316624680292192,-0.6882623772613679,-0.5527867141113578,-0.28845505167457874,0.045912842722088815,0.31022618233924276,0.44983557786130224,0.4606515641824084,0.3000456770284873,-0.0493838484822005,-0.40143557558399495,-0.6127201451637979,-0.7139013638239479,-0.7537194325285779,-0.7595304294905345,-0.7385572855504926,-0.6731922834754321,-0.5264241463454425,-0.3120400987428441,-0.2208903503359935,-0.3369858926034769,-0.5206800265657676,-0.636466262860081,-0.6496820366071017,-0.5451509243733135,-0.29267899039532785,-0.020038318336724394,0.06210095966891321,-0.06612186019667614,-0.30793895198295923,-0.5205696632266507,-0.6281719355585003,-0.6147333128034583,-0.34650632080455424,0.45255894289250725,0.8256521660468976,0.873917386419524,0.8583217755197137,0.8235404868387355,0.7859533349215982,0.7583475664119576,0.7501545640744609,0.7560802962697288,0.7582119626928971,0.7393909236780595,0.6870937392256603,0.5962398255995064,0.4846881204177273,0.379698549328153,0.2942678559362048,0.24715924264329242,0.2891863413654828,0.47529339476436083,0.7042810813133451,0.8418397720749835,0.8994794749416084,0.9141239380466667,0.8957785108310635,0.8452931231870605,0.7709735515593835,0.6895484370976444,0.6047145000380183,0.48568001020223717,0.24868329268468908,-0.15235902062500314,-0.5205423861676708,-0.7164708509911331,-0.8074641589416147,-0.8507243636103703,-0.8706537678547189,-0.8773068939034058,-0.8698679568154709,-0.8415301685218156,-0.7961943050889615,-0.7744071485399705,-0.7831816253692203,-0.7889229129012061,-0.7642287649146444,-0.6909795595479785,-0.5822495430517014,-0.515099435166622,-0.5427688748444297,-0.6252713338473831,-0.705032670899728,-0.7564753815946832,-0.7739684930420493,-0.7574470701056716,-0.7068671157544204,-0.6350620354034775,-0.5681120797675796,-0.5146231313311109,-0.4333734448078482,-0.26767815348988055,-0.013482333236648356,0.24094586506483903,0.4191335894958711,0.5261295558593043,0.5884234092142022,0.6322175414765514,0.6754617128507111,0.718989758956497,0.7527053864253997,0.7730271959957395,0.7878630929573616,0.8131819744764952,0.8547662529476716,0.8955105575389107,0.9181574593886305,0.9268533390708008,0.9291167749201021,0.930066873443704,0.931570098000048,0.9337283884004627,0.9346142902711052,0.9301565800973852,0.9154831840536737,0.8821137482165978,0.8161119344208517,0.6950928749608039,0.4942035714185947,0.21377720528888147,-0.10448765032840346,-0.41135612433803187,-0.6589887040162092,-0.8222421464093383,-0.9049918091666629,-0.9364176535806147,-0.9375480186338438,-0.9119123635810722,-0.846862814222315,-0.7305839917741949,-0.6320860971037908,-0.6683795462923416,-0.7841102479955413,-0.8667971684527698,-0.9044898730413786,-0.913823591261274,-0.9009336886835617,-0.8590799884770596,-0.7671033002146102,-0.5895858274156591,-0.3224778834817308,-0.03971825794936961,0.18239690498836394,0.3315356998072809,0.40890013597690156,0.43448580099649226,0.43446479545998046,0.42987984958310727,0.4171811049161654,0.36016875245209157,0.20938604407984068,-0.03782175492580206,-0.2861923431721536,-0.44718596304943564,-0.5029969698844469,-0.44719127488546045,-0.2810229879546935,-0.04802428006126094,0.17738760265999481,0.3419218790174781,0.4492502159432416,0.5205842896340114,0.57343855780809,0.6222512148611626,0.6724147200364884,0.7114909232246135,0.7155238628944801,0.6925775272519546,0.6666994037730312,0.644175809431728,0.6241826815586058,0.6085462179238249,0.5994543542564501,0.600696003423754,0.6209176832488402,0.6644200869682866,0.721688871208603,0.7736447974050344,0.812260273629768,0.840109835514818,0.8593058257576325,0.8510334062232512,0.7429639018854515,0.19720526842304667,-0.5902220748590131,-0.8007167171948052,-0.8290824441739092,-0.776722735634385,-0.5803333580085891,-0.029896490874723448,0.5459638794403776,0.7287252547257426,0.7100547723560361,0.46957857276973497,-0.104169506719287,-0.5344708849599699,-0.6913316756723417,-0.7498670729843837,-0.7857395994692645,-0.8190617374986685,-0.8406857143638977,-0.848669302677349,-0.8593250558769415,-0.8811077389770393,-0.9101172971274507,-0.9349814487247218,-0.9483071013221221,-0.9534080561175252,-0.9556837907155327,-0.9563960397315593,-0.954047726259106,-0.9456421465109268,-0.9291503166233248,-0.9050488207384826,-0.8726487367385672,-0.8157827025955754,-0.6862353017018518,-0.3711997474949262,0.11602770230014839,0.4346320730443498,0.5836075165848301,0.6915215125904375,0.8021671295979088,0.8883193649050882,0.933526971439505,0.9526657314547383,0.959074159018978,0.9591802346685493,0.9555095464098873,0.9500516391249345,0.9465798696735189,0.9478027533645182,0.9525623834678442,0.9569500062916013,0.9568438176210076,0.9458610198751592,0.8989474989004188,0.6209622220353788,-0.49715093048904824,-0.8743095528524985,-0.9461579001243705,-0.9747934267143582,-0.9915800464617432,-0.9937573879255653,-0.9773082417940812,-0.9605875836143279,-0.9548135295446774,-0.9553520552834094,-0.9567046230675065,-0.9560554446230882,-0.9501196037825581,-0.9274150396981448,-0.8025267504470925,0.2960633207120435,0.8880465618963843,0.9521083927020252,0.9679485072068803,0.9720056979961386,0.9694373204803639,0.9599012402477902,0.9405688195181228,0.9091747969459352,0.8695831261228207,0.8352992530860965,0.8159924925610704,0.8056905018505057,0.7863196744888061,0.7336051287010229,0.621321911371479,0.4265526871713033,0.18522209765838304,-0.028324138721030998,-0.15471638595460882,-0.18503699334095805,-0.14039844482168537,-0.027185301568156805,0.1468599309752372,0.32810990366895065,0.46947762294434975,0.5738145197930714,0.6781955434546453,0.7830199131272657,0.8609637227182116,0.9040829744272838,0.9228072840148396,0.9221667112866703,0.8918752272861394,0.7178251764443224,-0.08495788257204043,-0.5434371872961238,-0.5576833311771268,-0.4042173221659228,-0.1490156100807441,0.0922506416279704,0.24178113238390997,0.3066340407506292,0.31774809423276407,0.29896181720620507,0.27583783683063395,0.2629204401192722,0.27817703847154535,0.3416708995550086,0.45187291793579665,0.569632380789914,0.6541323649515179,0.6930757964839434,0.6971560840156353,0.6844849932186318,0.6756650710181293,0.6683571184410293,0.6423648649550243,0.5654824476656101,0.35927020547924277,-0.10251713659839835,-0.5950850805991111,-0.8341689823319764,-0.9225831404367063,-0.9553354282973865,-0.9654566933110824,-0.9610505641812158,-0.9351589949935092,-0.8806770382572415,-0.8260186607150661,-0.8304505245436614,-0.8844192523383043,-0.9340074553578798,-0.9614027312875785,-0.9730573259810136,-0.9752817496772996,-0.9685253751529533,-0.940330500003587,-0.8295528228013684,-0.4454990828268047,0.1647089255320592,0.541471941168278,0.7171880648065666,0.7346444465583746,0.4958078886886876,0.005196198178069109,-0.43288453792772613,-0.6447428585433492,-0.7018260145385984,-0.6571760168019319,-0.5000454926467105,-0.2178384966789564,0.10051690087866545,0.3132692317841788,0.412264065974848,0.45330887341097176,0.4904386187429265,0.5495530432098201,0.6290733027204644,0.6985992099751498,0.7118150797166547,0.6087943778942271,0.37858996884249285,0.14669596451052763,0.010694750896722938,-0.03667538861045261,-0.018565013214738284,0.05337018205932273,0.15975364113763882,0.27113566899427194,0.3748230081455765,0.48107249765539534,0.6016552063019188,0.7354495808940938,0.8463182083194439,0.9058346181245364,0.9163560137762412,0.8872129029175404,0.8104899563620384,0.6527572748307449,0.38846578617680233,0.07154615383568509,-0.19717253410284918,-0.3770693510006347,-0.4820179160989232,-0.5373180533961014,-0.5570497970026955,-0.5513999370898105,-0.5348737298464245,-0.517757533013797,-0.48566166952746925,-0.400126237380346,-0.23925248721896178,-0.054711915214152584,0.049090049493157414,0.014283836139230448,-0.13782125314744026,-0.3192895394836193,-0.4801510893849336,-0.6097247116463189,-0.7011467533881388,-0.7196170435152791,-0.5663724040882365,-0.14667633194684376,0.3111764955760881,0.5554081155965034,0.6363657535592271,0.6378609292186356,0.6041448842248643,0.569872407356775,0.56614273602024,0.602723562093343,0.6666867978609992,0.7387414002981795,0.8037079314517889,0.8521017253612072,0.8776473441142009,0.8786230853565371,0.860151687167428,0.8313155578699248,0.7913653855728172,0.7182214839100642,0.5441926350675784,0.14628821465583278,-0.34540954914359245,-0.6073159827712024,-0.7090217462164455,-0.7557402398729189,-0.7890004498892198,-0.8206790233541164,-0.8497364232380212,-0.8688343172938107,-0.8704024541529022,-0.8482701818218197,-0.7936447395008623,-0.7017160529417178,-0.5979847336140307,-0.5585975404073752,-0.615084197586006,-0.7082007336832264,-0.7799172409549844,-0.7999215785994633,-0.6909232590553789,-0.13047898383624193,0.5476753294843626,0.7685950311366115,0.842037617164295,0.8783320126702754,0.898721181624498,0.9077062096765226,0.900988028611995,0.8669348324771255,0.7852798166984539,0.6490704398610098,0.4787686376606429,0.29635252217870584,0.11671005848441825,-0.04367801475131291,-0.16129986357684473,-0.2079718074363455,-0.166304009525643,-0.06892417808640826,-0.03832354590116342,-0.17658458220765488,-0.45597800019408596,-0.7157390331463795,-0.862852217926983,-0.930019362687671,-0.9586830191033564,-0.9701431844716883,-0.9721119052243818,-0.9639639455963694,-0.9272927038097595,-0.7340756843017502,0.1229519647656581,0.7113074561668807,0.8560563212859041,0.9064288164662191,0.9306211894147194,0.9424736798392686,0.9460899095238984,0.9444755039555736,0.9390030305940025,0.9264110815279449,0.8948780421237793,0.799352977847501,0.46415524426550725,-0.23264563995712884,-0.6325693069453615,-0.7541577550796247,-0.7696826306707133,-0.6870040687284543,-0.3551222490111625,0.37292244514012435,0.8008442719570226,0.9247472481587007,0.9616363922806446,0.9663753774646434,0.939887830304123,0.818973683379922,0.3152316904546857,-0.3065673417482226,-0.37765010418936884,0.0235859084415021,0.5844455053831359,0.8076606462190344,0.8632537255898274,0.8490686128282826,0.741387991388914,0.3169769365844534,-0.4791264816956087,-0.7966933998761047,-0.8702427071262191,-0.8793404852846538,-0.8700137119746472,-0.8701677445134683,-0.8904772511826693,-0.911715132201011,-0.8969969656430236,-0.795562325576727,-0.47953927644797006,0.1636710780916604,0.6527765128585159,0.8325531371179901,0.8887004110144145,0.8832011380736271,0.6606313507847857,-0.7748227079050182,-0.9370387294077099,-0.9493172910244239,-0.950316101616251,-0.9541330408603791,-0.9638134531583951,-0.9757239724405724,-0.9833217448963817,-0.9809643934445343,-0.9559549424600552,-0.8394076024878546,-0.29891059122166447,0.4545826868437524,0.7134249746865697,0.7929785717126129,0.8175588277727196,0.8177764482861799,0.8061020553427652,0.7905753160038135,0.7729075999392332,0.745804660258339,0.6929086912386008,0.589894638295377,0.4072565886960051,0.147687709926038,-0.09173933509072033,-0.2043120250200713,-0.18252217603617188,-0.08462761049285672,-0.08362343271424555,-0.4334482755421175,-0.8384897232697978,-0.9451737910607492,-0.9609293487324528,-0.9531773851072866,-0.9205139344121124,-0.8267515474920722,-0.6592019814196114,-0.630455006549944,-0.71485933577978,-0.659875268959655,0.12865594555499774,0.7415275771950645,0.8464188134418072,0.8763087829266867,0.8822143845451433,0.8667226969603781,0.809805998176373,0.6160241909185675,-0.14379869972002637,-0.8385268613050129,-0.9333951968089782,-0.9244282088131998,-0.8967790656177794,-0.8697480617377782,-0.8492022389060327,-0.8318334155364853,-0.8079323232881513,-0.7615310745057655,-0.6817386281256973,-0.6062897600940755,-0.6031561001152497,-0.6531820500488067,-0.7083089634251891,-0.7540032445647161,-0.8010824783285468,-0.854186465831244,-0.8979689297478368,-0.9258444720796859,-0.9406223663564407,-0.9471409090109004,-0.9470793225303036,-0.9389620222191156,-0.9148382895097085,-0.8442746186871011,-0.5950717174651724,0.15446619380723728,0.7202932821920841,0.8479343228130931,0.8897927246650426,0.9162247519697762,0.936196209244968,0.9546371644332488,0.9716959372314183,0.9841837870881189,0.9911305458668557,0.9921293418164304,0.9863475054936294,0.9753369021164775,0.966956999333281,0.9688819543920033,0.9754388151997225,0.9774644737890043,0.9738060659908931,0.9668096703052138,0.9573507061021257,0.9445585586167564,0.9253646781802828,0.8934700310503668,0.8399693554204289,0.76515465363988,0.6817378724666386,0.5867745097923038,0.47207752941191816,0.3615793792249355,0.33444647818074014,0.4385052235541052,0.5991201397520365,0.7139832197509447,0.7675486253867343,0.779229402185913,0.7633260682577692,0.7328828103408545,0.7027656311879164,0.6894505696348011,0.6855757504630485,0.660467474217557,0.5663243333721953,0.29058955878236753,-0.30256788784670935,-0.7591271860045528,-0.9158100824773907,-0.9672302548320323,-0.9816334729048563,-0.9726656487961317,-0.9405055502853046,-0.8950113983964387,-0.8663313656433401,-0.871382498345247,-0.8956177300138232,-0.9178983940291772,-0.926409764493902,-0.9120910221017162,-0.853978251729479,-0.7177406476206405,-0.541665110151225,-0.4540181701445131,-0.4348181743621111,-0.37841690691833824,-0.2333256366584125,-0.06169096743173941,-0.013200602088532104,-0.19637899342004822,-0.5275252232488131,-0.7494545531954202,-0.8277950745944892,-0.8297416823958725,-0.777955785551715,-0.6594897924724191,-0.4597429517638918,-0.18919017196776577,0.12184705709488937,0.4067818366534051,0.5968221200352114,0.701050154029779,0.7636887095897289,0.813901895507057,0.8544498352320706,0.8657484961205733,0.7544862115762465,0.4752871746322427,0.2687850477542334,0.2326177861014918,0.30878296790033477,0.4224421638027495,0.5013194215513838,0.5107331913061602,0.4323308883843509,0.27445863074318166,0.09690679919473559,-0.037576911581149015,-0.11341107718018785,-0.128755732046034,-0.09944708488969378,-0.03587733880213226,0.047140559287445205,0.1191413058094516,0.15947267562510364,0.20002213376524727,0.2983200703903932,0.4766403403640647,0.6779665017975408,0.8012975137868935,0.8259211308149661,0.7922099588100424,0.7116959784243353,0.5755450179047942,0.3887840290962707,0.1826505511038983,-0.029164079220837694,-0.2660201816173028,-0.5367595165535105,-0.7668071084268752,-0.8868606155788514,-0.9334200515039356,-0.9485755861612899,-0.9480604343263946,-0.9280468614177552,-0.8728429917859275,-0.7418580678322895,-0.44363621698271344,-0.015471146970830055,0.14798968492982445,-0.0892065798335051,-0.4972836183758028,-0.7597404429888077,-0.8719105715064758,-0.9167401640610575,-0.9301947414418344,-0.9168796888027393,-0.8379331573944129,-0.38381655682195376,0.6105364975419729,0.8608858269920155,0.9067247868748274,0.9129269658816419,0.904037206696514,0.8849553427714573,0.854248668185114,0.8056550489870951,0.7254827688677854,0.583929249375072,0.3159165358079256,-0.15761371780179959,-0.61666311542357,-0.8322172665475767,-0.9128841725759673,-0.9444439762925575,-0.956680377748677,-0.9587510466659908,-0.9526379273096528,-0.9394771195148511,-0.9247562377826501,-0.9171397262820989,-0.9186000629801392,-0.9209139276863075,-0.9076942038001674,-0.8075283115677271,0.16433869139053148,0.8795916256029835,0.9507192511345055,0.9675876818056426,0.9732429383438111,0.973800111760659,0.9697114065931551,0.9595614307431842,0.9443827128211445,0.9282943120468401,0.9149731617164669,0.899702423642547,0.868180724902061,0.7989666999301405,0.6511935887163881,0.3111735806290727,-0.29534782958645817,-0.7128817628901163,-0.8488290063784598,-0.8864105875871766,-0.8907811024170816,-0.8741455126537194,-0.8162282394856378,-0.6446364347209718,-0.2081261427441075,0.3531999046099533,0.6745904974686252,0.826048433308944,0.9017801123139311,0.9355975686134388,0.9444446069456176,0.9353027237874084,0.9061902359114217,0.8477938783056868,0.7614124052099007,0.6734824811534722,0.6171910726525969,0.5998469310336341,0.5987900965473639,0.5738605751665533,0.4833909551841107,0.28493133525265446,-0.06406317852941211,-0.48411207000076256,-0.767140594753049,-0.8914313025590724,-0.9390618721144915,-0.9548815687564396,-0.9529101306118136,-0.9209118308251214,-0.7544168794321224,-0.1857481089832025,0.29010556948650446,0.4393809957723849,0.46295363627255487,0.44385647272870526,0.42133297559022265,0.44481157711886227,0.558596661448863,0.7179600438643421,0.8354077444935375,0.8944690355130669,0.9180323523886089,0.9218100681741752,0.9108811228746272,0.8781324617607389,0.7857028118653967,0.5013013503149403,-0.07164913546670124,-0.4734096504886336,-0.6207631234461989,-0.6697937768337051,-0.6953334966991106,-0.729328812394404,-0.7706006755217417,-0.7990826574244312,-0.8028603507261132,-0.7795686880150504,-0.7404779628658821,-0.7028486450853708,-0.6714237231396601,-0.6375436995369551,-0.5793893132347249,-0.46302207319355104,-0.25723126465479096,0.030113238770377086,0.2660143369012788,0.3765965610194357,0.4037129208217356,0.38477969189039446,0.34250934031212926,0.28194239254514025,0.2066884076881939,0.13110793147694508,0.07277880526028069,0.032483701925197415,0.013095116798717787,0.022062746945487523,0.06475015730487664,0.12266660614444165,0.1665975100922965,0.19296778149620042,0.21325216156674684,0.24545204972983206,0.3041857309452817,0.3810203722686937,0.4167139013748594,0.30643734662893113,-0.08237766239965683,-0.5354132603087698,-0.7215339762671482,-0.7727537068224569,-0.7835880389202139,-0.7800270061967172,-0.7501530094111715,-0.6001736762172126,0.34806321964802,0.9621869529817959,0.9938401566599158,0.9937461239764723,0.9922025807133753,0.9916712356954407,0.9915011345105975,0.9905211067205169,0.9858053538028831,0.9678551629784413,0.8829330174043805,0.17778660943582542,-0.8134157194374438,-0.9451099421150835,-0.972483574107297,-0.9810192488380459,-0.9837159219607063,-0.9836182829151361,-0.9817251107795146,-0.9774191730935021,-0.9687660073382695,-0.9570128160011119,-0.951096868628736,-0.9553322692260664,-0.9637558923837355,-0.9700414603481478,-0.9711671277960342,-0.9652906194747739,-0.9500920908154818,-0.9254815819374488,-0.8874317767252277,-0.8134384160802917,-0.6430819039273964,-0.24885126973116392,0.289018772591805,0.5992307046953751,0.709020323634018,0.7287388608382303,0.6960648947428557,0.599956463080971,0.35172547140790555,-0.20075966734395534,-0.7098673000879094,-0.8945979240134553,-0.9454037063740455,-0.9429825981757617,-0.8756795999384653,-0.6971503007569388,-0.516584565128702,-0.5149196221685347,-0.6393698330594891,-0.7521408277053532,-0.808920157740054,-0.8153062706352673,-0.7430862954954178,-0.3658952161360734,0.5905871737684112,0.9095718583913762,0.9682919675885229,0.9840200966238721,0.9892060039731281,0.9903196949471684,0.989030174154986,0.9856721704036375,0.9768651449173236,0.9349136638860189,0.11918002343726522,-0.9179321704627691,-0.9694903369933416,-0.9775024471700294,-0.976134067700703,-0.9676318988583107,-0.947808423815709,-0.9043908751699983,-0.8070015024548098,-0.5638168978220651,0.01681972997879642,0.6499294601292723,0.8854184594989076,0.9509975683602929,0.9706271536344538,0.9749047487275478,0.9718950970909428,0.9643079083600478,0.9533921726127289,0.9404862255817878,0.9276558189025856,0.9188778622941544,0.9174070011221702,0.922212226671741,0.9297817209161541,0.9368220085719698,0.9407934130595105,0.9389008549111086,0.92698557620283,0.8995877625427107,0.8520437438005112,0.799443854842289,0.7758074660255688,0.7877620003885419,0.8124134731159431,0.8332761408402906,0.8481399884216337,0.8602984296479916,0.8688910132636526,0.8664109301183115,0.8493843556465391,0.8154711040563087,0.7265502284872299,0.4073376111302575,-0.36206408034969007,-0.7959161363678137,-0.9157992451389292,-0.9563467210057522,-0.9729915924717548,-0.9793013842742568,-0.9768103349597297,-0.9562840774976902,-0.8768792294028727,-0.6277458720541317,-0.2709634956076728,-0.12465670295782268,-0.21433206061228263,-0.44180687923264506,-0.6626072245193797,-0.7931993214780962,-0.8595775667970519,-0.8985268162067166,-0.9251080042392369,-0.9371940400263061,-0.9365907415980657,-0.9297187222671927,-0.9257502195401673,-0.9271218666968197,-0.9259242744051658,-0.9095503101642275,-0.8585166893090076,-0.6959456173284024,-0.10658589440249482,0.6294476853565691,0.8445107879911153,0.8962018532646712,0.9055874281592767,0.8952459040916344,0.8696729243279585,0.8256105830933873,0.7401988324017338,0.5454141339001791,0.16000657613539673,-0.26372700967043194,-0.5127693155904457,-0.6228493630310561,-0.6633938322609597,-0.6762594308614139,-0.6923690244829552,-0.744955825534077,-0.8347247749083282,-0.9084015952576765,-0.9453768573146422,-0.9599360127651526,-0.9631851466458266,-0.9584716104486626,-0.9391883212470066,-0.8576250857892305,-0.28515825476235324,0.6846392140477335,0.8648382710423564,0.9013604119006404
