0.4777832656385722,0.41239219418106193,-0.13436505173547864,-0.8104545488348588,-0.9432307275494958,-0.9595136728948334,-0.9573315486803904,-0.9524181529837206,-0.9464703562247602,-0.9207117680893636,-0.826879283819382,-0.6547734233165613,-0.3534067888126868,0.2901242935591549,0.7510360097773978,0.8745748883120776,0.9105582361536773,0.9248328505586865,0.9316356435889562,0.9350622027569664,0.9358043258210504,0.9304517990216534,0.913100349802217,0.8716426518885098,0.7604699802249475,0.3116330433184629,-0.6667993446655969,-0.9319250119913625,-0.9752381544721721,-0.9853494282544356,-0.9885097339837928,-0.9899523290284539,-0.9901749133446957,-0.9873682742110687,-0.9786304288342723,-0.9590681883985528,-0.9175205364327829,-0.8375930295379169,-0.7297489404519841,-0.6699596538938666,-0.7052649385145926,-0.7799451702214972,-0.8198902436395596,-0.717974955656224,0.7572043922503465,0.9628261527851336,0.9686879168195984,0.9629559142085998,0.9505210657221285,0.9304378405214871,0.9011507248140129,0.8620994875977843,0.8143574261233737,0.7649722587049692,0.7278359524177473,0.71611017960177,0.7309658205139191,0.7629887666522635,0.795101352734509,0.8105467844093377,0.7905919266729104,0.6653342235095472,0.10685284302453711,-0.4408160473314985,-0.4467662453639224,-0.21643172795382387,0.19440459410263863,0.5846718284591018,0.7755325075727237,0.832157757337901,0.823842564019914,0.7703193544613738,0.6827292591602625,0.5928193867848257,0.535936873951822,0.5063417293969411,0.4643474735948638,0.3730399934844257,0.26178069197402576,0.28907664146990886,0.5505266553752353,0.8043696115292116,0.8974168784368055,0.9152059688187199,0.9072057952431738,0.8940214894909784,0.8819250505596404,0.8764406347031399,0.877869918807746,0.8874320409831765,0.9038046914889369,0.9214638677626104,0.9311135873297545,0.9222839924142602,0.8813639984528523,0.8004350387205676,0.6969657086202874,0.596431682701455,0.5011449917059765,0.3710324349841516,0.1275935252193716,-0.28272821769892853,-0.6651835441771669,-0.8484125560874705,-0.9099223500266302,-0.9219770128089749,-0.9039193981137645,-0.8290512662919158,-0.45446527067933284,0.5361620930203221,0.833125389982649,0.8871767770433743,0.8977094047753258,0.8934377786984712,0.8762640757118125,0.8348384956398286,0.724025811258586,0.38340869091100743,-0.3119558095598283,-0.7347960002974308,-0.8766166881345088,-0.9306650638450711,-0.9536393027122261,-0.9641281523282885,-0.9682663524749349,-0.9693426523407597,-0.9686907003322844,-0.9672436770884484,-0.9653278703251424,-0.9620448502408252,-0.9546379339009652,-0.9388928139023315,-0.9069644995963204,-0.8402985121353,-0.7023515371809255,-0.4967548965771265,-0.3410912813402405,-0.2915372795939868,-0.26970573565119077,-0.18922900515138866,-0.013414067742878427,0.22365706878966152,0.43518436904882324,0.5763116970273416,0.6473399009277637,0.660803007763469,0.6267217613715637,0.5630529247539824,0.4914764178690516,0.4253429609318111,0.35531265927440575,0.2697717867253332,0.1914923521608301,0.1629497465232541,0.22195423749133236,0.3821479928653213,0.583764343567215,0.7223851355710049,0.7651212675192306,0.7297998520220957,0.6090351902092308,0.35841266656839493,0.06899508148078586,-0.07821006356059358,-0.09369630868356763,-0.015210353264929958,0.1533105106589301,0.3501064954353468,0.45652660282898283,0.4401133765934815,0.32456144948403576,0.12351961872620416,-0.12783498029349236,-0.35585273255996497,-0.5154329484036747,-0.614764096069507,-0.680666928839817,-0.7263130747939025,-0.750901678788536,-0.7536021189141905,-0.7399782503556286,-0.7134548072016649,-0.6766316086107134,-0.6450028408260468,-0.6393146212124742,-0.6465959256638474,-0.6352990207452063,-0.5749465011741249,-0.4365743226887919,-0.21013069891867475,0.07088453832337056,0.350662580989017,0.5891794381357272,0.7676957278570534,0.8759674099552055,0.9298568551055391,0.9537482092497283,0.9629739312807137,0.9653206476943536,0.9642490081679091,0.9606648566657168,0.9553757533560205,0.9497127969409379,0.9440482079405813,0.9372429653367746,0.9228781932436535,0.8714223175487557,0.5082393845253232,-0.6571522427228114,-0.9139632083456654,-0.9628975669928704,-0.9790179278701902,-0.9843202928271172,-0.9829268751781172,-0.9740523988761203,-0.9524040939329007,-0.9078036251532504,-0.8344418715940451,-0.7569654621940559,-0.7157761780563945,-0.714671301787438,-0.7331796933360386,-0.7475500337075238,-0.7227186246350501,-0.5673516385722981,-0.08783584926410376,0.46204832450230215,0.7055369371464089,0.7921836432990967,0.8157804169869567,0.7985624633235303,0.7321251556089546,0.5984640129215328,0.41306370600530395,0.25258341173049714,0.1690375487387838,0.16270286920289473,0.23535503446509193,0.4175706821852358,0.6673759544306677,0.8401422214724277,0.9162096804326729,0.9450139894873311,0.9464631131643821,0.8997841025731416,0.5658522196191056,-0.3877473472265497,-0.6589373289979855,-0.601090908787536,-0.4882200795219956,-0.4289357234262614,-0.42793034015001996,-0.46337790865306105,-0.5171668582451362,-0.5768496288202031,-0.6307649248702186,-0.673704164535863,-0.725220131547486,-0.7917404087252691,-0.851767132611943,-0.8888314269176469,-0.9036962892160361,-0.8982827443678247,-0.8562597376882267,-0.6626182130133632,0.17457167935285903,0.7823471945395922,0.9039409697283068,0.9358054800858694,0.9446610964668402,0.9442226625373831,0.9405451891090225,0.9419044059176072,0.9563854819052057,0.9669027963462876,0.9442185251912287,0.9107921448347878,0.889521162347337,0.8794921393481631,0.8768264712888876,0.8806578817706332,0.8918649124025835,0.9090567280545463,0.9248517513937662,0.9326909945524244,0.9312522379249369,0.923290101771508,0.9090016082876398,0.8916465562402798,0.8795515069368142,0.8794718794698372,0.8910011344147927,0.9116560756435623,0.9355733700336695,0.9557319525777229,0.9687233498081701,0.975453074846418,0.9781483377226067,0.9784683905774293,0.9771201807867238,0.9746698563104048,0.9704747178496989,0.9559918638269367,0.8671898423946653,-0.17786896829522073,-0.877873653258177,-0.9450936372279934,-0.958986781319072,-0.9609175501123053,-0.9582381346244937,-0.9538346001822864,-0.9483801991306613,-0.9355528851590731,-0.8563874201847423,0.28619454404010897,0.8800168771816972,0.9090850273193882,0.8663956119852787,0.6744571793021024,-0.117371228217711,-0.7793651882695631,-0.9183495004642597,-0.954934071920058,-0.969152133250271,-0.9769935575091825,-0.9822598432628944,-0.9854024277194602,-0.9872461700913836,-0.9883712921352606,-0.9881954374214084,-0.9853544617672055,-0.9780929859447692,-0.9611276474072887,-0.9072557461544176,-0.5642060958806961,0.7057605108638576,0.9418765125623552,0.9759895739022407,0.9846557599369508,0.9850188325031877,0.9776253662261034,0.9582999484926648,0.9238455369490355,0.8711529259080502,0.7761658989429501,0.5455525958497358,-0.020316690239287533,-0.6077922907834066,-0.8297310540788022,-0.8916294996191938,-0.896838665930246,-0.8560345520242698,-0.7244305591190465,-0.428783273072833,-0.09573553493790503,0.03819211115656246,-0.042263031508227585,-0.24496326199437873,-0.43182795237545274,-0.5526734369453236,-0.6234807227436702,-0.672026099117752,-0.7244013031249378,-0.7935119522210939,-0.8539537538608871,-0.8257602838094622,-0.6351050863746396,-0.3182910039819211,0.03289486428923013,0.31090186166438943,0.4522277697304551,0.46505793590332045,0.3801461467472913,0.22125644282355095,0.01288318894403578,-0.20542344315119054,-0.3594536430739775,-0.4087868414035193,-0.3326388990231038,-0.09902431485164265,0.24488174190896086,0.5503011974765323,0.7389556841550924,0.8383594601657169,0.8895356500040296,0.9167865435659993,0.9314202572862816,0.9387097472691013,0.9427000751568172,0.9458705409878672,0.9480455003583005,0.9473028037703497,0.9398233833635675,0.9240876976474122,0.9044770443074676,0.8916861385953742,0.8925328675504571,0.9041659896255791,0.9189838203989791,0.9324771093192707,0.9413458884145115,0.9442168617309474,0.9398195669145375,0.9256625702992114,0.8998956770662516,0.8598270279459072,0.7945322060612946,0.6735425963608367,0.5114648666894979,0.428558603120248,0.4161077726781005,0.2506610735217248,-0.38455623079408163,-0.8583280176662978,-0.9561021710836665,-0.9768973348758638,-0.9810716305023184,-0.9782474146779442,-0.9689898730483114,-0.9514623421415432,-0.9224189976566533,-0.8822918055858531,-0.8372231379430648,-0.805456227680333,-0.8054414174297222,-0.838608693770652,-0.8883203755431324,-0.9337678768501653,-0.964252073647956,-0.9783554155580617,-0.9820543899530267,-0.9804831033501551,-0.9759828044616815,-0.9693996848433127,-0.9601270899369321,-0.9442349739424145,-0.9069425936173334,-0.7808023230649088,-0.18919080207915656,0.6850257975448615,0.907957182646817,0.958412374941718,0.9580344519326528,0.9339329010687167,0.9030288930916583,0.8743674563253104,0.8535056317275258,0.8393633791772733,0.8173729236089073,0.7632768449490487,0.6569123700192069,0.5224862279115136,0.43075590437212863,0.4135026728838626,0.4117069059209721,0.36228372824075583,0.2879173836271413,0.2611704418064174,0.33826957408532476,0.5318791655594656,0.7668414602733807,0.9152240386569073,0.9706452249591684,0.9849850273073477,0.9858288450141311,0.9820340859254959,0.9754359095283117,0.9630560568054065,0.9300273443941076,0.83171429567733,0.6092527039323085,0.2992802505594677,-0.11331192771000097,-0.5945969277520724,-0.8629205756457486,-0.9486657616143311,-0.9727356304585116,-0.9785231813680096,-0.9796221800653528,-0.9776525469966353,-0.9674900852421526,-0.9478944885385702,-0.933127395584119,-0.9323926075987332,-0.9379355207394086,-0.940544920035275,-0.9342673639587067,-0.9100768734816934,-0.8398210028169494,-0.6198327347922974,-0.03131848372702667,0.5532099293927242,0.7832739555819519,0.8642960423093738,0.8963432250906088,0.909437938833302,0.9128348789531548,0.9139014496158263,0.9226961410538781,0.9422407943063114,0.964167809674804,0.9793352159547281,0.9868826742310519,0.9898004936823235,0.9895304097670614,0.9851146084125294,0.967812490426705,0.8575876910053155,-0.1366387894790435,-0.7601441179857281,-0.8433317745720829,-0.8438194451237792,-0.7867391461351302,-0.5126281886427793,0.6194654691978246,0.8719788490450562,0.5740923661436693,-0.5767083820987304,-0.9115077965414652,-0.9663510551261476,-0.9810017891989299,-0.9865000200958126,-0.9888487676043083,-0.9898126548878382,-0.9904754981779013,-0.9910720179758984,-0.9912717218289396,-0.9898906979148925,-0.9846715263482217,-0.9708428597815199,-0.9362358559090498,-0.8423050543144733,-0.5706793668072234,-0.05960515337596674,0.2677464711812979,0.28978489574339816,0.09336730276626908,-0.2744583949744997,-0.6093020104476926,-0.7772370633037536,-0.8397961692841666,-0.8499576688119479,-0.80968357244628,-0.5740284997081789,0.48660993980582673,0.8941752346996028,0.949716622206974,0.9645488174822012,0.9686138548917369,0.9656025866309372,0.9560302624657125,0.9456385072657457,0.9458254573090371,0.9562067248775853,0.9672179497014574,0.9725339161137184,0.9698479118918887,0.9589766245389736,0.9413959457725184,0.9187881908173263,0.898170181484322,0.8908607916724658,0.8988909106371531,0.9086424678800339,0.9057405946227713,0.8873435374484709,0.8585770507305747,0.8306564744480155,0.8138626353433912,0.8067559026687285,0.8042924213068416,0.8009773267759014,0.7947650469127162,0.788268977726352,0.7920277273812324,0.8054676284388745,0.807414394912669,0.7680889419661494,0.6137167837538812,0.15762718162440187,-0.4200205798937684,-0.6547898605819426,-0.6918631544316327,-0.6239840175036624,-0.43550094580878573,-0.09472003562319818,0.24787839064773695,0.42139718617768784,0.4363127325722789,0.3032508508914653,0.06325072403458928,-0.0968208305540384,-0.03812061120257141,0.22937037342191324,0.5568369235154415,0.761506850599761,0.8360581243308495,0.8239774217596492,0.7182130697446203,0.4467937734904124,-0.03306000437500101,-0.49608007801352694,-0.7365672809010922,-0.825505395274139,-0.8607061297617586,-0.8828833792605733,-0.9050699269671026,-0.9276630598143656,-0.946043044767864,-0.9571608823234549,-0.961458457996531,-0.9603479135841883,-0.9555717185208202,-0.9490015652711076,-0.9409125351504076,-0.9278127073940617,-0.8973999011070475,-0.8051941378503822,-0.5261696060982396,-0.29521211626266386,-0.5696249545955712,-0.8135161383162796,-0.8855651377846704,-0.889546768712234,-0.8265027317661627,-0.44774588585232306,0.557278564925193,0.843178407061745,0.8970862314700406,0.9089571745341511,0.9045847776430925,0.8827823589680414,0.8263346662687339,0.6969225210200248,0.44514094167354173,0.19338614634010962,0.24493704828045257,0.633460827469,0.8786889458129187,0.9485718447124919,0.968900498793982,0.9753144553818938,0.9763626011559828,0.9747655987675559,0.972433389355468,0.9710195359097002,0.970370287351335,0.9666800462443454,0.9466325334253097,0.8358803200919775,0.20419687635685918,-0.5400238247705645,-0.7114122599456317,-0.7048187834475704,-0.5960867580319934,-0.41477536668258136,-0.28099926152853033,-0.30469983782435767,-0.4627102990183766,-0.631049436916315,-0.7210090280926597,-0.7094783114996933,-0.4810041038453784,0.293824501784333,0.7925296642700966,0.9067712045586822,0.9400323812066045,0.9513183470215223,0.9516363441994595,0.9380442185922189,0.8813284093548507,0.5308249035278652,-0.6045833995755915,-0.8933309187316095,-0.9474078449595884,-0.9664144615268325,-0.9772873836590923,-0.9854970228512632,-0.9881560592299501,-0.9747983285330555,-0.9325739993244838,-0.861622037473311,-0.7957062669058965,-0.781848642222826,-0.8182218440342074,-0.8609225773521608,-0.8889059217023343,-0.9064107509965351,-0.9202734620245541,-0.9350784466598039,-0.9507739372196,-0.96276633596592,-0.9651710453228384,-0.9454556635318453,-0.8255162831011532,-0.11228982973945739,0.6696194325811324,0.8671060564643839,0.9381195985606278,0.971145325178003,0.9830607942247723,0.9839325796190249,0.9816431667100975,0.9794932190100873,0.9776489406696804,0.9756310051544017,0.9728742134856889,0.9690813997293348,0.9650946361046486,0.9625064152975972,0.9616640404044873,0.9608767070296296,0.9576502128147545,0.9483207613743979,0.9258838327891845,0.8796695177821733,0.8021914264231417,0.6965043492370837,0.5399058240296593,0.0646278479081642,-0.8283428159040451,-0.9686027018086352,-0.9767925185530193,-0.9777917694508658,-0.97968632452394,-0.9823581946067411,-0.9852129046333564,-0.9878974477935405,-0.9901970736087787,-0.9918289387885607,-0.9926550279034204,-0.9924036788141821,-0.9905281581929067,-0.9855303517273525,-0.9739741215726367,-0.9507361104956908,-0.9198307440339131,-0.9001042187392989,-0.8930210787023762,-0.8764379112082348,-0.7945023522455458,-0.2746284865282362,0.7638006677221164,0.935591274317097,0.9646035670628037,0.9723257565105814,0.9745782604474197,0.9751517376441863,0.9750566902447476,0.973724911207648,0.9703595533542064,0.9647202905248082,0.9575242472943559,0.9501158325916378,0.9434022410692672,0.9359687748015992,0.9238191944615816,0.9018108273802424,0.8624254934981981,0.7899454207575146,0.6572277663605758,0.4186285769166194,0.042476589807670544,-0.3623661222281726,-0.6418487102076198,-0.8010855451006711,-0.8892635863502462,-0.9353174187817426,-0.9573998949722582,-0.9671194996952375,-0.9674747683749256,-0.9514675880998016,-0.898657235903907,-0.8067941970792262,-0.7202312014288816,-0.6654116335984321,-0.6289414092610093,-0.583553630345736,-0.49328127454636855,-0.3172836912753314,-0.0636204802361873,0.17696543442062374,0.3295096415668179,0.3889455048615464,0.38729863965835376,0.3570804814845386,0.32767164978918784,0.31345718039330683,0.3133094575538133,0.3165526274113673,0.32091442764968925,0.3168753027921935,0.2698580922955535,0.1485775731587362,-0.058527131919462884,-0.3138168548209473,-0.5336544763424849,-0.6833475533254411,-0.7768613188428556,-0.8301230884466619,-0.8492346986374295,-0.7997652613298052,-0.5137041422376043,-0.06437108135400241,0.2092367004246373,0.3509085756702811,0.43758268897920094,0.5061580555284186,0.5731065132994542,0.6367280354923465,0.6939202921026566,0.7419885932957445,0.7791508746710731,0.8044091238035734,0.8240071768550525,0.8385836210463137,0.8359513111556427,0.7934164615223429,0.69627042964284,0.5532311685200237,0.36262462894490166,0.06308303858747469,-0.43694554962603277,-0.8203169408031372,-0.9279657984383555,-0.9514133968118057,-0.9561380858822215,-0.953877529993633,-0.9465519706617134,-0.9361315393117765,-0.9291807674212066,-0.9331372164463045,-0.945445116858003,-0.9574133537062569,-0.9643893625880134,-0.9650174766448766,-0.9558425131312421,-0.9155791882388057,-0.6031187059135218,0.7356007704960564,0.9357351095825924,0.9585528531998657,0.9579046651050092,0.9507103907345146,0.9421129786985836,0.9327253865936459,0.9239376941936432,0.9138190424539797,0.8979789202240397,0.878490251818081,0.8577203718049123,0.8379190762404639,0.8169246971889685,0.794867792249825,0.77579108325824,0.7656402444731214,0.7666312468333588,0.7726478393552324,0.7729318934746907,0.7588843856640557,0.7233239332864416,0.6621319613452745,0.5764687471377662,0.47408163799234604,0.3673457517235117,0.26735002378617334,0.20316664635584947,0.21510555408594667,0.3238343273309123,0.48963096354846225,0.6299378109295254,0.6962457619607952,0.7059107684123832,0.6880420454494202,0.6676009921106466,0.6578640352394113,0.6601482228867306,0.6653977180137262,0.6634778579396444,0.6475428743187149,0.6113518651424802,0.5582794289289708,0.4741609085190158,0.3350520913528433,0.12153834308740763,-0.15108566021488778,-0.39896705885671785,-0.5659170377483991,-0.650766314128503,-0.6843524225827835,-0.7032797317980138,-0.7261224012068382,-0.7462677508351763,-0.7534324455416024,-0.7520101007660119,-0.7478723497052339,-0.7404866494059756,-0.7235598063233127,-0.6901515921649907,-0.6368296565741962,-0.561644046696299,-0.4653333726941207,-0.34984532135283686,-0.21592142773917788,-0.08573637898248834,0.009702134571757356,0.04927658092747127,0.048264711505528586,0.0742575205859252,0.20513956550985762,0.4675618351878863,0.7486552521738601,0.9078058122954452,0.967358181482589,0.9840700343624318,0.9863963306722836,0.9851550088883658,0.9834609701487518,0.9820919735804882,0.9810561417489384,0.977228309584324,0.9652462522217109,0.945382005571067,0.9185978902930151,0.862607161737953,0.613736268132755,-0.4844918187972109,-0.8883606260947775,-0.951401224652267,-0.9719723994393425,-0.9818868020279661,-0.9869535301472783,-0.989215134648332,-0.9894473610794999,-0.987478312154893,-0.9817867060928334,-0.9680599813472002,-0.9337989071778399,-0.8397140996619119,-0.5917020992986542,-0.17480983198506894,0.18397544632633483,0.4471557168082942,0.6814737016772819,0.848777865962835,0.9278433313234439,0.958047970156889,0.9702079753589602,0.9756835153776646,0.9779530421451292,0.9774040034597299,0.9740702170557622,0.9679333168675873,0.9583573445410641,0.9421772285701431,0.9121771580106394,0.852552239371553,0.7246984893388136,0.44686846069426306,0.0017351698361648864,-0.4179856714386672,-0.7177029573131322,-0.8827858650465761,-0.9476137430333158,-0.9696009769280702,-0.9744052201002653,-0.9647173661870911,-0.9393035249736804,-0.9101349963564092,-0.8919851123346786,-0.8840070336099894,-0.878363519820884,-0.8669433311427872,-0.8412996430210954,-0.7849794614226484,-0.6436988508087985,-0.205451379809441,0.566706235284229,0.8704575904009023,0.9398916267574489,0.9589899542418608,0.9634059377259795,0.9602210378384061,0.9494807250430924,0.9288172887121985,0.8988126745817567,0.8737990192771258,0.8723196589981036,0.8859780738443784,0.8968408865096941,0.890065991016218,0.8311195097962635,0.5187273864700825,-0.37100272627535635,-0.72631407137698,-0.7737918042287344,-0.7273772535059518,-0.5982536150900554,-0.29411177724693405,0.36313129692520524,0.8629316010317328,0.9773779332789774,0.9804011565786003,0.8761718387319376,0.3135975612248301,-0.4226357373357867,-0.651694129951371,-0.627052470227531,0.016422162342420284,0.8418323541097559,0.9348390886654062,0.9496038625663106,0.9516820966680417,0.9486280684432723,0.9428083045995431,0.9372400282420131,0.9324636963744912,0.9271419030976429,0.9185350779701729,0.9034953700821108,0.8772405063360227,0.8265930413275877,0.7165956326074246,0.45777204217055867,-0.047137105702580534,-0.5474861861059452,-0.8048672709375568,-0.910457377837472,-0.9502480656914106,-0.9666259791715986,-0.9766556845949508,-0.9839805026142836,-0.9887715568168287,-0.9909713667798464,-0.9911024384294606,-0.9894656245211669,-0.9852607297146461,-0.975940177147058,-0.9521701595012553,-0.8677401126718851,-0.41502925173761784,0.47740882547542834,0.7436092385151126,0.7959167438186641,0.8164014155520368,0.8774248913609388,0.9571445009367706,0.9673193089535347,0.9500348434149979,0.927278006666585,0.8618541622690487,0.32867282302833234,-0.8021017857948387,-0.9221094885043921,-0.9309752722186814,-0.9249995688753917,-0.9233042606371409,-0.9258024944908947,-0.9204061826226304,-0.873709735370462,-0.5295154078591692,0.6287370577233166,0.8684166298196477,0.8899878470032699,0.8604746691103622,0.7980932677295047,0.7276679768819238,0.689744692488435,0.7050301451311911,0.753148323140571,0.7957486353310564,0.8152713519487229,0.8210110937891938,0.8362578040346117,0.8671396650707266,0.8854873731994364,0.8600291011592758,0.7222877688761287,0.4071523383308661,0.3138988630278034,0.5533356367568929,0.7433459019664262,0.8295187166691114,0.8675736660369054,0.887845471276988,0.905701928248868,0.9280991995443069,0.9504697801942668,0.9661536397140342,0.9740502107434433,0.9767443437770991,0.9766455707329772,0.9762087563292253,0.9769642718177006,0.9788570316013943,0.9812688002367517,0.9837471953768132,0.9853610841180138,0.9817318612269816,0.9401428054682763,0.08733254612614681,-0.8527497502695555,-0.9349099331788397,-0.9563099410235844,-0.9660923972279842,-0.9717865679938713,-0.9754832008194202,-0.977921304910376,-0.9792151159830138,-0.9795508494040471,-0.9788831358879607,-0.9771706482046816,-0.974658446032908,-0.9708510481580908,-0.965313893519843,-0.956245487748865,-0.9364010264776804,-0.8542858474564069,0.5876538071165437,0.9899627504913094,0.9896506020688165,0.9818441794518308,0.9731941627638215,0.9649952926953383,0.9580037005091554,0.9531705760867131,0.9507033506021855,0.9492337814034341,0.9462488435963047,0.936692648462301,0.9128487312357298,0.8670323510583017,0.8040187386235375,0.7394481501022739,0.6780503643111767,0.6109135873385606,0.5270380353345756,0.42087333005502287,0.3238423257646697,0.29820348091946064,0.38783668370382646,0.5917883957304291,0.7767325763736541,0.8433338779376102,0.8373784135353167,0.8030638905804993,0.756420198297654,0.7009680445610948,0.6391194274767718,0.5690307439684399,0.4715111679924478,0.30325906951341763,0.01537719319289298,-0.33927382362321273,-0.600237095532451,-0.7327152370920071,-0.7551786266713929,-0.6072695024444252,-0.19888686002381745,0.21159675189609325,0.40802120681059695,0.45491221088566175,0.40656822135006493,0.29679248509129236,0.1676355881596895,0.07972561758805437,0.07389120623322906,0.11984655883943028,0.1708853677290455,0.20998709087377615,0.24265327070699405,0.2698456726667936,0.27765241415652875,0.25203540086652093,0.1971701454345263,0.13140768469871159,0.08748407151435314,0.08395153697316293,0.11006195939210095,0.14775434402242904,0.17953714632011547,0.19078712075594445,0.17350855280902372,0.12526957373132103,0.04816077374195529,-0.04240364073544519,-0.13213039038568472,-0.2064232081719713,-0.2656642243561963,-0.31523245468640015,-0.3613893093956419,-0.4020969194782192,-0.43847089985222804,-0.47124023366436135,-0.4970228238380656,-0.5061644970210099,-0.480134139127633,-0.38785310234786763,-0.23731948348369572,-0.10211346530958537,-0.05170728916782444,-0.08625824949895718,-0.17132900178277977,-0.2714341164547905,-0.3579233272643061,-0.4190637742306846,-0.4498967416908693,-0.4649302309889067,-0.4794149975633891,-0.4909982631104537,-0.49852190887696357,-0.49509642634109857,-0.46671040994457597,-0.40711747602819326,-0.3129295442833285,-0.18274901158682308,-0.017187231064660028,0.16716885758165803,0.32704904184646577,0.4315199130915974,0.46903306389394006,0.4249350017242817,0.26060643601349903,-0.04417850845435817,-0.3664211324975273,-0.5674823344077932,-0.6720084690421088,-0.7325897885905587,-0.771200580546189,-0.7932820558630648,-0.8025887441346155,-0.8036741995558061,-0.8023179367864158,-0.7986143314628859,-0.7888448739369341,-0.7681934639837982,-0.7328716448936006,-0.6894707493905453,-0.6601276862519224,-0.6672222203156467,-0.6941311881750413,-0.6915560680421484,-0.5548991939820236,0.1284205236590471,0.7524089891500729,0.869224068744035,0.8889546710356102,0.8781915020803761,0.8489226906666715,0.8144903392896715,0.8022985838085784,0.8233021137146865,0.8562401402802211,0.8819296933430769,0.8940859507146072,0.8931010268401061,0.8806789269485906,0.864358103649512,0.8578088100498349,0.862874017063773,0.865435243497706,0.8515361478064136,0.8022614739008674,0.6523360720882629,0.13647315474338828,-0.6575712242042837,-0.8928252953289287,-0.9394975745528478,-0.952299001786322,-0.9566260429463023,-0.9574426589775092,-0.9552214188452768,-0.9496714844535801,-0.9382434420234269,-0.9071012272788304,-0.696723776500326,0.9051378056595707,0.9771816198490973,0.9714250699254073,0.9620233029379425,0.950066148183488,0.931127694334281,0.8995760247487543,0.8558657572104392,0.820090337155775,0.8070784764953054,0.798362110617507,0.7632013356968722,0.6671246082187825,0.44444122255826857,-0.020286262119716122,-0.5940873563314077,-0.8650567094968287,-0.9341036583299787,-0.9555941980914936,-0.9655561911255334,-0.9686933766594046,-0.9642743461001664,-0.9417885949177236,-0.8227211991702165,-0.009385387233586338,0.6856377992263406,0.7802301382263391,0.7790368071186825,0.7799143335578064,0.8063816109400381,0.8507765773877557,0.8927447635237398,0.9211799786228888,0.9394367688973524,0.9530281864473726,0.963871639274011,0.97273957373416,0.9800697222845886,0.9860804113074514,0.9911715369389472,0.9951471409012322,0.9925491340989769,0.9458060242636739,0.6733724193963588,-0.07692679550006912,-0.6570509469275554,-0.8669750791904814,-0.938094359034341,-0.9657845118724458,-0.9790890218061712,-0.9869643423767274,-0.9923538218725757,-0.9946867615367038,-0.9835361055041798,-0.8792026394435372,-0.16643066854658878,0.5628264105845733,0.7113034145122832,0.6538015920473733,0.35388966855696224,-0.15608936901497167,-0.46174828439744653,-0.5265174866384704,-0.4252410119857816,-0.1571875230718594,0.16665526464091773,0.3815126609334901,0.47856761040880835,0.48571962245595524,0.40238074006976493,0.22258833654162655,0.002520094559917318,-0.1391892010955701,-0.13123798832372258,0.04415355848608135,0.30969778461239106,0.5312591736893589,0.6690813765655395,0.7595798695475531,0.8322063861323731,0.886853876193504,0.9215363664127749,0.9422319102471127,0.9552080704780792,0.9640469996930262,0.9706048704373742,0.975915360829931,0.9806691035682463,0.9849619134252441,0.9875857785131795,0.9860860397869179,0.9774221361583336,0.9605803074370053,0.9368068704815034,0.9023170973489888,0.8397210447819824,0.7035039647160162,0.41380483184801164,-0.07329468718380326,-0.5892972684302502,-0.8538010303287336,-0.9319389982747986,-0.949807820582956,-0.952323630476279,-0.9521428519272894,-0.9534713156402493,-0.9561477178101762,-0.9577978396504427,-0.9563948292694536,-0.951049448842075,-0.9428689932753651,-0.9372759935801415,-0.9405478303404322,-0.9493920462949598,-0.9554868503910733,-0.9511794034310647,-0.9179597661862545,-0.6384175132862805,0.7274300771974631,0.932993476403357,0.9590197553769856,0.9637707358313482,0.9617477521319191,0.9538920922554717,0.9403583189120039,0.9249067627694286,0.9151011806435682,0.9159415648998998,0.9272993431960238,0.9461639906314453,0.9670402377814219,0.9825692642852696,0.9901843229683196,0.9932557240334731,0.9947341292012235,0.995610035176438,0.9954721583645066,0.9923324547186215,0.9818540602468417,0.9616075426780529,0.9401778448212655,0.9251774559629902,0.9067558576223734,0.8428351354759589,0.42471888402973795,-0.6812829737244496,-0.9170686412423943,-0.96362608699675,-0.9792839265288982,-0.9853318203266213,-0.9870834521488736,-0.9857443123714467,-0.979696869012509,-0.9625295439292879,-0.9336907893357288,-0.9164434704750954,-0.9178948498652866,-0.925540215183186,-0.9311913982298918,-0.9301573251058182,-0.9119820166821109,-0.8030218602512597,0.549476139405011,0.9638345348895276,0.9818233163543365,0.9832675514385476,0.9820902561103956,0.9796789284268559,0.9748817100366566,0.9658390126702512,0.9509638668952013,0.9318987265138077,0.9089561461686919,0.8779728653715977,0.8268622111338126,0.7215134757981615,0.4471232276116233,-0.19162909505531384,-0.7353539352780378,-0.9071491840236221,-0.9491300305471245,-0.9536994386657612,-0.950841423916853,-0.9528713060188565,-0.9590948595250708,-0.964288695198841,-0.9663445731047962,-0.9642887756487812,-0.9549890501143223,-0.9318124545010412,-0.8807040335385675,-0.7749505972788274,-0.5828964281541131,-0.3490687635502485,-0.24031401628015733,-0.31991553295135683,-0.472577470519931,-0.5482631431086281,-0.23932476036483458,0.7883571311210891,0.896645393279257,0.903459619620963,0.8926170266689994,0.868316213066631,0.8291049679866245,0.7808409842979002,0.7410986740639802,0.7328269721681858,0.7594520821780275,0.8010428800087258,0.836651813349928,0.8582006496813632,0.8687504670989233,0.8715801543566475,0.8694313721071741,0.8677126798347922,0.8689567241002024,0.8719072051213226,0.8723942642959632,0.868633177787054,0.8620068819950173,0.8559328472367866,0.8465534940680576,0.8173750178662634,0.740332708853017,0.6067550168289486,0.5179854561556299,0.6056669605344892,0.7751675341133935,0.8873249329020393,0.933046217458251,0.9381415693326078,0.8993362859417694,0.7715780666758176,0.4842417043791429,0.0228613607070234,-0.4608567988915153,-0.7553564238732137,-0.8852874475983575,-0.9391015925747283,-0.9597503162980441,-0.9641203751288062,-0.9602350864920256,-0.954694301639576,-0.9499000599746219,-0.913450428563463,-0.5607512538919694,0.3522543630005392,0.6306367535505544,0.6326766940082313,0.5099244847261376,0.30223817654986784,0.10637477092618104,0.06366651545922755,0.2125625634835268,0.45349952486695577,0.6213100231991051,0.6608213264246227,0.5109872530830589,-0.06126680282785308,-0.6687680265874222,-0.8723378822403383,-0.9318791010464563,-0.9436455628392214,-0.9211939685497174,-0.8307678502657109,-0.5479188168875345,-0.03316975771600024,0.3104997548551625,0.3970240585111674,0.3106119310271312,0.10713181823635334,-0.09433424931139539,-0.17968465758289026,-0.15544413727424042,-0.07069216767327009,0.02824513704617497,0.10695231216840019,0.1298567380834967,0.08920829003105799,0.025999377372142557,-0.0016203113029474385,0.04271850674847383,0.1794989289700323,0.4023251033854966,0.6248341298695658,0.72268858813568,0.6804489487105254,0.5809054648247565,0.4787556766718182,0.3906628990699972,0.3275450684855165,0.29521659631677144,0.2774152270641255,0.2619844048978729,0.25219580975440087,0.24011442712704129,0.2395634904045232,0.2453734666882313,0.2625666035757552,0.32263996370782083,0.46328345104421087,0.6502815057672942,0.7646296368437555,0.7866550015584893,0.7546980959706454,0.6764294990931643,0.5595948138475498,0.4585435654533276,0.4470521305960147,0.49400323371630317,0.49512130202788385,0.3693308236468698,0.050122074986529264,-0.4073094270366273,-0.735907609281037,-0.8791605801142732,-0.934788821132537,-0.9588641214768918,-0.9702601127274877,-0.9743539212292209,-0.9729062749007807,-0.9657940116088857,-0.94913905469823,-0.9059565258083332,-0.7632832615230201,-0.2563838771334552,0.41664486008845836,0.6901028073887638,0.8068900632268036,0.8898364163754763,0.9486146622198038,0.9742640594020981,0.9755273258863294,0.9629110831641342,0.9382649611683896,0.8931988928054767,0.8109906461511152,0.6763889682959469,0.4894881898703367,0.2435874936393512,-0.14233070591288197,-0.6066707581610997,-0.83594637761495,-0.9053306648187417,-0.9252887984073721,-0.9195600379051035,-0.8650956606280916,-0.6085368646184028,0.11976891660980475,0.5894943717306336,0.7316180516236488,0.7609652574679979,0.699228888696007,0.3242170755575171,-0.7069381372458683,-0.9625486767739376,-0.9912776479616561,-0.9930312814585771,-0.9613651277620343,-0.01187360663190414,0.8511808032433822,0.9222776118755452,0.9394505675194919,0.9447101403708523,0.9462581975122871,0.9471693186413497,0.949179585625652,0.9531668738539825,0.9579553116390146,0.960571103774201,0.9585485776896366,0.9517231214158537,0.9398999295804005,0.9190599699915193,0.8717575262452373,0.6998432597709331,-0.0378860076569569,-0.7189828225571074,-0.8888588268438647,-0.940756754550364,-0.9566783476324717,-0.9584303610092069,-0.957056716375779,-0.9583098499097512,-0.96293722085464,-0.9690092790387058,-0.9750605394562696,-0.9803399298808156,-0.9842298415695242,-0.9842870270055485,-0.9687752984359522,-0.8513950431878574,0.01758284099467817,0.7429578263662088,0.8839832581811317,0.9258511324275831,0.9402935614564649,0.9409559131483676,0.9313702154002049,0.9122504433109462,0.8743931242200438,0.7705283605451053,0.491981134100536,0.1114756963492053,-0.08862250735005532,-0.08606127016334787,0.12392379717665708,0.5691326308448518,0.8556886805819857,0.9224689159979785,0.9419220584903949,0.9529152253413083,0.9597172208472023,0.9623765535448061,0.9604504519959626,0.9550017089063342,0.9488538138006484,0.943377711837334,0.9383258014791784,0.9330567221733934,0.9280911651537376,0.9234545294335077,0.9177314923852737,0.9074977296389738,0.8860743831653716,0.8382722108300928,0.743755818314766,0.6181352786674129,0.5137620164716722,0.39402114808780275,0.15347326985891582,-0.281531951057866,-0.7032456965938052,-0.9029195723056449,-0.9675767736425981,-0.9823135064935209,-0.9810233196382018,-0.9754825379423467,-0.9698598971150421,-0.9658152892999242,-0.9635975401179327,-0.9607346346922411,-0.9516545815548315,-0.9228051734656237,-0.8425632551139632,-0.683785277979049,-0.5305322452620671,-0.48739047106034367,-0.49597955785791065,-0.4810982727366067,-0.4794470759143789,-0.5802427086356304,-0.742860103481955,-0.8536095588975684,-0.9000340143644264,-0.9054076362916176,-0.8696170352690501,-0.7596998881127202,-0.5630533990944834,-0.4308415742495031,-0.4540432863241693,-0.5149988275298037,-0.473893554950316,-0.1728041213730071,0.4287418102709844,0.7746507662593725,0.8815725542218914,0.9185244678048373,0.9331981993608428,0.9382106630183752,0.9368931291221164,0.9311236285430898,0.9225708528729066,0.9133521233073759,0.9060186455368459,0.9012517344185312,0.8977499212933528,0.8924409602914944,0.879429368770886,0.8470308289268423,0.7713945233285612,0.5761694917382506,-0.006238119866716426,-0.7663620745542429,-0.9621480006238403,-0.99169444947403,-0.9912074051069336,-0.9788358909353401,-0.9549581143831231,-0.9266173009008215,-0.9125728933642745,-0.9152411702121503,-0.9208355716529553,-0.9207732804892801,-0.9093122781885947,-0.8720900944363082,-0.7615481652592913,-0.4304403774688324,0.1372825673119041,0.4480874770544343,0.4717017325717109,0.29800332911928346,0.01813655249761521,-0.22436540114855394,-0.3617556673466846,-0.3999288895513749,-0.3340637287468695,-0.1262024720517227,0.22834868191008104,0.5242305030891878,0.5839369695342574,0.21329638960363378,-0.6163593786603934,-0.8731905795811827,-0.9295369699874483,-0.9448597465360616,-0.9408309182048558,-0.9085985130001112,-0.8003209277277515,-0.4537354239170244,0.21191526572711136,0.6408421295609178,0.8053341087283978,0.8515982789038384,-0.4097866576073584,-0.778915470294578,-0.8635370574092853,-0.9003103230796508,-0.915054707387731,-0.9136260336803628,-0.8932950171400919,-0.8327809250748565,-0.6360769406348026,-0.009086162103698215,0.633789189917573,0.8350806708555559,0.8941384896909297,0.9127302978803182,0.9179422127747728,0.9183237900675699,0.9152579931572192,0.9098662500409288,0.905412468901191,0.9037243902393954,0.9045502090654175,0.905263541390205,0.9034682816971858,0.8968932856349998,0.883405804195159,0.8606018088194248,0.8280941150855254,0.7887894466769695,0.7558637362237953,0.7569532765806039,0.8127569626583867,0.8933950797435488,0.9491188473332061,0.9714132827840491,0.9690483502005822,0.9323090208875473,0.8017856882738553,0.3617269353501188,-0.38840553912247266,-0.7469034057790981,-0.854899001134476,-0.8838647467048499,-0.8610093590067504,-0.6651640355064962,0.39066063919299304,0.840000632210653,0.9064316242265974,0.9247406828360086,0.9313938213275854,0.9320820772464821,0.9258417777431183,0.9092837527606519,0.8792180232086485,0.8302264054895973,0.7561771511050402,0.6424281345315429,0.48855522941678636,0.3296797709380564,0.15380387668221715,-0.11802699702984919,-0.46334383949571323,-0.6930224040275706,-0.7840301378659543,-0.8177288513498298,-0.8387633542775945,-0.8464763242982012,-0.802644982009036,-0.7061734783297126,-0.5921033124822285,-0.45215415744316056,-0.2885175103898708,-0.19648139069556672,-0.3389757636279475,-0.6615768072249248,-0.806154567105234,-0.8188038431249706,-0.780225738652123,-0.667580869040209,-0.3170012645286606,0.34704028900592876,0.7190137829635042,0.8592826629663546,0.9154409722286191,0.9225447685089444,0.7838511151585706,-0.5817530725212181,-0.928220258589762,-0.9688969514863346,-0.980906655960692,-0.9833085187997312,-0.9731450724215331,-0.9323599077007382,-0.8270293394562035,-0.6481050348817975,-0.4740299262576641,-0.37943651503137515,-0.3447419748548982,-0.27966016454217263,-0.10034128485818108,0.17037597309961935,0.40808643180608173,0.5577924179462863,0.6354565219037773,0.6466442168273793,0.5883011208592225,0.4759765753780567,0.320815201598201,0.12987913867896103,-0.06045107790682964,-0.21372709271239612,-0.3346659361245511,-0.4617242791675537,-0.6065130187637294,-0.7335046110956992,-0.8091435786344355,-0.8410554587780201,-0.8527568671342931,-0.8619333471444655,-0.8759460648009496,-0.892998009900006,-0.9089814729665332,-0.9195411766236805,-0.9147987473786935,-0.8365916695193336,-0.26572339258123107,0.5522511412386727,0.7749575895243722,0.8461267295128378,0.8743836506092115,0.8810962123124468,0.8771792498789236,0.8698355317753338,0.8643342373610396,0.8650751844982845,0.8750771861039413,0.897261851086834,0.9239378393539321,0.9449924296292737,0.9580778831299305,0.9651683736294923,0.9684335497315116,0.9694186977786098,0.969758302411491,0.9707645570517172,0.9721476536969277,0.9721065511464616,0.9681176679490385,0.95516174300673,0.909163007366126,0.5743158993958445,-0.7210705598185025,-0.9303108539229514,-0.9574389276393572,-0.9613810438250178,-0.9619342247752487,-0.9644333096982505,-0.9677059920943888,-0.970178705329019,-0.9718085405771216,-0.9735242764030592,-0.9756361637095242,-0.9775372612370143,-0.9783350797781997,-0.9768574018910108,-0.9715605395094191,-0.9569278386428935,-0.907118142436979,-0.6583526115023428,0.21499422365881155,0.6585832248355085,0.7377905661306283,0.7388033618840819,0.7600120917829841,0.8304861985997878,0.900181796505108,0.9379112700095308,0.9513514121699432,0.9499302824367528,0.9335045285475041,0.890284096761965,0.7962434469468146,0.6354950583360065,0.48831001485151804,0.5039167161257849,0.6780984781346958,0.8300129378032309,0.8993517418411094,0.9261042484633939,0.9351119209506438,0.9344068747109836,0.9276249788952785,0.9172377004682205,0.9066564183934925,0.8995801803439623,0.8964909218163929,0.8958033845698906,0.8957038507620144,0.89443806292118,0.892034359638225,0.8883165483891303,0.8818173916819427,0.8722326990957588,0.8516045135052001,0.7798701797837934,0.49604558393102566,-0.0515757724013458,-0.39371910097570517,-0.5327693072951409,-0.5980536619600064,-0.6513830380818714,-0.720868163783656,-0.7998934550389265,-0.8610035728640338,-0.8946906095548013,-0.9064547113423255,-0.901741655112882,-0.8800978506533554,-0.8416188850125114,-0.810287332397051,-0.8327975332257566,-0.8961887040730976,-0.943306860507256,-0.9642242471276475,-0.9701768943962311,-0.9677229202760849,-0.9543248883270742,-0.9048766342221637,-0.645644036163125,0.3046854334100038,0.760460276330807,0.8540046279823428,0.8718221572893218,0.8682989663725558,0.8621136881441366,0.8620603363485446,0.8664775627960317,0.8708658373602034,0.8745026572511722,0.8759281803054318,0.8733973732697132,0.8663635412526982,0.8486155043586181,0.808581120302831,0.6979584422125762,0.30723312641822625,-0.4812159070034974,-0.8207592545310409,-0.9021686475078161,-0.9181821215132105,-0.9090796655123202,-0.8944787314889582,-0.8927011293972507,-0.9050350835129757,-0.9164399630546611,-0.9130082838907436,-0.8892611409162267,-0.8342740229837547,-0.7144596107215215,-0.44431578949837125,0.07967096126102485,0.5857056219073228,0.8298980460716352,0.924511016333376,0.9605988861257805,0.9746468090806722,0.9805380429633906,0.9831331550232397,0.9840303364636966,0.9842799111628019,0.984705858606315,0.9853942399362363,0.9854897300250828,0.9826314636150885,0.9723318601774693,0.9421796649509945,0.8331485575802143,0.07947537992470781,-0.8611030621939324,-0.9624430079393447,-0.982440876935187,-0.990258560656771,-0.9939014403782876,-0.9950238069558839,-0.9935499448832776,-0.9874526203474255,-0.9709450326975332,-0.9297315564974706,-0.8374198959399628,-0.669046198666654,-0.47121286677154545,-0.40988361534194795,-0.5602030313563676,-0.7313068922823646,-0.8118495831616381,-0.8458338593277057,-0.8664883142205844,-0.8885813732851175,-0.9124094739764497,-0.9305700985219043,-0.9378303040141662,-0.9340270183323753,-0.9198453009969908,-0.8929432110811215,-0.850500632681807,-0.7935623719505026,-0.7468881307914507,-0.7664290894534923,-0.8445624835227388,-0.9053938277276072,-0.9312737986537961,-0.9322413225498306,-0.9029964745256641,-0.7326974991736114,0.4243224870474245,0.9296917834959334,0.9836431086413348,0.9942952615292121,0.9955576646812596,0.9956084125745475,0.9957331277830818,0.9935824881787824,0.9876277865918853,0.9765400923001397,0.9572961992338631,0.9267840892618318,0.8848839720404161,0.8418766984058875,0.817682971136627,0.8177747205488258,0.8326549925269826,0.8611991097608285,0.8918073908876188,0.9013011804917721,0.874175821122574,0.7917980827243442,0.6327474245250355,0.44816047133239456,0.4041431873042567,0.5487667427686319,0.6907796675530485,0.6750122960538849,0.33330656825962285,-0.4487042711930232,-0.7642502296233089,-0.8275303951287317,-0.8256363793287667,-0.775013565463356,-0.5634093879095651,0.3450529179957395,0.864316753902701,0.9296157730598988,0.932422377053754,0.9082924372352064,0.8179650695548117,0.2982087702072771,-0.7812750244507523,-0.9620283047871184,-0.9906814548317737,-0.9948551131822675,-0.9925047669519295,-0.9914628410565849,-0.9927118833761113,-0.9944860205158937,-0.9960510122013148,-0.9969380858820156,-0.9956090234819078,-0.9896551079270367,-0.9775209345990942,-0.9564953327064409,-0.9034330171317222,-0.6679885999906746,0.17446950123352922,0.7003797338921396,0.8411276454878671,0.8911691572696511,0.915150935735461,0.9293024912734164,0.9389662486274989,0.946997398921743,0.9541867007203488,0.9596049092698004,0.9620948953442351,0.9599577375645295,0.9508733501116962,0.9278397267927462,0.8651952457787085,0.6566794553464329,0.0033770752794758073,-0.6714219218336303,-0.9042600590116874,-0.9618437318184277,-0.9552335324631941,-0.9421336138370112,-0.94220055228418,-0.9484584008749295,-0.9545687308816564,-0.9574839099722349,-0.9532644741144259,-0.9203028805573953,-0.5225671374209127,0.8216036025961432,0.9525686668474682,0.9769956104252335,0.9851159895809763,0.9875996158467262,0.9878651310590619,0.9850995112665019,0.976350524231009,0.9599364926358835,0.9309580523607734,0.8722015975887434,0.7266255473510211,0.3693825626228841,-0.13378349186789998,-0.48599220160434586,-0.7162042800577483,-0.8574477858423419,-0.9229044870497283,-0.9483433350016579,-0.9524088226475632,-0.9324906068215235,-0.8428992151450965,-0.47781664868995577,0.14500138791501055,0.4073079780005994,0.44820880194417595,0.45456769627984184,0.5118515042693786,0.6099943318378813,0.6949410889614396,0.7377594056692021,0.7314191464451331,0.6593714660586724,0.4745880241762991,0.09663162515720747,-0.3937418529685198,-0.7065825387110659,-0.8387582242759818,-0.8929127056252686,-0.9134772272977548,-0.9075718634788925,-0.87768940402029,-0.837341693870785,-0.8019812070398772,-0.771095423220284,-0.7264403406213906,-0.6424260373051713,-0.49031464407750874,-0.2444442094747451,0.08120638798930349,0.4135175225206021,0.6656514305883579,0.8133934501664739,0.8882463129602802,0.9241556525656855,0.9401464219940521,0.9459931017243278,0.9464530724858821,0.945465585890822,0.9471863481524052,0.9525765302522076,0.9582602349950512,0.9582960935444998,0.9421539919968822,0.8867122434442021,0.7558080270985968,0.5860989985484701,0.5104656605307307,0.5373039247682727,0.5690178129707327,0.5255843671815018,0.3491396850425426,0.037092336719183334,-0.2551833883537589,-0.37827503573479215,-0.34191483645794873,-0.18839617721456545,-0.010010670654413948,0.11794325384934032,0.22637426736160596,0.37371920291348193,0.5495905898173716,0.6976536818852943,0.7950006768707831,0.8503967213668954,0.8757594212463199,0.8825949404189454,0.8781915688955882,0.8661150779744111,0.8481230339403123,0.82277706238627,0.7911134484252279,0.7539336299046343,0.6946000425809974,0.5488440388012585,0.1374971810811871,-0.5466987835932456,-0.8705132023518604,-0.9564104951335178,-0.9817945011716122,-0.9898914082024184,-0.9915307191770458,-0.9895648176747713,-0.984519466334846,-0.976273302139864,-0.9648414853255449,-0.9517725622263863,-0.9395508413332595,-0.92997004211188,-0.9222502871116399,-0.9153891065363547,-0.9093549425027946,-0.9041946355541943,-0.8979123823656915,-0.8869313648240971,-0.8723941979723641,-0.8585550723678151,-0.8444092787708972,-0.8198791992800899,-0.7449920424973235,-0.3312048324363888,0.7797167315421798,0.9339935010944908,0.9482389458742934,0.950764447282071,0.9525783244519452,0.9544114987245254,0.9553072783800209,0.952224133994533,0.9432317129938153,0.9269552608144085,0.9057925011969084,0.8881052201190934,0.8787727713088027,0.8742151811522463,0.8665365048609882,0.8448212485281479,0.8006880731230036,0.732709822738583,0.6552563503492499,0.6106834089804667,0.6532405712212389,0.7525593287066755,0.8384933143002523,0.8928677320428609,0.9249302633943031,0.942255181230202,0.9436407908109053,0.9021581136194861,0.7548333362773385,0.5554680005087647,0.40202006604886087,0.13360860394506469,-0.4021088912996977,-0.7933618426442495,-0.9184964211568392,-0.9513315433352544,-0.948465983476002,-0.8949501720967123,-0.5840803891177926,0.3971440367854491,0.8024024586275067,0.8970965431688045,0.9272138889875122,0.9360331893702665,0.9336201596011441,0.9246362484970917,0.9129355601256639,0.9009085331109857,0.8913039522950054,0.8833802207293284,0.8707221908615151,0.8446293659715716,0.8110116745999396,0.7880943426423019,0.7764690327643323,0.7687719511360028,0.7596899399018812,0.7488125489047143,0.7434113907670927,0.7475513510158694,0.7579318904799516,0.7647890304487933,0.7641829363438443,0.7540337222360184,0.7300651399202722,0.6826924769178065,0.6071152237139409,0.5204802841328894,0.45559873341660206,0.4292294668011443,0.4433717411747756,0.47478648514269656,0.5048320977956835,0.549399120399339,0.62243336133392,0.6649973470420887,0.6366325596865039,0.6353358350309052,0.6752463187877665,0.7236846400094957,0.7367817908190498,0.657626151721829,0.44083245758198647,0.12783259994290627,-0.1671801150544223,-0.3919265689303016,-0.5647065953870408,-0.6980843792415019,-0.7909112661639897,-0.8469310170307085,-0.8761073444716146,-0.8929549849273153,-0.9132876868552833,-0.9368281641330857,-0.9529031709261188,-0.9571112947958992,-0.9524951384545673,-0.9389996208007356,-0.9094830196739456,-0.8548061383537516,-0.7747644076306919,-0.679720154557022,-0.593029715731363,-0.5336020429561843,-0.4888403670296216,-0.42454090756080254,-0.30218673570993315,-0.169825579239385,-0.1997986607602398,-0.39935233217041183,-0.6062828743435872,-0.7193388823527095,-0.7541351037873091,-0.7334435564122621,-0.6656272548812668,-0.5692240010857048,-0.4967629429394745,-0.5153097105560027,-0.6261341120922029,-0.7490807268034441,-0.8229667124986199,-0.8475596522898622,-0.8262023604608906,-0.7158211857960648,-0.3502552507538442,0.24229497565537,0.5305963388532429,0.538191295689633,0.199845394135792,-0.406953748940025,-0.6166422615940901,-0.6275082653831039,-0.5792414743208955,-0.5219010530016145,-0.4870788126339818,-0.47755163537662604,-0.4882199943859977,-0.5201602730278972,-0.5777412511037212,-0.6527844579112835,-0.7225315795243707,-0.7708048200179793,-0.7881028355519615,-0.7607204199799632,-0.652628966234553,-0.40517615569773013,-0.049832818887031394,0.20701672755007616,0.3114632089875069,0.3707642981127942,0.46872315915075924,0.6022950770882073,0.7193635521363531,0.7884815223385753,0.8099655064608431,0.8005458640576467,0.7855231273381692,0.796020773772837,0.8359316524844825,0.8705172779106116,0.8802181573014134,0.8660142704613882,0.833534722572511,0.7998591082496462,0.7685128926355612,0.7154611812713381,0.5905515312412233,0.37728531996977854,0.1958561027082183,0.1935102034012679,0.3453062344314173,0.5524471804624702,0.7513987950556934,0.8775577174811007,0.9298441954656194,0.9409201759435408,0.9177206244539866,0.8072592666700038,0.48023433311325886,0.26750216937169324,0.5112900030745824,0.7870856807570523,0.8944956819864299,0.9268354962538623,0.9285314377048403,0.9028443010432904,0.7966003759596814,0.16204729256727662,-0.7904319561912522,-0.9366930283818414,-0.9656155814501253,-0.9765693092218962,-0.9818815791307121,-0.9840813385540916,-0.9842813246539625,-0.9835638055853331,-0.9825696516328044,-0.9817244475420261,-0.9810296491634946,-0.9793714703216395,-0.9720187807309988,-0.949453742073365,-0.9031476111643603,-0.8156938304453379,-0.5856004468873783,0.17825173211082412,0.821516150238619,0.9225925296104647,0.9158055894199089,0.8795245670799681,0.82802317615001,0.7795218374567471,0.7599704996021014,0.7711152269073321,0.7997447649786472,0.8333001994683507,0.8683136956434122,0.8999233140347656,0.9235637028628703,0.9380876914658094,0.9447797481820326,0.9461288434317391,0.9437963918746995,0.9405652449132429,0.9382193070945918,0.937306388237746,0.9353150093848135,0.9298014379050398,0.9197618795660796,0.9037829098228222,0.8804018274928112,0.8447197551639118,0.7887106767011896,0.7058187134980956,0.5959830421762726,0.4690079665093398,0.3391442630941155,0.2149252243035983,0.09273777350114137,-0.04686212374066523,-0.2091370626590201,-0.37902468930130323,-0.522692768214703,-0.6159377020019773,-0.6696901181510079,-0.712070445218961,-0.7645490724956917,-0.8254621936534562,-0.8761237866096564,-0.8986932041374661,-0.8749138849340905,-0.7164070108317729,-0.16471010527862037,0.39822592950058977,0.5852667955964584,0.614407792563792,0.5872278339141908,0.5676848634661914,0.6125572182991252,0.7129468671219459,0.8001008437441369,0.8452307071051939,0.852790479970908,0.8267533718541779,0.7499671271614144,0.556457326106626,0.055915890112838616,-0.5785449631875813,-0.8212242722902146,-0.8830930700713374,-0.8970373491977182,-0.8947433762639037,-0.8766096960848593,-0.8291328202688156,-0.7344662473246645,-0.6395668895686923,-0.6401998844794272,-0.7008782866078604,-0.7482342926757949,-0.7734882344668922,-0.7889765308163569,-0.8055997470030266,-0.8269066551867492,-0.8485226971007976,-0.860562698436369,-0.8475995100972568,-0.7845478982876378,-0.6970117709329016,-0.7721803896375866,-0.8885823481594907,-0.9389269988333988,-0.9543548155236196,-0.955253477106212,-0.9493825477830079,-0.9414386410676088,-0.9365370147695554,-0.9370370223227181,-0.9406183745177769,-0.941612821436684,-0.9310428658952741,-0.8758490537223095,-0.4673755175612557,0.7045696300034676,0.9047986837213894,0.9342621587592903,0.9390249526190985,0.9366637477007279,0.9303386550083562,0.9210576039874022,0.9104932205022522,0.8990180545519119,0.8860329340296951,0.8665032037004151,0.8274721500235727,0.7424333003344163,0.5658946983044366,0.2946328453443967,0.07458712560456189,0.02663361738710865,0.07881728739665866,0.04693120835009153,-0.15839563324940736,-0.28236366026922066,-0.02789434220197439,0.5703716758975842,0.8467097536662541,0.9162296599031641,0.9353886595370049,0.9380140535144976,0.9314900243132309,0.9171443678418918,0.8931956409540505,0.8526449136625586,0.7581478105413206,0.3685280123201318,-0.6625481877921847,-0.933847059640016,-0.9666655178490066,-0.9635601019871818,-0.9316379711699375,-0.8013417594641519,-0.41110619087711375,-0.11784200277968696,-0.23914475629663065,-0.5119203294942607,-0.6870573741011351,-0.7540119658264061,-0.7507024167661693,-0.6812664265339722,-0.5273847285280577,-0.3100148126447012,-0.12955885439428064,-0.08226646015448083,-0.16189366674883335,-0.25998653149283524,-0.21751446469071667,0.0031457487612716883,0.26877512440081036,0.4183168047786552,0.4184120569776461,0.274738931206145,0.11991127336895774,0.17059410949352566,0.39063894670348853,0.5799349536481708,0.6987855918583231,0.7698028854766868,0.8141719079226425,0.8413056280195429,0.850074642500304,0.841734633454872,0.8178221418867326,0.7814797921411386,0.7463180421219612,0.73410729284537,0.7370841551990304,0.7354536571551121,0.7154802484090064,0.6808614231590673,0.6388628075445338,0.5934570028713575,0.5459300362045048,0.5065946338948585,0.4908941263909453,0.4947816186625358,0.47523417209752084,0.3675682890177922,0.13879134506305063,-0.10166492813904808,-0.11674001871427106,0.4040426123610696,0.8922799432611017,0.9769600594883994,0.9915549082013114,0.9945399903189863,0.9938652708091488,0.9865321761100465,0.9376795393980539,0.39356230986012114,-0.6330504618877141,-0.785735480537227,-0.7585700905395828,-0.6439890813718933,-0.6263694925558911,-0.7681364650741298,-0.8420984432515732,-0.8730303766682621,-0.8894565883857098,-0.8939302962585575,-0.885966480383957,-0.8669372242807851,-0.8401681599136958,-0.8063457998795117,-0.7497449014024703,-0.6348495597999438,-0.4386700560453457,-0.2747933829841445,-0.3409128099066787,-0.6160646134334776,-0.8210916147602366,-0.9016316866897137,-0.9269844048710927,-0.9228758582748416,-0.8617908002601385,-0.41949373580601973,0.6359197821724331,0.8712902666071038,0.9177812728584193,0.9286373400670241,0.9250264473082503,0.9108810152341205,0.8875738437584181,0.8525274367735576,0.7853832774241621,0.6297353437303503,0.21993697648740732,-0.43894734452604645,-0.7868053806698853,-0.8979573041000921,-0.9392375219859569,-0.9614427484652739,-0.9775307446606145,-0.9823090550496116,-0.9691424139258108,-0.9471560288430629,-0.9271333048354449,-0.9068848607921909,-0.8707080436285181,-0.7441311239476566,-0.0856304564221444,0.6967011783370827,0.8458072821761707,0.8409138015230474,0.7176462412300779,0.39087766034240456,0.027927443880135613,-0.09899613247747066,-0.00976669601536552,0.22611225085502548,0.5160814434956175,0.7401282953706503,0.8596048143662581,0.9104398275422995,0.9251812412596487,0.9198470547290134,0.9012417457178156,0.876274717227251,0.8505474340769694,0.8195669048987368,0.7698527579716994,0.6868197688515107,0.5434849252659101,0.3050559319306662,-0.07265046295305601,-0.5266758956736324,-0.8237847899221707,-0.9391820035688838,-0.9782250076232787,-0.9900968740145039,-0.9880704086240534,-0.9654420067876744,-0.8613754975411276,-0.4104515647775009,0.2460842566180008,0.5024587140048573,0.5676603323307204,0.5605250134115415,0.49845580890708163,0.35212394580820927,0.07841760458657948,-0.20322745387441904,-0.2817465530322701,-0.17799824313839782,0.03760687192076748,0.3108361901463545,0.5647079478292654,0.7258194963600344,0.8022107665755779,0.8205931725391222,0.7842953290384074,0.669263481746845,0.4493090367660425,0.21341208584036417,0.12143198481558114,0.17909999922252495,0.29000213343970027,0.35857024378271346,0.3734708900067747,0.3953510959416347,0.45997364669698865,0.5556942516183956,0.6547875073980142,0.7360197539343118,0.7957655515118496,0.8198847778852788,0.6759152844422036,-0.27128560312966116,-0.806582070496826,-0.8966537949665543,-0.9166794149731536,-0.9147955880010971,-0.8960186491065018,-0.851662739583767,-0.7520084853695066,-0.5051623739180956,0.06484644060028442,0.592819129921462,0.7739512196036765,0.8255210861073258,0.8404643274837515,0.8349095316739821,0.7999799741138767,0.7142300462103723,0.5399700136506269,0.3080801878310388,0.1804106334893671,0.2328818967542274,0.40671733065745375,0.5829304241355284,0.688974647118618,0.7190144082501395,0.6863371819156746,0.5927819990334993,0.4711573727255921,0.42841802607111973,0.5474137674217628,0.7318024811607279,0.8459573140848778,0.8956849745743065,0.9180301867839483,0.9299690424393443,0.9380816583086584,0.9440346337265422,0.94757844337756,0.9499613183563482,0.9517398991584037,0.9516324340586032,0.9439108072880213,0.9032282718765555,0.35374793948663674,-0.9296721985150206,-0.9844703160748921,-0.9922366894445883,-0.9943070805298176,-0.9924951847083447,-0.984389223655801,-0.9704493320058315,-0.9574068757538965,-0.9514852903557085,-0.950785921603076,-0.9465168942256026,-0.92598044237698,-0.8658492884982013,-0.710028800522104,-0.3708651063454786,0.10126102640287037,0.4821184210094659,0.7040821062365515,0.823585518635518,0.8859397184197693,0.9176412516331987,0.9320526847606087,0.9350640746323405,0.9300249574727996,0.92027175248034,0.9080814567838691,0.8926225364239491,0.8702726214257689,0.8348413704450304,0.7835512535956254,0.7237114791636086,0.6524747712022826,0.48520575119108833,-0.23380240073005307,-0.8962542187174846,-0.9775861629838224,-0.989318863623285,-0.9926440559791353,-0.9942521475433878,-0.9940177888603005,-0.9824780223933056,-0.824727678038236,0.36490888729413257,0.7706040061412123,0.8428308341183799,0.8680040873153421,0.8845943240188182,0.8993333279504538,0.9094738061989043,0.9099685972112931,0.8961395807180942,0.8589904226293253,0.7761781665414362,0.5751226656652082,0.05419790236887824,-0.6235821110685067,-0.8956378928738133,-0.9612802158026234,-0.9714007457167858,-0.966488249718768,-0.9582035973623193,-0.9521828497182621,-0.9523806777935904,-0.9587172653003104,-0.9672614846697775,-0.9749662450592222,-0.9811139103836916,-0.9856406449327286,-0.9865982410431146,-0.9628617431801691,-0.5976183423765846,0.47646183297133043,0.7060038125095904,0.7182734293837786,0.6393303213254081,0.49028354856263334,0.4880882820803925,0.7274664411869226,0.879564479615122,0.9404868817627537,0.9637076525959496,0.9699350310810925,0.9686618057298697,0.9656779819988416,0.96414400563352,0.964972593720068,0.9684537213537059,0.9733816345473847,0.9778016063395789,0.9801283649746839,0.9801700068355184,0.9780358103145785,0.9721419659403866,0.9581088262569261,0.9256198401181817,0.8575047609518055,0.7401409782284191,0.6056804261867931,0.5088684272301395,0.47011214763355597,0.49377778799710054,0.5694966719234861,0.6494231232826249,0.685342951321991,0.6642622019920139,0.5857386963714886,0.47156927275719657,0.38857043012827513,0.39526364133585606,0.48093843980284895,0.6000451367528039,0.7012512186132372,0.7699835941544323,0.8227772186037783,0.8791557612097989,0.9306111549867833,0.9513485034818306,0.9307236741837249,0.8250788454534604,0.3192655534419686,-0.5960264651240877,-0.8581793119176975,-0.9109287256440192,-0.8788243052307402,-0.5352897688533176,0.38629635751968316,0.6710150211033797,0.647080264766986,0.347889541518504,-0.26746755496134733,-0.5364139614688177,-0.3932660501693654,0.09918589241171641,0.5126825024552321,0.6800433152800496,0.7315241383090031,0.7303698591309137,0.6985630350817013,0.6291806823092547,0.47970095805735274,0.1524042649718172,-0.3488709945970551,-0.7034458973652664,-0.8492529567530738,-0.9025676342458755,-0.9183808463162363,-0.9125257901107124,-0.8814096498422086,-0.8018740620297036,-0.6618113251547917,-0.5990660230676657,-0.711354530353231,-0.8365420981146413,-0.9032449841314696,-0.9359191539884472,-0.9519686964483579,-0.9568872443424309,-0.9483661872966219,-0.9033111827897058,-0.5929298351042118,0.6734855954644743,0.9151880077626453,0.9479249374258818,0.9549181648318372,0.9550996875262677,0.9519120270716859,0.94699000626267,0.9400729553131433,0.9291706528071164,0.9126001922076871,0.8934931987430681,0.8768805792817926,0.8626892107611723,0.8481389799488741,0.8289097538170013,0.7971768321062684,0.7408461192078367,0.6436455724800403,0.4649543619243566,0.1023643895100772,-0.472290031389056,-0.8446015747094009,-0.9530338133982613,-0.980496464023009,-0.9875487876730923,-0.9884717662540312,-0.986848589013864,-0.9831952980238785,-0.9764264746694404,-0.962183119205099,-0.9276886245068916,-0.8447679775260746,-0.6719099205435146,-0.43976936162018954,-0.34446005326140466,-0.5057726947581849,-0.7217401082377815,-0.8068962450135889,-0.7834711986739455,-0.49957295883931624,0.5163869481180583,0.8713713754237787,0.923132915821965,0.9203447732931699,0.8665918872410883,0.6287781577123125,-0.004414607668645494,-0.42740978972407867,-0.556789014251901,-0.6072486891171296,-0.6644052810754174,-0.7053128979897414,-0.7003355537250582,-0.6169745124148863,-0.3324069439928404,0.28210646900235065,0.7032716450546672,0.8302287446893292,0.8540866245745963,0.8289098926520426,0.7746224764614106,0.7335599199622442,0.7542911685770168,0.8193784727890518,0.8711459233224466,0.8907464898419778,0.8925746532573995,0.890090249390923,0.8869560664776983,0.8804008335573292,0.8673177590227648,0.8461925495048059,0.8273831449765133,0.8314322349238056,0.8607558143999262,0.8637189599631087,0.801069370427305,0.7137867817444686,0.6628499086139824,0.6865324940821498,0.7766257063712372,0.8714017426763211,0.9251842886984867,0.9463004028977469,0.9506668229141718,0.9382014963873095,0.8928652605004394,0.7769284032078841,0.5020705984135075,0.014313625906094966,-0.4513262236179547,-0.7178198206565871,-0.8454430943486895,-0.9083086661876678,-0.941306590694736,-0.9582650053886623,-0.9641547422893161,-0.9576494051811792,-0.9268892741116104,-0.8313100028814943,-0.6462360276057536,-0.5530781648339647,-0.6147173630711765,-0.6653045700094012,-0.6186816201057395,-0.44064564555275443,-0.12749667985563123,0.205689317932664,0.44408544145137313,0.5802511880435142,0.6468454273536495,0.6738295111686685,0.6894363033616823,0.7297606248849414,0.80659533171038,0.8800249392179641,0.9163714716836857,0.9244549773830466,0.9160236395655356,0.8879461370360597,0.8244343942331595,0.71283677344561,0.570493113482046,0.4422118857282519,0.35893333970250435,0.31307009695315824,0.2692475846086718,0.1916899861729747,0.05937187888792894,-0.10596888117465293,-0.25226117735613823,-0.3433625532606348,-0.3863291983925998,-0.4175911380211328,-0.46792280974808576,-0.5292246100383606,-0.559026393525674,-0.4869596582931257,-0.1963627782392121,0.2950677813860343,0.6598610467756549,0.8289179398342479,0.8974082818913055,0.9162510480398445,0.901800697012984,0.8581001218629567,0.7921068041132459,0.7134392932865763,0.614197003501779,0.47532631076001436,0.31533956195822305,0.2083479743664424,0.1979779279642863,0.2482839558943946,0.27879933081546726,0.22324694789173133,0.00988763538207012,-0.4053588567655272,-0.7823432223180162,-0.9267525437540689,-0.9621411570977642,-0.968868419043597,-0.967716741253938,-0.9591014049656585,-0.9260367411986127,-0.7884674224766943,-0.232688644397772,0.4985440493516371,0.7627093639055637,0.8398166802120365,0.861023983139579,0.8658919670624894,0.8701257650219791,0.8770801976325566,0.8839678773074897,0.886623194322112,0.8802732325849929,0.8608247413355696,0.8254843886328178,0.7763534723024302,0.7149111866873273,0.6186262321861352,0.400323774230202,-0.054227956364159204,-0.4861590242763492,-0.6824943481842854,-0.7858370862602213,-0.8719761513665512,-0.9318796746506988,-0.9612799720462286,-0.9742088691455143,-0.9799502138357837,-0.9821614873946536,-0.9820094430125725,-0.9795173386509092,-0.9738137666203043,-0.962883904190293,-0.9445007150315123,-0.9181287389331741,-0.8889226522012876,-0.865065662665455,-0.8480235576480221,-0.8271753544611656,-0.7715823671286718,-0.5312585971991347,0.41123815694028515,0.8272558090203647,0.8931603929373066,0.9134801561881483,0.9243238834260058,0.9320166040606918,0.938773768553706,0.9448889502418578,0.9488193925338917,0.9490345254774908,0.9438815863577461,0.9296723574610476,0.9040362142117011,0.8830170303080509,0.901864328890701,0.9362155815476463,0.9551549776723097,0.9548951688729375,0.9223484154371113,0.7445712855563952,0.04226628643121905,-0.4249158885379513,-0.3146350908065769,0.39214410944241385,0.8571691584263706,0.9500230139235633,0.970418802746849,0.9736213073861739,0.9694379174841943,0.9602345213284318,0.9475699846068147,0.9368320505498626,0.9343186471545154,0.9398549057835481,0.9479616237099646,0.955021024174573,0.9596314663150036,0.9613919735172933,0.9611089187918704,0.9576390971394184,0.9491567319536639,0.932290226753548,0.9040314234423183,0.8663718538272327,0.8268880192886022,0.7807265264296697,0.6994088778178194,0.5048582164036136,0.06700857993605334,-0.40044512475351873,-0.5731132375946048,-0.4895881805745891,-0.07684335180816979,0.3432527214017932,0.3387957294399212,-0.14202359601481246,-0.697862087999433,-0.8861342475076883,-0.9380932353439799,-0.9521326964307383,-0.9512830145097404,-0.9426343553852802,-0.9320807539344617,-0.9236804681090581,-0.9141381444535615,-0.9011614826721686,-0.8860132988164369,-0.8753860352629076,-0.8796916503757051,-0.9033085931834025,-0.9378450473829962,-0.9666967799863835,-0.9765926920381858,-0.955300997704391,-0.8723201724297849,-0.7077509571909458,-0.5358478729847411,-0.44727555548393694,-0.44413234738584884,-0.4770415603107415,-0.510683207340007,-0.5218742432540292,-0.4776361534816033,-0.33675817623742194,-0.06548216493167994,0.26440834861453966,0.5088232565161599,0.6310729756236251,0.6705783252404126,0.6439711273047115,0.5335574782792823,0.3436011159555148,0.20828430422029892,0.24806560027078453,0.3806981241001681,0.4692121997992631,0.4470764910134704,0.23825620840839898,-0.2530537072979196,-0.6969877184685634,-0.864096860872064,-0.913770328270956,-0.9270755977406047,-0.9287525409250815,-0.929450647481825,-0.9329987481157183,-0.9352570208179734,-0.9338196854445966,-0.9308914370704254,-0.9295020496699534,-0.9279094919713854,-0.9092319754558347,-0.8631423352712088,-0.7533962397547318,-0.42258460947729376,0.16330203095927165,0.47616624304393174,0.5128415556994755,0.4218200180033448,0.3562953399662276,0.4705409592497703,0.6687229282560251,0.7826000662421392,0.812137442749504,0.7724646246227462,0.6199629136701272,0.2936879608506616,0.03479902704432925,0.12353785458828566,0.4419437321188042,0.6883231185800367,0.7974047144141223,0.8336112221535305,0.831250692345866,0.7890255308870182,0.657168723082347,0.24435709264293587,-0.4667445776736829,-0.8028890176220946,-0.8999883966044273,-0.9336809025638367,-0.9464084571434677,-0.9505321785629384,-0.9494012921925862,-0.9389342584258321,-0.8914680219550803,-0.7187405503056786,-0.2566136761173548,0.33596351294467536,0.6718867189289922,0.8070948197659344,0.8556624980300617,0.8646528273499345,0.8524687201127279,0.8257725216705314,0.7907275836650065,0.7503590485410341,0.7088191879160887,0.6635605139637121,0.6066461092000238,0.5189623339361731,0.3830420192423118,0.177361615161436,-0.08471944544828992,-0.30996252120437945,-0.4313924794670975,-0.39783372306128606,-0.06677328542524269,0.5334483176073302,0.8152380791415578,0.8940910615019643,0.9180335702380574,0.9227562141747158,0.9170225158306864,0.9044854516041011,0.8913942337212595,0.8866893364304874,0.8936432289952154,0.9036816882328659,0.9078140062565928,0.9070196576787786,0.9084692527367839,0.9165247079325953,0.9308432341431669,0.9485746092443498,0.9643865388201434,0.975431306435424,0.9810371097969284,0.9828464278825008,0.9827415973403869,0.9820544597485615,0.9812649781801898,0.9807007814770088,0.9792186800996465,0.96597456969412,0.8952071706227014,0.5270877807415631,-0.5077738219203454,-0.8822711496229854,-0.9573266487321429,-0.9793891612783119,-0.9876286951401284,-0.9905684511257373,-0.9905846416088399,-0.988537728196683,-0.9849370888039828,-0.9812897843420734,-0.9790363214693675,-0.9772497640282829,-0.9738234311202749,-0.9666350078740209,-0.9528426387075536,-0.9268243696456284,-0.8708479848455272,-0.740702174502343,-0.4961656307489616,-0.257252409270788,-0.15790642478589548,-0.15881079980000593,-0.17713644625789268,-0.1385961890645494,0.04053156720704487,0.4358362842048488,0.7324870692751203,0.781016458934174,0.7847266886076987,0.7898789622083795,0.7976545638057636,0.8092926045532535,0.8280752780153494,0.8535201535350472,0.8822427004303363,0.9061364351788403,0.9199076725209491,0.9203188186461302,0.9032302174352119,0.8689419281495655,0.8288052566812466,0.7877783182798651,0.7431056597480965,0.6873992786986075,0.6236889559436835,0.5637955821400512,0.5235062904702824,0.49156119932589937,0.3772747574278182,-0.0614240070824991,-0.6748734127603173,-0.8769927284750475,-0.9249643315027902,-0.933263620192516,-0.9174400246959744,-0.8517656456757402,-0.5962364826523,0.13804662442183657,0.6592117181605757,0.8023815190311814,0.8150579362263629,0.7538223654568215,0.6348850980961911,0.5372956384415778,0.5745012511167847,0.7217069910956595,0.8507523718773207,0.9194102755350443,0.947624967684939,0.9546539954693477,0.9530190128091175,0.9509181958045245,0.9530599896361798,0.9589694540267,0.9663741423344804,0.972709112730401,0.9758593936906318,0.9725665541068383,0.9564376608958944,0.9132090046370357,0.8314726351515688,0.7487388511673746,0.6885891816576896,0.6137666545424105,0.45948501690851573,0.1300269100162239,-0.3754066795523144,-0.7472471414616713,-0.898877545234369,-0.9511855483783133,-0.968904820571083,-0.97422723476871,-0.9734736218331936,-0.9685061820535893,-0.9609942577427943,-0.9527534919050678,-0.9454450825056421,-0.941358202956658,-0.9408342060409375,-0.9417591619521696,-0.9388624344626548,-0.9160989815732388,-0.7926242447316437,-0.2885127600860471,0.20541838050706018,0.27330407184465944,0.14099331859296504,0.014694810677139142,0.05452233461245862,0.3017770231975159,0.6314209929653442,0.8239529429303896,0.8876639734201088,0.8925842679650289,0.8671486916201133,0.8244568596243568,0.7853105369373449,0.7678802568104968,0.7742656001978894,0.7912926072123445,0.8088067120316041,0.8227148210874106,0.8341409867408878,0.8444637938064509,0.8516367039007586,0.8517458684024277,0.8409679910640572,0.8150711071900846,0.770394953007625,0.7069762769651645,0.634772089553266,0.5820550587918009,0.5784327865249488,0.6242638926151644,0.6881043553427182,0.7320116352136429,0.7342066483965053,0.6625931063790196,0.4081701816977858,-0.1654427852355983,-0.6173644453376255,-0.7713222897551173,-0.805178083843194,-0.7858511697183636,-0.7327287895168126,-0.6647622322164263,-0.5876518298365238,-0.4372004718423086,-0.06331654421242919,0.5021241820566723,0.8067301167785176,0.8999743694309472,0.9247715962175701,0.9099869570310367,0.7543563828429771,-0.4627885311190661,-0.9078257220761083,-0.9581315804742446,-0.9705901625094714,-0.9745209159600958,-0.9751466455283034,-0.9749554274271336,-0.9767518714470508,-0.9799648240185601,-0.9820631827785743,-0.9822831415486859,-0.9776930226191278,-0.9543748479810211,-0.8063950626133646,0.03763141585073952,0.6385288814834648,0.764657157216396,0.7822997751176984,0.7469324289053234,0.6525116788836671,0.5013554456280065,0.37976639712862764,0.39316130868351123,0.48442203874869094,0.5701662034769175,0.6458523035604746,0.7271857745260902,0.8077194740630576,0.8698525451242242,0.9093986232346623,0.9325510392917397,0.9402845814635711,0.9049362164817428,0.5629204142975123,-0.5363977546884214,-0.847937487198427,-0.9211366856621854,-0.9529761403895424,-0.9721405237789756,-0.9753827965597814,-0.873050177306488,0.0012021821937578832,0.7627323487257224,0.917711347232896,0.9561420173132785,0.9586114012643061,0.9264181610348836,0.7432550370004722,-0.09378250154024688,-0.6718562134554371,-0.7947029310777487,-0.8089750911953536,-0.7752946589642814,-0.7055223280046524,-0.6185323169841881,-0.5415775438932305,-0.5029138306872348,-0.4865087519721191,-0.4239158021693237,-0.19188251440109907,0.25314007398515076,0.6182550678729097,0.7916230984160654,0.868681948119186,0.9089823011494821,0.9339784525821652,0.9508051662489899,0.9619819047295448,0.9690586149241212,0.9731994749555434,0.9749279128097164,0.9740433467297913,0.9686653776025995,0.9549475830254209,0.9269316285308162,0.8742913753865122,0.7646360887037427,0.4683321965528921,-0.24254708090408597,-0.7611678826429512,-0.9089552485444891,-0.9576008338113082,-0.9828981378524684,-0.9935469429188051,-0.9881332533344884,-0.9800493556079354,-0.9784692419368869,-0.9813021047040048,-0.9850154140733378,-0.9881395374754379,-0.9832922997595824,-0.5464971469375842,0.8662516840402581,0.9350178931195587,0.9440375260448777,0.9313576699717486,0.8735039579680973,0.6219519685948147,-0.18252577398594175,-0.7084825060927596,-0.8545555487737234,-0.9055680872654097,-0.9290781013841038,-0.9417854035836409,-0.9459101996763665,-0.9437198300373375,-0.9383336433278741,-0.9313471362647845,-0.9203444579002023,-0.8983910666326721,-0.8498202675111146,-0.7306524630015253,-0.42534699954418714,0.05962667422302007,0.35956693674794576,0.44399075762989376,0.42478007224691366,0.3445183359264474,0.18795675892781571,-0.08232832969331025,-0.3796674236923468,-0.5404427751960647,-0.47545744278502056,0.11568438563539217,0.7982296612809225,0.9314267045037765,0.9540390313673337,0.9488754174306206,0.9107956894646468,0.8063186170466439,0.695761556038751,0.6960696498447605,0.7687174695017598,0.8431058790377054,0.8953153674532958,0.9293354084049184,0.9503061698636647,0.9625586985031929,0.968881385039853,0.9705912620626926,0.9690810877553718,0.9653226937371241,0.9585094480040264,0.9426223344504729,0.9105978690368987,0.8621846900548192,0.8143430346028795,0.7843350571988209,0.7697655381721098,0.7504314378660614,0.6855197453172199,0.485370831716698,0.040410979351792435,-0.44372057392053504,-0.716914342838209,-0.8555152635479012,-0.9290006790966292,-0.9678924531766926,-0.9850373815650404,-0.9906930665670446,-0.9929981977931364,-0.9952264839318208,-0.9967858578693941,-0.9952802099510444,-0.9882849628301333,-0.9745575716016528,-0.9553668795399529,-0.9398529334018793,-0.9380551127106138,-0.943288730415474,-0.9415837023831346,-0.9230585026628937,-0.8705187343169593,-0.704685999614095,-0.11878111653027704,0.5757749244853545,0.6389718608520166,-0.3087926113214885,-0.8616944152607443,-0.9382515912940372,-0.9567901051728419,-0.9603103966052694,-0.9547739007633916,-0.9334565886732464,-0.8602637810531996,-0.5880573356703128,0.03248308891873318,0.4893859974930919,0.7000230795472862,0.8162773238551729,0.8810474854477989,0.9138385725575987,0.930316979115502,0.9397567946259062,0.9465059679646859,0.9516586668309307,0.9539807307481378,0.9515288448320128,0.9416277989574164,0.9200722953360294,0.8750381542498571,0.76844562291033,0.4350807535616124,-0.34445706145804944,-0.7957042917769461,-0.915682106700757,-0.9553599692396889,-0.9730160699317624,-0.9819204245280041,-0.9803241658913364,-0.950757318060904,-0.8621161040295456,-0.6990919602487776,-0.5154381261159127,-0.3840800019843897,-0.3575230329225213,-0.46249427960554057,-0.6292595484321448,-0.7607959021072428,-0.8343344259253559,-0.863295430232321,-0.8523282854607546,-0.7445414647476082,0.02250001231060959,0.8509182671783978,0.939666271302646,0.9490133158128577,0.9423003815526267,0.9269498976616432,0.9076878587472679,0.8936093827959822,0.8913824640134171,0.8996485644593862,0.9126415004585852,0.9254022681778412,0.9349535886410845,0.9385500473234057,0.9329323394067044,0.9156341874055318,0.886794724244768,0.8514687567206742,0.8184656213642755,0.7926949033134721,0.7729915217139925,0.7579966442965215,0.7454758846411371,0.7370431684737827,0.7270389365023102,0.7154317486765437,0.7080828469492528,0.7091133634481358,0.7095732608056718,0.6965344385382368,0.661098059309154,0.6094398379870002,0.5511278511255946,0.492770263923401,0.42796330777925495,0.3430641870548411,0.2511620296903951,0.22855930012158862,0.37280567282673255,0.6163818657373952,0.7782721430692241,0.8474559357697544,0.8724397826284778,0.8777462942528307,0.8721245791367698,0.8562489977896195,0.8277171029473236,0.7868326132815134,0.7286920103019731,0.6033362001930803,0.23832734480241832,-0.44746781365690175,-0.81474135957874,-0.9167512056585247,-0.9479829825047018,-0.9587239554526059,-0.9619699293125341,-0.9618338424617833,-0.9591717331045201,-0.9548908887526595,-0.9507282334164806,-0.9470445003008131,-0.9423541256502432,-0.9345502484444216,-0.920916550548517,-0.8979842782641064,-0.8592235861508137,-0.7919851781279407,-0.6640931419944537,-0.4031595693914549,0.04966995269782282,0.4889333725639027,0.7223147697173913,0.8238070626799625,0.8709944856476134,0.8946913413083888,0.9051816371393873,0.9057002215657008,0.8974154701034321,0.8831036391302757,0.8672467320048727,0.8568899910972545,0.8568437483455417,0.864416501659038,0.8747301817738065,0.8819114032196834,0.8804045204082033,0.8666400863988004,0.84292842116126,0.8171051817819258,0.794872728943176,0.7757545708876847,0.7553991111708221,0.7283537211396093,0.686095646746718,0.6120594443769929,0.47989998168793063,0.2936444435996259,0.1464514971984431,0.156320907481775,0.37388088936387,0.6848431166378253,0.8694542203666518,0.9251966116640098,0.9028368637245039,0.7554127451553557,0.2611539133704921,-0.39921870486108796,-0.6993476372869601,-0.809491782025516,-0.852992528766638,-0.8712101658269041,-0.8818575283751213,-0.8817089256875011,-0.8592156979110916,-0.8228109066692171,-0.7959468078543008,-0.8008242209919996,-0.8380684906698778,-0.885129691735365,-0.9157283601927177,-0.909725783053399,-0.8200872972507081,-0.4816692277296196,0.18890548622367234,0.6181606945475959,0.7757387034642111,0.8329484159722063,0.8537080048778354,0.86196849812668,0.8688678131938754,0.8784371274747743,0.8872912214803609,0.8911993905145038,0.8911883188152443,0.8938945895922715,0.9065557254803384,0.9241767690587711,0.9335101893333795,0.9295718840057399,0.9147368341128636,0.8723142192747932,0.6484290886462425,-0.3609610889669977,-0.8235759750360803,-0.9110011246522055,-0.9365639704684101,-0.9436731569279359,-0.9420328421860952,-0.9336657176969685,-0.9154172834834752,-0.8659067592619724,-0.6783705274221092,0.09211075140141674,0.7537034375549709,0.8810128981046673,0.8503769977899905,0.5820448290893345,0.052022234029844516,-0.18120894143743546,-0.10635845330167787,0.153885273607648,0.4499034697440053,0.6450714246067536,0.7414567169326859,0.7864845435973048,0.8095561056869003,0.8238044705271327,0.8329904457356481,0.8171460365693163,0.6759459674079129,-0.23565000518865692,-0.8865001388625557,-0.9604852150650666,-0.9735105663426297,-0.9741778244638521,-0.9692591977634253,-0.9619106751229662
