0.718196800621396,0.6841294579154165,0.625039453226467,0.5506734538036256,0.45864447988199303,0.3493327312685058,0.2397180775683042,0.14975544154443607,0.08269836225995776,0.03074797509437492,-0.016495540794953484,-0.08025616639743362,-0.19077954675267436,-0.3430208416910275,-0.43803340258958967,-0.4853779083433262,-0.5234019641034241,-0.5434365958827418,-0.5388869644888991,-0.5119790302944914,-0.47026715300595595,-0.4225900087304142,-0.3740304016318131,-0.32613857545076463,-0.27303159862140247,-0.21875272498646806,-0.1749375270688265,-0.15173607593132543,-0.15847304026715622,-0.2077974262751133,-0.33220395482691456,-0.5203952733011297,-0.5847315084500132,-0.582590493907032,-0.5890133155784313,-0.585218014142617,-0.543179713695277,-0.44057534189958775,-0.2707884845485102,-0.07967886155771246,0.06897243546942829,0.16024804198706336,0.2113254167727234,0.24472038097878512,0.2757652769829388,0.32081058073297686,0.3945376237266678,0.47588350485003617,0.4918195510087193,0.4308932208049057,0.32955354719065133,0.22111103378936003,0.12004962326778892,0.030196750462970667,-0.05448098455882567,-0.13017423949495152,-0.18075893155443648,-0.20088030369795706,-0.19773066807485673,-0.18223257993544054,-0.16096563470477812,-0.13468467159374922,-0.09720697863150583,-0.03907386695423888,0.06130786758433805,0.21761526549288307,0.4165797344242679,0.6076780090275415,0.7461185234813079,0.8305058451339554,0.879754875914104,0.9107936516079275,0.9302373963895892,0.9402296313488718,0.9393501097758717,0.9326528309776521,0.9308049392628568,0.9367236876533507,0.9435134322377069,0.9444567863901872,0.9394771044878197,0.9308228658877595,0.9140285268402139,0.877434126291035,0.8117304558043644,0.7099687951342536,0.5833928299951856,0.4501906982351675,0.30990098228682583,0.15504897116290423,-0.006864842903754905,-0.15451277995929363,-0.25606353113485364,-0.3181639874975547,-0.3621553793781044,-0.3998906750095496,-0.44476889519729806,-0.5037127967568659,-0.5687947112582161,-0.6315433415322373,-0.6834493376816116,-0.7224586570133181,-0.7468788121026364,-0.7546407022179042,-0.7502517887648056,-0.735519123549679,-0.7135225022468136,-0.6936847980540681,-0.6860862795576109,-0.6891371596756198,-0.6792760684928538,-0.6495927679973047,-0.6257520183479328,-0.6386022474806359,-0.674951387174276,-0.7119684360399557,-0.7381568574142215,-0.7518045099543075,-0.7457441454089115,-0.7008759043912504,-0.5966970219649259,-0.4501618910107892,-0.3152896047023459,-0.234953109994991,-0.22191659971434655,-0.23983683950253318,-0.2303927376348595,-0.20715294543290888,-0.17833993666003586,-0.1447009571849569,-0.09150401036427504,-0.009183855016464959,0.11741186941146252,0.25847864150764877,0.38632080098667804,0.4959718293561671,0.5792278668175319,0.62696826716452,0.6280470977032631,0.5703123798191502,0.4532082157407479,0.2975347196552137,0.13749491874130584,0.014337729151085858,-0.06660243759651291,-0.12195820276534439,-0.15618687880847845,-0.16513700766692263,-0.16184420158520813,-0.16207489463547733,-0.1748141145150602,-0.20385546123077883,-0.2521723817352292,-0.31095141891730615,-0.35640254307047803,-0.3505884821287892,-0.2503972553714514,-0.04572316298461863,0.20096763571669796,0.4110939700026088,0.5550853039385168,0.6308350494422046,0.6199197577462936,0.5004909414762244,0.3400445124034768,0.20300945632615128,0.08602979910394272,-0.035205434256380695,-0.1609282323415865,-0.2847745134058228,-0.3992720592001197,-0.4934698647335966,-0.5504993556130484,-0.5577424110068954,-0.5227690574954339,-0.45707359410475423,-0.35306037498395304,-0.20416181302186462,-0.027728272609131577,0.14410989911350774,0.2759047527150234,0.3678530057729032,0.4202231651977446,0.4277215546031683,0.39372650837133844,0.34036577780196015,0.2936396994852531,0.2591673920849891,0.2309291419207787,0.1933612822149196,0.12968332283377043,0.029066179382041753,-0.10956436322999255,-0.25642065866843444,-0.3670548167984955,-0.43006719305426827,-0.4437696164513034,-0.40032151450751935,-0.27983850035829577,-0.08229073360282092,0.1462557656899798,0.33781915592373396,0.4590305432394341,0.515186651349485,0.5218503378412426,0.4913991947121194,0.4371133295057371,0.3664258385552861,0.3031497576298117,0.2798991195049925,0.300960958517882,0.354502968609793,0.4369300045396483,0.5276579957555559,0.6006623628528455,0.6384958302599756,0.6491308250990648,0.6343965508680096,0.5899850249840904,0.5147619030170649,0.4233181197331622,0.3380187998999867,0.26703463189569404,0.21445435682615543,0.17524378461498774,0.1402175275995232,0.10657498175133927,0.07068011844759801,0.023369991026065087,-0.0340214167913688,-0.08223300018129068,-0.08194270736658821,-0.019813088594496667,0.082025271217521,0.174578924652485,0.22043091774913176,0.18208793715414973,0.02973245577859359,-0.16451844742299895,-0.2973868954215081,-0.37186181755082515,-0.39818054507512846,-0.382996852490194,-0.3230813531546801,-0.2237763484254198,-0.09916654793739443,0.010717787931874374,0.07046649141218037,0.09147964102937084,0.09458243463848943,0.09047369825429584,0.07134549921939355,0.0031709002956524,-0.14091775618075028,-0.336888167681833,-0.502421525494172,-0.6002899469447299,-0.6440922102678239,-0.6538720218706285,-0.64807307034855,-0.649689996889192,-0.6784448191241333,-0.7140148219262266,-0.7229713752382162,-0.6950850067649043,-0.6473484285551032,-0.6078387936969009,-0.5917051943507838,-0.6023163495472907,-0.6376988240297464,-0.6947884441961848,-0.7655522201351233,-0.8215755049784875,-0.8233291305339094,-0.7500845520282371,-0.618099502367903,-0.46253218484887193,-0.30753116614431286,-0.18722248843660394,-0.13529529757874645,-0.14919559784542244,-0.19123836939921754,-0.2233874586430188,-0.22646083534429007,-0.17049762594766762,-0.03970464212040574,0.1513155599073458,0.3549854282978837,0.5338831288402209,0.6769509912419238,0.7678689869400096,0.8018086575034967,0.8021264400120398,0.7874845061145523,0.7648092453990601,0.7356225622955544,0.7059581636386071,0.6826345044745319,0.6751647104359975,0.686314733045279,0.7056864324960036,0.7293709957666529,0.7464462594761344,0.755932588205515,0.7626257216514795,0.7686248668610413,0.770750096727147,0.7616136893737767,0.721250322840755,0.6362837989497783,0.4970250826346221,0.2676217453955349,0.008534031610116148,-0.12564537610008053,-0.1682521195113608,-0.18517994229815418,-0.2113151736497554,-0.27204900802981896,-0.40416673948210285,-0.6496549487596737,-0.9075223871512194,-0.9688161362611666,-0.9255480046979462,-0.8831253903108028,-0.8540621388837216,-0.832953507405058,-0.8257169160310731,-0.828805121922305,-0.829708357609159,-0.8165317273447652,-0.7658790552466486,-0.6479110435366142,-0.4783507760299801,-0.30483135451595006,-0.14919467967353042,-0.014293159919171353,0.08048172284858786,0.12981143457715869,0.15239068397866973,0.17253894545210835,0.2076871915956362,0.26687265695514106,0.3590284613139589,0.47566109614235463,0.5801789786222108,0.6520732467309501,0.7011355722454051,0.7419716750818051,0.7812873061138568,0.8164771294548363,0.8366975150411288,0.8329175515348791,0.7996067430527649,0.731420720065787,0.6255098195272417,0.48265946631975815,0.30012429962153075,0.08124567795644962,-0.12437755644977123,-0.2814153875622099,-0.3929858312779691,-0.49122331021018006,-0.5836445475839425,-0.6588102605272377,-0.7035718784387283,-0.7175444901415386,-0.7143440994465678,-0.7091978940211615,-0.7195639552708399,-0.7480936478156871,-0.7741821787229265,-0.7772239700570082,-0.7530829523094105,-0.7119052301383785,-0.6735412468979226,-0.6550487334996541,-0.6310681045772075,-0.5674057326112326,-0.45421577685342385,-0.30359436178884275,-0.13404046439131936,0.04609843488721475,0.22661044803812697,0.37868636260585753,0.47872665348897964,0.5189135523505668,0.5088126149433575,0.4705002686718671,0.4373177029665551,0.41796257384572916,0.38932442751141555,0.3045780175225309,0.13971999593111725,-0.0561576640319913,-0.21174764362335136,-0.29577338174047185,-0.2836920687873135,-0.13572427873352816,0.11034775335181551,0.32772321018216516,0.4559624713643057,0.4936550004641162,0.4607874864652624,0.38522715049346884,0.2834167431691647,0.17360279008577353,0.0880490485876101,0.039823505939748746,0.03886161952436824,0.11483460950810666,0.27582808982751306,0.47409309373171354,0.6349253287651365,0.7390708103036371,0.7978775292927114,0.8195808911535318,0.8141005634824041,0.7869069578457724,0.7269365307933436,0.6012122538867908,0.34369301027431265,-0.05384518592131247,-0.4174966882315928,-0.6380966978706664,-0.7451391626155152,-0.7909491115653698,-0.8068631225500124,-0.8061923147597336,-0.7936576778819988,-0.7703646588505152,-0.7334028093873314,-0.6736392004723893,-0.5642120477102128,-0.3392988484737059,0.06307887107332207,0.47826003744096846,0.6989181022776566,0.775520619298976,0.7806065743872261,0.7098272962764701,0.46646517551983907,-0.04699387387406936,-0.43358933009638584,-0.5605492547980473,-0.5656928613479735,-0.5148326265070886,-0.4240931236365325,-0.3055399858472392,-0.18186973911121979,-0.06089674191337228,0.053638228014905254,0.1429710195045343,0.19733918426742084,0.22081014757483317,0.2303790995254857,0.2564581613604538,0.3129212333012329,0.3905101998338204,0.46254592190188326,0.5116478993202301,0.5400876775674929,0.5540959652286547,0.5632345268608766,0.5607319177345885,0.5246799560370413,0.40389618172451686,0.11778796621491884,-0.323180755573068,-0.6541387896633836,-0.7739864521051543,-0.7685457358166482,-0.6541062716008169,-0.4127209775696196,-0.09020876478014364,0.19970099414632672,0.4278853090192017,0.6013057686133941,0.7190961889703431,0.7763730422443815,0.7821009945313179,0.7515006997448106,0.7041575762187303,0.6469865022961695,0.5847615148109035,0.5311951310387586,0.4978110663089666,0.46420748443321025,0.41706566335126166,0.3945874254775228,0.4171924439721414,0.4728104216422109,0.5275283710537303,0.5398994109624669,0.48628000604064886,0.3724638104153311,0.2251894973371859,0.09535660619630479,0.011904547437596244,-0.02150284945895974,-0.02722969403618499,-0.04232579265134395,-0.11697139903179267,-0.24679599822149692,-0.36871907356972783,-0.44764553715279437,-0.5008653381467514,-0.5578487144861853,-0.6340531694853412,-0.7103551761586734,-0.7786743138096472,-0.8355332174112331,-0.8845207790382439,-0.9172173990572353,-0.9134804090803843,-0.8541865224469427,-0.744204481888711,-0.6416498210068338,-0.570450684811331,-0.45756377646185853,-0.41194506569545425,-0.40107689063436114,-0.37888466470973386,-0.31144883671272294,-0.15612481746167026,0.10395091694586457,0.3535504280852235,0.46099532570935586,0.447276493241396,0.37014237364549113,0.2781544982369711,0.23522400581701344,0.2749132986036789,0.3867503108789193,0.5182162831770848,0.6105692361423178,0.6485002022711475,0.656553171643156,0.6446066019235849,0.6069122509161886,0.5513651380269539,0.49639929370781233,0.467155941113543,0.46932372081627793,0.4824195372210685,0.47762437192016316,0.44268109178591825,0.3654011628542931,0.23177771926560375,0.03485146413012538,-0.18403138739209646,-0.35617476794327785,-0.4610305351402202,-0.5067196331655537,-0.5023327945034353,-0.43906233352201984,-0.286242424678202,-0.056530029444903956,0.10458624998195992,0.13277572619695316,0.0851880232883064,0.0006699959899060719,-0.09026105233404311,-0.17086963201298797,-0.2357740333063988,-0.2963615041955472,-0.3547085667893982,-0.41684736379955556,-0.4985027792383029,-0.5933744734325338,-0.6800018826835056,-0.723174936981415,-0.695968895289779,-0.601212206057248,-0.47423740088967575,-0.3659652502801594,-0.3054693195806402,-0.29182982079704795,-0.3161363291708323,-0.3717329436308371,-0.45635732497673775,-0.5569488798909532,-0.64067101421594,-0.6921784765610421,-0.7177674119216674,-0.7252386456823758,-0.7127895214944749,-0.6773184601423589,-0.6223911791392472,-0.5454812845566102,-0.44578660240793916,-0.35052424417595257,-0.30114095270073704,-0.2882053102741156,-0.28582336134995767,-0.281862706730392,-0.27221397399304503,-0.25689058391255737,-0.23447325301763292,-0.20517712589564407,-0.15798134338304168,-0.08159933018738416,0.019470665126519338,0.11259551853981295,0.17233018208935474,0.20924822011919758,0.23650493503574968,0.27120867008904476,0.33231132284888326,0.4268757533733051,0.5041944219445816,0.4849365880173224,0.40736331798046277,0.346795345464548,0.3234445883787407,0.33093233872290867,0.35849669642929216,0.3988991054220147,0.4506776547283415,0.5095599130970987,0.5665130495581221,0.6160998728747598,0.6599418884150914,0.7019232445854577,0.7410705852806785,0.7736399431320159,0.789502008629997,0.7674607375212669,0.6449559368876248,0.2211284819645478,-0.40546518698340217,-0.6862478490319339,-0.7908011931150477,-0.847438889458309,-0.8907941725169298,-0.9261425362919355,-0.9523891296075065,-0.969365283694791,-0.9775732203270792,-0.9775736475415027,-0.9666778057073225,-0.9381849014123812,-0.8690892548319731,-0.6013210125628148,0.40337648209990434,0.8362176259640209,0.906246147777018,0.926067033723024,0.9364790242891733,0.9436006098482945,0.9469920413034126,0.9452275229588183,0.9412058214286548,0.9381380803920916,0.9353859863513,0.9261794658535972,0.8972391425199339,0.8234315554489803,0.6792443904178754,0.4702302390447171,0.2551433520694507,0.08740808501744202,-0.021848421438951833,-0.0778660503420375,-0.09385992766070045,-0.08563539920785325,-0.06717788193275472,-0.03441841787102258,0.01139633755125216,0.059495536808606635,0.09633220404432219,0.1086346935260876,0.07986279415821693,0.009149065815814287,-0.08078082772800532,-0.16674267584831756,-0.24374598004457612,-0.30930327621549075,-0.34502256427606076,-0.3599707439306231,-0.36687521384166033,-0.3651705076699304,-0.3531161934300185,-0.33373272187891073,-0.3199696440178009,-0.3330193118838587,-0.37973134311686113,-0.4395633590059619,-0.4760244413367857,-0.4769148248130055,-0.45286469298004906,-0.4047201247794887,-0.32499385261333713,-0.235175038292,-0.18532083965417273,-0.19381178348523784,-0.23498505160979888,-0.27662522424426345,-0.2929302539494954,-0.277509071079716,-0.24188665019130975,-0.205077490860217,-0.1856869395565249,-0.19776409558328387,-0.24222109091627536,-0.31279537280159825,-0.40110773976329783,-0.4805718993483864,-0.4946644701160727,-0.4061712818358444,-0.23730416825145853,-0.04383625579708961,0.11430792447217926,0.18339291760953563,0.13162589111933218,-0.017283551523454,-0.1876412654452466,-0.31678137739176193,-0.38819158896797085,-0.4043501533554347,-0.35654879594705785,-0.2719096286319388,-0.18224510143041733,-0.1019243563712058,-0.05606150053439104,-0.1289205171376468,-0.28832582123352507,-0.3834452407018905,-0.38978668027149055,-0.3267621342443283,-0.2374529173826019,-0.1531417675254444,-0.08795612669497438,-0.025144820835965153,0.05635319105616677,0.15729172043441622,0.25115461292054814,0.32155747776766636,0.3671821104212507,0.37867907254724487,0.3479919073127023,0.2859148347184479,0.20242541236288078,0.12251499065395406,0.057401131689489494,-0.00650584960833007,-0.0841203589010676,-0.17914283666890327,-0.2829373340848083,-0.3509657635728767,-0.16584316411534497,0.17885015145927805,0.38218863311891466,0.5104824321519685,0.5974251003731591,0.6529000113884343,0.6875651172242484,0.7202989019106741,0.7638294655431858,0.8085802940946152,0.8380795165703504,0.8439659560781488,0.8218574685854527,0.7684369304385098,0.6834131700074899,0.574099312392764,0.44565132687255893,0.3121627002684164,0.19517053273370313,0.08936304641946305,-0.07367582406954354,-0.26023605767426766,-0.3343298377091403,-0.3496262345541373,-0.3344398206775868,-0.30303906763752864,-0.2593266927883858,-0.21807157577481906,-0.20274990898767906,-0.22332660603159302,-0.25858275601115227,-0.2778050961135287,-0.27357333742201645,-0.25751134250939933,-0.22662058200713422,-0.17876240821597578,-0.12293236971025534,-0.07725551822454087,-0.04911424049472952,-0.016356387735191682,0.046536087404915,0.12849827718938062,0.20092601610574168,0.25185717815511577,0.28136106019757834,0.3003600031375944,0.33365779811847485,0.4225256627349327,0.5449314690320805,0.6020762061565575,0.5740387505454086,0.4762901284958569,0.3119823816333131,0.09152079338556202,-0.169761853538747,-0.39920023072849087,-0.4725978505754481,-0.40131718299295316,-0.2876760881476991,-0.1698589246319446,-0.057077420128403084,0.05262900126157348,0.156898970583952,0.24116116288143893,0.292027721875475,0.30633807416557274,0.3017734315029826,0.2913238432662198,0.28699869337499145,0.29022944132540074,0.2909021724911886,0.2696524264959889,0.20583323672874412,0.07691269404730847,-0.1274653498301204,-0.35508468250175357,-0.521915569985042,-0.614683836739114,-0.6483431806866208,-0.6308090263707462,-0.5859060228065891,-0.5696018468965353,-0.6071836595596761,-0.6833559325506604,-0.776809277039787,-0.8638997550802572,-0.9202291277705769,-0.9383220558233011,-0.9289114273306761,-0.9090447166166656,-0.8904100965386531,-0.8784980168229404,-0.8722522112666928,-0.8353842600798964,-0.6636644355441955,-0.3569747524345979,-0.11735999636518078,0.04192883451527444,0.19268856131216536,0.38588107404920424,0.596835933786588,0.7430333894520801,0.8037897573292433,0.8224045902697936,0.8311397000758092,0.8433770452545697,0.8604435310673532,0.8778033836933545,0.8883439992799632,0.8828832470455148,0.8465563633992774,0.7501098717349044,0.5604633134831394,0.27225324931289113,-0.06694344640398267,-0.37342679987893324,-0.5899837212251654,-0.7083171790038352,-0.7475304276695725,-0.7397590547137846,-0.7073515445145441,-0.651760940418294,-0.5503632711847011,-0.37447329588644773,-0.14258668337464245,0.04950231087139672,0.13845812894922338,0.1262169731873759,0.025811270799575875,-0.1458105990515915,-0.3176602826775416,-0.39499959060374223,-0.30132883352448575,-0.10508261022045938,-0.008167450474224056,-0.08488165018356739,-0.27191369940062826,-0.4771493221165362,-0.6468324186942414,-0.7345699290987001,-0.7043293915097698,-0.610572890295368,-0.5227828615693275,-0.44985989958402645,-0.37214625735054074,-0.27038702900928074,-0.13814877482709068,0.015157194391986942,0.17501750960623666,0.32246835772409477,0.4549407915099501,0.5737430583361522,0.67396978116683,0.7534549756655642,0.7876190011138358,0.6954139752866436,0.5179467463423643,0.39627385137390264,0.3476506670120314,0.33724169844671514,0.3335985039215548,0.3188480153066895,0.2814122027182362,0.20993389569125592,0.09688421263463684,-0.054314197022117226,-0.22107285123245976,-0.37696272724951685,-0.5241737803235261,-0.6551726872029551,-0.7319485389081967,-0.7319940826015463,-0.6882726918681346,-0.6278435027222213,-0.5383057021246741,-0.4197391718001315,-0.2848982613324739,-0.1607032765901911,-0.05918120083103973,0.030642357591352115,0.1414621797371574,0.2845984182552661,0.4305252827192995,0.5378464271795964,0.6006004218639304,0.6287510927567349,0.636566509591915,0.6334557921158722,0.6215424191861391,0.5965865392255408,0.5194324204907983,0.2985084676840833,-0.0056131469802547925,-0.23359949262357213,-0.37392826729238127,-0.4567902899659949,-0.505975059354602,-0.5393521728529694,-0.5658779123701093,-0.589117520912259,-0.6070176457037691,-0.612135766698226,-0.5918480300105395,-0.5323647142199819,-0.4187642106971846,-0.24331795679617477,-0.05590423924154643,-0.015672541778756464,-0.0995650037594703,-0.2482622941250993,-0.4455235415661987,-0.6260459234474072,-0.6915344703910188,-0.6208284487022521,-0.4345041393871442,-0.17215680822017582,0.062410169901353264,0.1530737799873265,0.12547608320805398,0.0677521737039557,0.028424413191099108,0.02041561583492091,0.038707380124657235,0.07223701285016798,0.10162502622024176,0.12007772376638647,0.13315302191141004,0.1706482982259857,0.2500028211324683,0.3770893995076055,0.5149958062761312,0.6248651917304613,0.6994378615500598,0.7458743347539469,0.7808264530961496,0.8159771916614943,0.8540130271217438,0.8931686777256638,0.9286343804199861,0.9570214610324972,0.9767821232081279,0.988792125374492,0.993904441257191,0.9929769440639965,0.9861341732781768,0.9674623142531709,0.8750348073396748,0.06296171331060418,-0.7156550738827906,-0.8521011324141081,-0.8985171915808072,-0.9255247211399197,-0.9452698753849883,-0.9577348129517087,-0.9619802585836403,-0.9602137042760682,-0.9551034315420126,-0.946375590214115,-0.9328383290019258,-0.9119987038490305,-0.8734009999646472,-0.7774242712498736,-0.5543218182978665,-0.2605066970585343,-0.06632194067798271,0.00650577445045718,0.012132223379453569,-0.009324134005845962,-0.0379936800893495,-0.06497540827594302,-0.07256554353708547,-0.02794046158476847,0.08551618683961847,0.2497657197494497,0.41729456984826646,0.5550911359387952,0.6378229701076538,0.6721868505306168,0.6716934022252119,0.6421447890719324,0.5871840282897351,0.5048175158674115,0.39294540009518003,0.2438047681950476,0.05766117988942879,-0.14572573563340585,-0.24003142108056583,-0.11961343511203126,0.08814550830355135,0.29520863056432617,0.47996910407395676,0.6465835974269475,0.7877518759314659,0.8724724747173738,0.8981295886618835,0.8983700197523098,0.8931269534984788,0.8854446587611544,0.8682439142855484,0.8278528562887655,0.7451208067134412,0.6254025758906544,0.49937079109909216,0.39416251958621196,0.29502082047467587,0.1716838449530003,0.0033707142993991647,-0.19072615741603582,-0.36349860806858403,-0.5047419082409976,-0.6400288490906704,-0.766486329112275,-0.8561474171475718,-0.8986086492234185,-0.9110448892619158,-0.9086683570948375,-0.9005009387643046,-0.8907355560106551,-0.878865485208475,-0.8564912677915767,-0.8022985091010597,-0.6559285057731228,-0.26110457073532356,0.3461464780344101,0.6983996205232302,0.8356235180047286,0.8965258332666518,0.9267425333874556,0.9398770542750942,0.935051714804188,0.8999274040448694,0.7987933498635954,0.555982228200293,0.14814478603788492,-0.20111092973548403,-0.3709868030429157,-0.4312857374208344,-0.4572729709148457,-0.48499777157657853,-0.5228777037419836,-0.5718841209455862,-0.6334857830289319,-0.6989812847041236,-0.7469707441251741,-0.7543812457295934,-0.7201671740349999,-0.6639761848769064,-0.6038640981394454,-0.534605990844376,-0.42975665237764515,-0.2555739002821641,-0.010956373252685454,0.2059320833594179,0.3047494171077645,0.28022416146821616,0.18019909200636822,0.08534723614395033,0.05974208235615229,0.10972837640823926,0.19954551062775808,0.2968931133430664,0.37697196644636943,0.42906709186193354,0.4522597430642116,0.4542293563882592,0.45220690285364623,0.4534264715029878,0.4601058914382861,0.4745618625932863,0.4888311374711304,0.49294821018806984,0.5168650728369081,0.5506140730188247,0.5647084827829756,0.5672641371959467,0.5741983369828261,0.5902679926992075,0.6127881080517091,0.6276291761428411,0.6199341477532458,0.5958512063516926,0.5808592800639214,0.5943676465154973,0.6333961846348375,0.6762539115974852,0.7151310213569309,0.7571363185131286,0.8008282564385903,0.8294157041572333,0.8292505406200671,0.7934217757023209,0.7089155521380666,0.5567966730528926,0.34567785706013904,0.12792247523889488,-0.04932050644687226,-0.1738789547716185,-0.26710983426290835,-0.3599543363912745,-0.47860314825782824,-0.6167745613698673,-0.6724953796034896,-0.5527348228404251,-0.3864647752493888,-0.2611961156530482,-0.18074525994175308,-0.13838268238592144,-0.12536701082416066,-0.12956943752427855,-0.14069238685064628,-0.15386386191114934,-0.17143532736766207,-0.19366019171960833,-0.22373380988049632,-0.27028591236304006,-0.3439748715907967,-0.44027826363456235,-0.46478263940763564,-0.43186163283921597,-0.41752513225442756,-0.43021308130192143,-0.4671851943670365,-0.526799816094394,-0.606397628320283,-0.6720654560012108,-0.6444663888493639,-0.5121722375870703,-0.35159870796803844,-0.20272713103662288,-0.060786818758188935,0.08451824471522791,0.2225928236338012,0.33060215768403156,0.4060390618916636,0.4701966014343627,0.5333154287309598,0.5955540214428322,0.6450279813793787,0.6645945843987984,0.6386885363364042,0.5768619713822672,0.5123210265623093,0.4793953978959811,0.4973408813965398,0.5667831083550996,0.671369982493723,0.7768649955638725,0.8357810772463207,0.7923655511126069,0.5780368827453564,0.20372038876798443,-0.17261402895509198,-0.4365366725060545,-0.6053753079546652,-0.7221838111704366,-0.8123462786556158,-0.8797396329538857,-0.9212181703370513,-0.9382698484718894,-0.9311585050144396,-0.8915052748538351,-0.8123138520184086,-0.7015285776051412,-0.593998988385982,-0.509171715517064,-0.4260928152503514,-0.32257150842177124,-0.22435905833729028,-0.16144625944841476,-0.13405009895412742,-0.1466143603843261,-0.19943985193661984,-0.2812154340643459,-0.37551974439310004,-0.4114465383636486,-0.2587065689847237,0.09965633175135753,0.44682823351997986,0.6670416063358321,0.7856371641115055,0.8453089014644133,0.8696925206302977,0.8689190797108745,0.8450231444159645,0.7900816595920765,0.6870472595340547,0.5207774101753843,0.31034378591126954,0.09763276047915274,-0.14954606011703503,-0.41489396942877943,-0.5871407766765017,-0.6823158638590137,-0.7403160957754594,-0.7770313047979027,-0.8032575571262893,-0.8266284832396331,-0.834382442975593,-0.784233739651901,-0.46859752934712195,0.5249892267752471,0.862763376041565,0.9080500423211217,0.8887276837394515,0.8138865851151335,0.6159956644934137,0.20058045865620439,-0.21624633658459946,-0.3777595336381488,-0.3397735468969451,-0.18370179056990638,0.018580419346697147,0.2073972429065989,0.3491166252633041,0.43983761789644377,0.49001615359561224,0.5141341986040494,0.5065116269004419,0.4438462977653803,0.2882363767340799,0.03431096455913436,-0.23099295030762326,-0.39185139975315214,-0.4455201636376357,-0.4481854076620226,-0.4384187069611926,-0.42997238796445697,-0.42663355674381526,-0.4356151145480405,-0.47175094232515197,-0.5544426219083924,-0.6978718715411206,-0.8571114144932166,-0.9441583860057331,-0.9520929263872285,-0.935167680688583,-0.9194370173864893,-0.9072433928338076,-0.894361366510765,-0.8646368674663781,-0.7709593266518452,-0.486022778388445,-0.03681729524582795,0.22400216308293067,0.26910975953660615,0.18520862381566355,0.022622993614638327,-0.15845507704769204,-0.2814358523764887,-0.2951581973880447,-0.16277516603900122,0.09120512480905832,0.315951918042633,0.43338342853344825,0.4755004941898408,0.47734145596950056,0.4621518409585782,0.450288178770329,0.4467971838387198,0.44686315016347883,0.4488954068973304,0.4500203849812565,0.45752251992358384,0.48079705496502106,0.5182729937433435,0.5571323828877929,0.5951910620749246,0.6369349852670142,0.6812605819569164,0.7231543401477293,0.7611433082285607,0.7927354699963698,0.8111542320085423,0.7879904245039184,0.6573580471082391,0.4811096204338207,0.3830530275945487,0.3630415705524632,0.3857070105286401,0.41327533350669543,0.41950014003659397,0.394799850774276,0.3572135174487545,0.3298655417576269,0.32717308603922024,0.34414012341624717,0.37808172803604756,0.42117703003717666,0.46557271175666315,0.5046147794563476,0.5379651572052362,0.572451691638567,0.6163941155482753,0.6679263888996202,0.7088336511651875,0.7177507000621879,0.6872883575696839,0.6087601198311373,0.46632879492628543,0.22890203763352435,-0.08849945433667299,-0.382536942231875,-0.5728335159916204,-0.6756465020243861,-0.7268456917852958,-0.7485495474306951,-0.7559053829272463,-0.7609162203831128,-0.7687102328968498,-0.7748048128430298,-0.7706232857343335,-0.7459109979593035,-0.6915742411649922,-0.6097226479134016,-0.50893300466359,-0.40662814871514213,-0.32689226119730597,-0.27460666855424604,-0.2575037640918101,-0.26181169802933063,-0.26818625881136643,-0.26111299147099176,-0.2355443244889193,-0.19825321269292676,-0.1517462564725739,-0.10500226354698516,-0.05959974052669023,-0.027383942038520948,-0.034616680946330365,-0.12389517748474657,-0.28909238938491383,-0.44016191931205956,-0.5351413004864672,-0.5845083756772868,-0.6048205722209706,-0.5863111555447625,-0.466543136368107,-0.14688918901940148,0.21547288037011367,0.4249070594656359,0.5248238468781448,0.5675003215116826,0.5803699637855507,0.5735676435460252,0.5487334210757276,0.5043219689671543,0.4397189021117317,0.37356039167761856,0.3430363337477334,0.3594542300852903,0.37601119096252306,0.33873803828956867,0.25175586088287977,0.15992397169685846,0.07942644752370312,0.0040963419822546195,-0.08505533992054404,-0.1848188764497532,-0.25589721056363,-0.30676734186308635,-0.34669712293143984,-0.3789657425196569,-0.3906974384799217,-0.37489701398935055,-0.3340505908386905,-0.26873675772552474,-0.18866364923535206,-0.11270572261645856,-0.06017733908230251,-0.031487430973129726,-0.024776462883985568,-0.032307352260911755,-0.04506195349005164,-0.06891208051203229,-0.11640832870446398,-0.18154784353518008,-0.23903318082676644,-0.26968180809676945,-0.27821429084290944,-0.2692524421187663,-0.24276673021659181,-0.19879018602461215,-0.13872925162228358,-0.0559140877981022,0.04135246554694847,0.12492629967940996,0.15762724333278472,0.11150508829474692,-0.03134597229385099,-0.26543916010507745,-0.5162999593713715,-0.6179124681564392,-0.5180121326907244,-0.35541572872932503,-0.1954003071668584,-0.035640423788934256,0.14499283404137814,0.34595186313975035,0.5042022894406695,0.5816190443637183,0.6071966136148309,0.6140125790672224,0.6241879682545527,0.6443054017464501,0.6659144774459175,0.6723989342655396,0.6371019611335854,0.5461286465398393,0.41819289989513164,0.3023260288845456,0.239868601403653,0.2309867473098108,0.2385576765665729,0.22461049877519432,0.15115786473755277,0.017578776504910604,-0.1508831801020102,-0.3389163765180465,-0.49834503070394653,-0.5774316292207923,-0.5733117136232826,-0.4942100664561454,-0.36723789874639495,-0.22610532434882236,-0.0925253523339296,0.026450162067321148,0.13879689623476388,0.2607673195054997,0.39382901794357245,0.5049619957156121,0.5699464717297344,0.6110740419322895,0.6350670578793386,0.6452888702969055,0.6600634173197744,0.7014636218086844,0.7591248969594311,0.8129464723644447,0.8400034197218484,0.8391875691366334,0.8153866891575732,0.7653231845388009,0.6751939598556915,0.5344394125632826,0.3644580253558068,0.2347626604797992,0.19300504526353462,0.23600422106305236,0.33165669118310603,0.42497054748629837,0.4658364746893266,0.45970677563870466,0.4301738093982296,0.392651652006432,0.34721242944441955,0.28035235241513223,0.16643398042988453,-0.019662816904689084,-0.2612379523543429,-0.4788334827221795,-0.6290853789383707,-0.7297687317442284,-0.79886316243805,-0.8259766141286573,-0.7861566221813772,-0.7013944814188645,-0.6290895549673605,-0.5977497079782317,-0.6115532560172637,-0.6603601182690415,-0.7235420738939671,-0.7740794523577679,-0.796137431335017,-0.7870333863687784,-0.747879930207588,-0.6621759312611261,-0.490495698748601,-0.27013657960030396,-0.15548311295022318,-0.20117328680022,-0.32196637682745394,-0.4146881258518657,-0.4596795354088493,-0.48896112839173295,-0.5247988739822883,-0.5726032029156004,-0.6285760453643378,-0.6817444511678092,-0.7188430660387914,-0.7254694358338526,-0.6848819652750137,-0.5815405480398733,-0.4190003207212445,-0.21710735738592027,-0.022518850719138356,0.11112589491177326,0.188297391461252,0.23382793317172595,0.26457425306688614,0.2981789961626324,0.35118077348045396,0.43281025107179333,0.5337012211348694,0.6408526164973778,0.7422620502866373,0.8244750837661272,0.8753845897262642,0.8996912250798336,0.9152684655022629,0.9282064447148243,0.9324745829986467,0.9201490860206758,0.880650361070899,0.795005972980262,0.6406182679332189,0.42220948360622035,0.20788720475377062,0.09145800181733146,0.08697264051449176,0.11192932044024645,0.11130000911400573,0.11418580176436273,0.14505170738597545,0.20961042423819395,0.29061061403407185,0.3744638700183085,0.4399117520925596,0.47686272833416127,0.485035820306642,0.4564424752326612,0.37661651942329455,0.25036577799608806,0.12421301063620115,0.05680937555357843,0.05500091688844678,0.1003884871099449,0.1697707700880858,0.22964758906232774,0.2454391899147083,0.21046299388912595,0.1564465384363456,0.10898349208895848,0.0747689672750312,0.054907719696288715,0.04453316325852136,0.030653004336604797,-0.007287737538340963,-0.08893026577927532,-0.22261561035734687,-0.3899345263853735,-0.5267443279824016,-0.5777759208521589,-0.5298111664643699,-0.42756370175850533,-0.334929670122506,-0.27612594980059707,-0.24806639022323743,-0.24424354064323084,-0.2527523523986066,-0.2571166871790598,-0.23398870452571366,-0.17470409938710962,-0.09897319637710292,-0.029394797056233234,0.03770855924190503,0.10354529493165988,0.15634037953256535,0.16632393797093065,0.09669990672094214,-0.06751304841755851,-0.2537329563814603,-0.3571470771700787,-0.37803168427045525,-0.34935257782666934,-0.29247300443838103,-0.22109819270265252,-0.16127461190919534,-0.1335056098943441,-0.14190268031099038,-0.16464773341155192,-0.1757116761713777,-0.17219226664135137,-0.13457135132236925,-0.03154088894213988,0.15635196731950946,0.38484982236645554,0.566599258454304,0.6617986628403421,0.6783936300795439,0.6354644296263157,0.5331870579586847,0.3573369123002338,0.10665782248511946,-0.15025470345973688,-0.3325255239789141,-0.4205457183610396,-0.4340329500722224,-0.39643089541733406,-0.32677170591991295,-0.24351642339011983,-0.15953852943430824,-0.06910022636134106,0.041963903578479955,0.20385142263560638,0.35972378031656826,0.3621914196296636,0.30926240847626596,0.24985878699916478,0.19633130432045615,0.1616422015288562,0.16803370458095018,0.21773577452614143,0.2815496359013832,0.320972131194405,0.3269809264770207,0.29943678624887504,0.23393584161538028,0.12826376870706524,-0.007330422641382774,-0.1454474520987147,-0.2657637851755586,-0.36193653166205547,-0.4376534504402972,-0.4912282467123681,-0.5118128348937857,-0.5024554610115077,-0.48595417757038056,-0.48123661146826874,-0.487339014976715,-0.49297854097488,-0.48503511761096546,-0.4598520342843786,-0.418280052246215,-0.37141283325168156,-0.3384738768042657,-0.34360605011749273,-0.37711787949985626,-0.39728008105627083,-0.3534126983024448,-0.23172019702734975,-0.028935268068242946,0.21858867516315977,0.45080672523868676,0.6029258241642051,0.6674656366853481,0.6667157978218433,0.6072293642792714,0.4685836318145038,0.22378753040231283,-0.09288351194504026,-0.3732294746486141,-0.5559410992122584,-0.6574743706088625,-0.7124341919901964,-0.7445837119841252,-0.7592820360604617,-0.7500137040345063,-0.7053369372917007,-0.6029190784427894,-0.40325960920366816,-0.1080107838674162,0.16673899347403365,0.3392864403453654,0.4162436058797677,0.4347431538693713,0.43348785773479076,0.47104879557379553,0.5661302917286211,0.6967583427281273,0.8096438925963619,0.8747539262721035,0.9129081832854458,0.9345381811515162,0.9421894336424138,0.9363038323860922,0.9172609428257376,0.8761537565610236,0.7946299061894466,0.6346504198582513,0.37924301535838356,0.10741920210527324,-0.08228197351633762,-0.17662649499746902,-0.20718912486250218,-0.19311947038345714,-0.1529077027239368,-0.10814924967261422,-0.0863897640072972,-0.09442190256804602,-0.12607837975873593,-0.1502057096727614,-0.1554366057832445,-0.1447356944186502,-0.1266403831395423,-0.09852747314166338,-0.04811408471822064,0.022409138427894392,0.1019315201896132,0.1700571952662806,0.2215175343697144,0.2764847567379438,0.33834602352626064,0.3981699188454805,0.4377408366569968,0.46192740631044366,0.5004131244436577,0.5558288766014826,0.601869348604065,0.6163218844153362,0.5993263476746051,0.536478511429002,0.4183175641002321,0.2571462151853028,0.1012081858038936,0.0011077260654529062,-0.04770779232479233,-0.0721031010513275,-0.100019420954466,-0.15166027900508913,-0.231825900098877,-0.32852072562669116,-0.41429201076323113,-0.4669828092737185,-0.4790478285063417,-0.4404540903986845,-0.355931359702187,-0.2557752184762468,-0.17956985308466836,-0.14580986586744377,-0.13726322201558602,-0.12446967711848113,-0.08930006368085089,-0.014772016084417965,0.10709805790682786,0.2542034284076989,0.38153726863970727,0.47202444544260175,0.5391528111044476,0.6006826272934335,0.655093495601547,0.6999000955746283,0.7293741849549237,0.7409479076229173,0.7268010800232994,0.6801364829890978,0.6025908013916659,0.5044410562181386,0.37359871358184904,0.15401386220742008,-0.2071650808046061,-0.5770180068310591,-0.7528212200300198,-0.7999788699043876,-0.7929735574111841,-0.7384395603719386,-0.6289933212142449,-0.5162176999876753,-0.4416472393641629,-0.417511392687831,-0.45903200858282106,-0.5550314144371268,-0.6619785347359746,-0.737937018440062,-0.7774505552432855,-0.7929866867359612,-0.7967291986909729,-0.8045339142401725,-0.8190057575919363,-0.8261879889702222,-0.7925555207926522,-0.6757151674528558,-0.44562322835698326,-0.1357099057752078,0.15725746494758996,0.37813372328612266,0.5224002160827439,0.6000148777841472,0.6356154003935434,0.6486003285003078,0.6427953609246128,0.6187145307237853,0.5819161161401066,0.5346214051918022,0.452327316609555,0.2719928439522945,-0.09277550633240078,-0.5121054550108411,-0.7329886739703556,-0.8035835203503885,-0.8168229208541423,-0.8043369060797958,-0.764010972104311,-0.6966799273938404,-0.6191054559832722,-0.547705881875854,-0.48513898985709564,-0.41335991094323166,-0.29185719193257814,-0.06495598330060298,0.2273286506169301,0.4131960404215714,0.4418455274061182,0.3679679452963211,0.2605359216177796,0.1763622726801917,0.1320988728716411,0.12472697534509211,0.1416867935871314,0.16665438745935013,0.19322146101491913,0.2258708182991103,0.2891917465934371,0.4046387290001139,0.5172840185443538,0.5720344358747709,0.6051571912538497,0.6278436940162972,0.6366046729217237,0.6372435916616619,0.6413137013412196,0.6564713587319242,0.6743651596629079,0.6841976196918096,0.6802469353860843,0.6601856780324126,0.610188841937037,0.5199210112037507,0.3981638282886862,0.263295247122885,0.13339533061054876,-0.01566019144293165,-0.22537553612961686,-0.41001247271998115,-0.46829624604735887,-0.4384803439913465,-0.3747880182641485,-0.31850402366219926,-0.29803331786420334,-0.30730201644767247,-0.3348903705408016,-0.3720311958210706,-0.4063037232472819,-0.43013532577965596,-0.43886130834657505,-0.43416789711411863,-0.41728301843037247,-0.3927987374068586,-0.3684367389235168,-0.35397113355370374,-0.35074377917851046,-0.3531787297019652,-0.34200665243436873,-0.2621238862643837,-0.09717677794387668,0.06370682685667726,0.18486128134986496,0.27715293346962533,0.35028842788690323,0.4187015805306648,0.49447047787326043,0.5720513713273679,0.6304755224779495,0.6512389016898322,0.6509546079864266,0.6673962358986173,0.7184812335688605,0.7843123097103444,0.8408856512606611,0.880345105706431,0.90593202390655,0.9193275266724855,0.9153805117230037,0.8738793093568171,0.7023487297061046,0.2033854541479645,-0.3331199393012691,-0.5780112166464961,-0.679166227624772,-0.7201688955463282,-0.7232260544362064,-0.7048736977492678,-0.6809586530622599,-0.6629921288783627,-0.6529603405303963,-0.6496465578231924,-0.6625309194612582,-0.6882125842298824,-0.6806869373555724,-0.6074586224025286,-0.5155942184665914,-0.43789043850082093,-0.3819861038949761,-0.35951336834710224,-0.38302353168001396,-0.45144167915367395,-0.5445189512150467,-0.6398202435583037,-0.7164674113490022,-0.75496839249967,-0.721477657537034,-0.5263668832475114,-0.10359844384770672,0.23309115382576168,0.36311074639451607,0.3701920780131757,0.26812597725075665,0.033544110084898805,-0.22612576180557764,-0.3117448624131518,-0.23844654901603593,-0.06741076421272195,0.14486818215893713,0.337458104843839,0.47353549906234477,0.5652982836977805,0.631436043076735,0.693776296317849,0.7480538218938328,0.7501716218123076,0.6971552063879282,0.6362390355347242,0.5841776781010903,0.5343063271636566,0.4733087898015456,0.3985062224894665,0.31395303708312067,0.2297325882931218,0.16186797780567985,0.10441303804878023,0.04874317102787016,-0.01576352646719384,-0.0864392696149665,-0.15555545900365622,-0.2273331011584833,-0.3110022298302517,-0.40482047429504053,-0.49103052670133224,-0.5646528603535697,-0.6139701400357769,-0.6198907932797433,-0.5690848121890943,-0.4676369784894634,-0.303146883792396,-0.057074235480877415,0.2651170401716563,0.5701061682953384,0.7704430850152297,0.8716909127050413,0.907536890113905,0.8952177448789408,0.8432368387088791,0.766712123547192,0.6856564722318391,0.6162651410360147,0.5759804781514934,0.5669605236553003,0.5776672754761087,0.5897030190935317,0.594626470312815,0.5969192946810661,0.6054743640978358,0.6253272451915014,0.6502157920511523,0.6645838881008354,0.6440978870009219,0.5685702948412437,0.43277741153590465,0.25424986893898976,0.09122196540522688,-0.017202113484097024,-0.06992293165253027,-0.10351006785849992,-0.16203436341473712,-0.26141031811708776,-0.39078290647082276,-0.5271069666210567,-0.6507032667324142,-0.7506222998790257,-0.8199222108161461,-0.8563127714655812,-0.8663400151077869,-0.8536384601899686,-0.8167085358230413,-0.7582906144563973,-0.6855464787064335,-0.6064897324657597,-0.5247444435561743,-0.43291458420985424,-0.30063522131248627,-0.10077193402396115,0.10709551971421405,0.26831334907303866,0.3805256566717764,0.4825189951397665,0.5764462514833205,0.6336771127910524,0.6460338427063087,0.6291303027341368,0.5775644443943782,0.4766070280506976,0.3188779899506311,0.15217159963605964,0.04810323439867738,0.048112527020928664,0.13159831411631934,0.2389512871873454,0.3095258280620622,0.3001401811540466,0.19541137290421454,0.03296324231488852,-0.12396607237723271,-0.2333751718350237,-0.28909682098813094,-0.308072720279593,-0.30678260842821525,-0.30197167674983577,-0.2988545489727767,-0.282789993104405,-0.24697764412676795,-0.21141816857592272,-0.20578671593238168,-0.22970117369244744,-0.25736990298229395,-0.27367432297645805,-0.2755687459234288,-0.2623194833981357,-0.23965327337624398,-0.21300739796789464,-0.1805829023195104,-0.13759937640413766,-0.09488478339409738,-0.05983532975191087,-0.026376967897903367,0.02308886076530834,0.11324905677060676,0.24108510124036672,0.35947194349727435,0.43083623909043106,0.46543843929909445,0.48249716199337567,0.48365024267064977,0.4483379466312988,0.35792075822944447,0.2455126593144806,0.15053621842772047,0.07152253077620123,0.014912566154175825,-0.0036628138164436653,0.00871930759437677,0.03344055786057594,0.05356297957786011,0.066514482740071,0.07138581410161407,0.08292284753115356,0.10899460886593369,0.15048008528521545,0.1906742972426608,0.2123952694018903,0.19182961403142373,0.09146130541980896,-0.09848972403875914,-0.2754221617482929,-0.3741449326225883,-0.3946080313230521,-0.3408233353876686,-0.2021463996315221,0.028085136061863702,0.3034702444270112,0.4288740484309592,0.30351164120440355,0.10173535879675095,-0.07120391724840774,-0.19068083808085243,-0.2444814518906668,-0.2294490183674828,-0.1749791332978542,-0.12951964718528333,-0.12337182426166918,-0.14431937076384127,-0.17800903948342142,-0.2090465890832976,-0.22050375326234592,-0.20342682918829214,-0.17604081828358217,-0.1556535480876199,-0.1438139018269366,-0.14125478439340433,-0.14016368788380035,-0.1281974086739883,-0.11629192297863304,-0.12860659607377437,-0.18916103024629916,-0.2877042462475235,-0.3703886199804626,-0.40499838071887173,-0.3960943879882192,-0.341403299465444,-0.2334454438042062,-0.08842262243689471,0.03605424732224216,0.10360057193834935,0.11881277601209494,0.11601988036750552,0.1297879814020091,0.18519688841392,0.28958306300438424,0.41292357775537747,0.4913111895345814,0.5200199593331203,0.5643162478508111,0.6444356805915362,0.7401387140020278,0.8163635875940688,0.8527631552431588,0.8530131555534124,0.8339250946564831,0.8101144204417297,0.7846822248830475,0.7440748199586098,0.669190088292638,0.5504430627967061,0.39866568259154006,0.22569938698481845,0.0463025072608395,-0.08983300412253811,-0.1647270639468312,-0.20208415816194583,-0.21843713909310897,-0.21553397555525203,-0.19476547253233065,-0.17415166848473132,-0.17826646852919878,-0.21897549574692093,-0.2940954248812375,-0.3788495199335314,-0.4388041633397156,-0.4638236459561466,-0.46295706265426356,-0.4326170892251413,-0.3717881290855584,-0.3052940620193864,-0.24365694169251248,-0.16307375053285614,-0.0327207267211715,0.17093551308845464,0.41059407321532426,0.5994031050675751,0.7118863493694899,0.7753323119673498,0.8174200974320539,0.8556925447661735,0.8974241321266831,0.8780165502429188,0.7042652132275582,0.5223193369575612,0.42858404188561133,0.38984459948122574,0.37909690548328157,0.3798557586210889,0.37061746036221316,0.300454967199998,0.16995126223819734,0.044007268539983026,-0.050881176915727626,-0.12189157070427147,-0.17937971814768236,-0.22649062645070991,-0.2553384853489497,-0.263164967567445,-0.2593925920225034,-0.24313987788473587,-0.22764452853255274,-0.23173078781662626,-0.2686385328575859,-0.34370429313894346,-0.4443449073830632,-0.5565442459433766,-0.6559830926615092,-0.7239869047291169,-0.7680104836261462,-0.8083315695425995,-0.8567021070979897,-0.9065601781710846,-0.9351614690010901,-0.9258022632830837,-0.8740742969653288,-0.7785866727226737,-0.6375545231494875,-0.4880785170765798,-0.38674128941249114,-0.36148437588078586,-0.3867440606193737,-0.4133734047742262,-0.40891526108234977,-0.37388994251026264,-0.32530692696913094,-0.2582602353334896,-0.13787938687153145,0.047817852638062035,0.18770269874244697,0.23759120351270757,0.23656082854216676,0.21359535427594417,0.1826758837049651,0.15274842929198507,0.12605112680433586,0.09491471369079807,0.05710404375126304,0.02333453277583078,0.0016422635360412135,-0.009143597433374413,-0.020534427915327537,-0.03646498969165089,-0.052614155422652464,-0.0612525257003963,-0.05780533362502767,-0.037326772786184376,-0.01218576911540978,-0.014584684958176887,-0.07196187256158895,-0.1880984150297838,-0.3074086922287969,-0.3615088200541812,-0.3358533177263327,-0.25757169349271997,-0.1655298422859985,-0.08504705063392302,-0.03841120395552203,-0.033007905630800104,-0.07404509655886014,-0.13473540049000376,-0.16954674286606056,-0.14431529280658809,-0.04443683640882564,0.10314386589718635,0.26725204045688417,0.41214658067093785,0.5251648036239247,0.6078866666373685,0.6693230095103825,0.7184059237557969,0.7490123026543104,0.7558393007455636,0.7463830611731752,0.7283378562842757,0.7076694318500764,0.6921067390205943,0.6830608941670034,0.6763156746988822,0.6628689583605207,0.6357124691798782,0.5750831972018335,0.4419632309755008,0.20152925518238188,-0.10846070414280119,-0.3520869422336483,-0.4897210480391554,-0.5589848024362153,-0.5856562764032602,-0.5926860951852947,-0.6039437822012331,-0.639572334332068,-0.7007080374430222,-0.7599856469554409,-0.7949184194114477,-0.8025067087856022,-0.7824431344540941,-0.7158843488754751,-0.5626253410930314,-0.2705268185620589,0.09349660234268713,0.3357807604090112,0.4160885428725595,0.38765647902592204,0.31433658621799576,0.27055077292882435,0.3041716826299264,0.40273074467438214,0.5186455643993344,0.5936838074424468,0.5999854794295095,0.5403394167613468,0.45776274346284396,0.4061296885315818,0.4070853540470307,0.4430673494722291,0.4642364614919665,0.4263443440255678,0.3339603418062291,0.21659755159992308,0.08793775636031553,-0.04369572652545795,-0.16680989923212358,-0.2660912486404152,-0.3440124043578194,-0.42544358416848144,-0.5063950812298649,-0.5683469519841069,-0.61042552798391,-0.6314070936091476,-0.6303703231452212,-0.6038988082669046,-0.5538591651934811,-0.4933283928807163,-0.4347198789788785,-0.38180432967096584,-0.33432592625442803,-0.28923284225743573,-0.2461428895188901,-0.21797400926307,-0.2381496100716648,-0.3467407126272606,-0.4565967329015629,-0.5063889629205911,-0.5398232245665266,-0.5617157956908403,-0.5668023556482115,-0.5592712709670808,-0.5327994156882411,-0.485718533356068,-0.42618429131091007,-0.36942022083922327,-0.3328591639079302,-0.3282012402253352,-0.35664518868209943,-0.38862630948665977,-0.39433853554968934,-0.36634352653987756,-0.3002699654254573,-0.1824778026211964,0.007650105413321191,0.26913468685615743,0.4996777171657647,0.6183522449966397,0.6599161488122669,0.6672545268409493,0.667717141715235,0.677977453994885,0.7004895287259713,0.7229362911135532,0.7336570164683724,0.7283254600876112,0.7147884130856136,0.7091585917205208,0.7173341839650033,0.7133336640277586,0.6548173396135545,0.5494743131348938,0.4405394408842794,0.3549542023876839,0.30008195306800794,0.2798310372501249,0.2964988237827731,0.33646694279382494,0.3290071623630065,0.176756389041541,-0.028768472095172845,-0.14554481844803657,-0.19606900380603873,-0.21592428076050785,-0.2289042346782445,-0.25579439147799765,-0.28249620010216264,-0.2970256284232147,-0.2937983340768429,-0.26907572521337075,-0.21536453020964003,-0.14069374007724508,-0.06381286523706782,-0.011289283083029943,0.009944960369684782,0.012779647723947405,0.016547396797416198,0.031660422186238324,0.02628764666380756,-0.03591867693356199,-0.1497901450066828,-0.27772060599413345,-0.37991144016468353,-0.4338393985914478,-0.44950755291185773,-0.4438037237316972,-0.42451297975885716,-0.3869834784639328,-0.3241399628077514,-0.21080116428943182,-0.07103364542162952,0.00783214707192802,-0.004969085150319051,-0.10363160693282579,-0.3221260537739565,-0.567919012836607,-0.6684318432146944,-0.6762586525548049,-0.6566926251058777,-0.6204549620511527,-0.5722235590645867,-0.5143194493823773,-0.44248558678720795,-0.35164626939696736,-0.21963847900417316,-0.009808674930381185,0.2671220354468331,0.4954400533759131,0.6127602642515514,0.6461802396596309,0.6290329608764911,0.597235769223124,0.570063272221968,0.5460123373200918,0.5115244402634819,0.45452670385247995,0.384464829065648,0.3237799544809342,0.268028058649677,0.19696309881915897,0.08797411724092467,-0.05435975004476263,-0.1541243486420492,-0.1712198985883547,-0.14309019286142732,-0.11207342123769008,-0.08616580818171582,-0.05922391131234761,-0.003388503874150519,0.11040272126749276,0.2962242876779812,0.4911599984925448,0.5686249511128116,0.4983977291796416,0.3496438279167657,0.20677162093532445,0.12206592758203291,0.09671038298067348,0.10695967265595352,0.11610993611229828,0.10621338500235647,0.0894740600573597,0.07582138982307438,0.06455669598722376,0.036771875683592616,-0.008819822826707808,-0.06304879515442696,-0.10426824089521337,-0.11108219908665434,-0.07548465403148671,-0.007121250398250551,0.06549268000383092,0.11355932076715813,0.1233721996654128,0.0948329817927836,0.02947764515265709,-0.05779101045300749,-0.13339796647377886,-0.18108408645524743,-0.20884265635064267,-0.23047916119338951,-0.24918799870137875,-0.26306167839614847,-0.27451859123175,-0.2813789547726081,-0.28653678744735595,-0.2978168153898476,-0.3095559057052378,-0.3091672367581102,-0.28634761529891345,-0.22771003122122468,-0.12528880936770415,-0.007335733089908759,0.09157998511350834,0.16582296770699012,0.21771826549746195,0.24647094169453015,0.24965135198787242,0.2331943178438886,0.21852250667542567,0.23281833194196383,0.2953727732474166,0.3573254709367173,0.3237536480140572,0.2630706967964456,0.22227487667589393,0.19878320880158548,0.18496585834387477,0.17529387200646937,0.16542246990225618,0.15222381650733385,0.12934084768955909,0.09524803201290008,0.056240483181247344,0.05811744329075862,0.1698942130829568,0.3240671671233784,0.41291071139521174,0.4405051894661921,0.4235682195880181,0.38978820333824815,0.3592352032843625,0.3368412733435147,0.31783031265685796,0.29758651510131623,0.26033749186498534,0.18800449606605382,0.08478143408544296,-0.01940838962145906,-0.11106705357215084,-0.18804081716883386,-0.23759346211493867,-0.25799274979174447,-0.2422723283382324,-0.19463409034134344,-0.10754682197194859,0.005784396727869731,0.10685376763150803,0.1505642480530519,0.10927296062830331,-0.041179787569753386,-0.33553427952437875,-0.6296085781920158,-0.715832192003925,-0.6970361710539319,-0.6540195117360084,-0.6041260865657331,-0.5501971046629064,-0.4946978978281505,-0.4417869001881125,-0.4076555010693372,-0.4035388305873129,-0.4359397782175069,-0.48919442996962037,-0.5397881585350176,-0.5619362205254783,-0.5354246707951617,-0.44335024454987637,-0.2891148966860721,-0.1017300672023356,0.0733497451692294,0.2168982090678131,0.3308661471795666,0.420750215010604,0.4707543092888885,0.49393822191770653,0.516030992805103,0.5463172925024556,0.5846570318534089,0.6211164973158421,0.6417011298057391,0.6361176147455747,0.592131781248861,0.5110756580510901,0.38746789913119595,0.1816432864150425,-0.05537172635611138,-0.17821366480521988,-0.1843514715428796,-0.12204015352173953,-0.05196730038993765,0.016903752395841562,0.07311050211660837,0.09118153711598204,0.07428354080040944,0.04176217048432544,0.006739887212727254,-0.017859576018753945,-0.026037776715792604,-0.02058916893284285,-0.0043985178228089835,0.015175459381685028,0.02231106731848053,0.007256320532073174,-0.021837779271597354,-0.03892524490558146,-0.027390599111791557,0.029945065756669918,0.12392784402267022,0.19341079484518717,0.214677878997921,0.19836343051218264,0.15607244675091772,0.0966480453782618,0.031149345534874532,-0.024855906329043498,-0.060786616212865394,-0.06096120929874172,0.001014088440435841,0.15532969674572536,0.2832409506864634,0.3174314974680603,0.3223959616129531,0.32276035083266025,0.3277536042267968,0.3374899442271879,0.3439149832690881,0.2999992571194109,0.15569013716363825,-0.03574328801799755,-0.20143482136741472,-0.3085023553554067,-0.34091665054592335,-0.2973330889316884,-0.202792712799558,-0.09814463314508133,-0.03793446314956085,-0.06173921495796073,-0.16663372274811053,-0.28523686035482665,-0.34064685959018687,-0.31307968646353235,-0.2339931561658482,-0.14245236239653636,-0.06555459703360524,-0.014747320111487711,0.026574547597789436,0.08603152392121399,0.17461881087375505,0.27283158683267583,0.3341571725656299,0.3259105002092072,0.26991020930777093,0.19891949375376075,0.13403584455535852,0.09676515953767258,0.11449796702381673,0.2130794220154018,0.4068589979262967,0.6295496427726092,0.7700388063831413,0.8292109701904437,0.8467643431566745,0.846647866853275,0.8371128423368148,0.8172082369298241,0.7512526048159424,0.5618230731234367,0.2740050520857338,0.035581929104558194,-0.12098657255350694,-0.22983965966679937,-0.32550751438005965,-0.4304689593460813,-0.544061433500993,-0.6499422234995511,-0.7218420764643385,-0.7607702111205485,-0.7799737220102375,-0.7741609606578415,-0.7303824381483663,-0.6543723495945614,-0.5670179786604456,-0.4822939256649995,-0.39704944965170175,-0.29144951136275715,-0.15345867681554698,0.007069452881719152,0.16270987813014406,0.2934064148272419,0.392054014407743,0.469185986047278,0.5346575239420956,0.5854194839100143,0.6177317759899588,0.6308281216371063,0.6350784686914157,0.6494546865039235,0.6896872653184867,0.7482818805420947,0.7786145736537003,0.6902643140973466,0.12152558444969368,-0.4983782126785689,-0.6283081948269156,-0.5854203814279069,-0.45202158789760155,-0.25856136219109077,-0.07892278434833862,0.03608513234665447,0.07503459755896272,0.04442424165576117,-0.03836027651668992,-0.15258752812361695,-0.26744744485448685,-0.36495824794722853,-0.43032897925657076,-0.45590666660273416,-0.45056999444115764,-0.4366531054691859,-0.4241421069331263,-0.4096016154767753,-0.38387710383773166,-0.3423421586659366,-0.28519244229345175,-0.23548748643392475,-0.22416984094698147,-0.2681305021610957,-0.36015547626581873,-0.4701126006183283,-0.5537814129961137,-0.5765320273261496,-0.5178601032569468,-0.36098596342163564,-0.1284424897798364,0.09477260445719038,0.247308786543112,0.33598510851850866,0.39112045834185083,0.4272953889806894,0.44907473961420696,0.4517293141021242,0.4537622896777229,0.4886667878694544,0.579817619968199,0.699822645231224,0.7983214085605435,0.8297277838630127,0.7851337977474955,0.7038170232086871,0.6115221581663614,0.4983170319026239,0.36217078357154714,0.23163314847474192,0.14207413768202565,0.10293556086585022,0.10492998661118563,0.13653986045125696,0.17943913815334525,0.22263640822661054,0.2607430068784472,0.29390233485895967,0.32093979739406625,0.32519537228182205,0.30066065634757533,0.24662966857521373,0.16609851079724972,0.07225996549074842,-0.017193084496104245,-0.08709701737561931,-0.1345078838336535,-0.16782704687023686,-0.1920241057299745,-0.2138150035556666,-0.22778586599889247,-0.22034842022184226,-0.19104416085993448,-0.15566356573662732,-0.1303144502369905,-0.13727832231136503,-0.1798318972245435,-0.20349773118450093,-0.16653020548065345,-0.11998148170680847,-0.08530517577083803,-0.06143348446465757,-0.041261127441869785,-0.013019699991190474,0.034398710623124086,0.10299585936292725,0.179097792312751,0.22095426771736648,0.1977625437550884,0.13486942994043663,0.05030339726550381,-0.03970357423300788,-0.11124756984526159,-0.15249921797572444,-0.16734582265969564,-0.16736702577187798,-0.1666905780765465,-0.18039332787356818,-0.22330340325698458,-0.2989537896672379,-0.3820417988211738,-0.4525775589381023,-0.5095461395497071,-0.5595307726307683,-0.5931594598799587,-0.5948943601849999,-0.5519321202998587,-0.461038645327788,-0.34132545200939884,-0.2125244417425061,-0.06906194670467436,0.11614717612083705,0.38014770596251984,0.6786958617957174,0.902258142940745,0.935156635524814,0.8390404278020404,0.7403005344659257,0.6810083949233083,0.6599955395452403,0.6685203280184079,0.6923406553288937,0.7110789745282671,0.7077255690207148,0.6938318000379522,0.6838255159712961,0.6788729866828492,0.6738207230877973,0.6712518309720307,0.6638624440817917,0.6391411030980092,0.5814842661278695,0.49106259150578885,0.3911320495603408,0.3037290878972291,0.23031080848523242,0.1494421833152986,0.03492724398663571,-0.13409012946392623,-0.3279384542436593,-0.476136049319632,-0.548419849802676,-0.5632299422131479,-0.541189264231488,-0.5086828063849052,-0.5012577579601493,-0.5383066018752124,-0.6016919309885591,-0.6582505816921126,-0.6836769480907547,-0.6918528112585365,-0.7137489923683566,-0.7684558200510719,-0.8130234248091412,-0.7494604782300264,-0.5942212418821193,-0.42028933025584314,-0.21225471045199512,0.0198902904688018,0.17247962887595167,0.2401284350157139,0.2753684000154807,0.30765602475923093,0.3442644921723903,0.38501857227661834,0.4308304384770562,0.4829728723532305,0.5399933664894145,0.610081740621015,0.6889607550660064,0.7481358493325639,0.7589926933538038,0.7148524437004048,0.6244566946506143,0.5146375743303259,0.41864521409901545,0.35686439155328914,0.32541816747388497,0.30659044597833923,0.28105716726711444,0.2215877897389422,0.09927695901067854,-0.0793892111312412,-0.2591816252406448,-0.3872265774757397,-0.4468930170404565,-0.48116640513048037,-0.5436910013914508,-0.6386709813578698,-0.7198544666567971,-0.7630064133671677,-0.7671188254605273,-0.7351921966987106,-0.6714369468893602,-0.5681053765286112,-0.4171363950326293,-0.2614169627078424,-0.13522325294850698,-0.03629532598246691,0.06025635336455072,0.16695908887883149,0.3173636764802878,0.5346327782480289,0.73608642904683,0.7723750069112254,0.6971223897830104,0.6058779119765837,0.5253786241948152,0.4526588131109616,0.3810564844077028,0.2965548451837089,0.18158303927135616,0.026257707325163422,-0.15587423946160514,-0.31982127558221796,-0.43345255464048477,-0.4951735532119331,-0.5186553149370734,-0.5022915417063167,-0.4148787872295635,-0.2769340431284854,-0.16885545823748196,-0.10709534346656636,-0.06435663752331003,-0.011876606678992397,0.055013873029885224,0.13394859838362347,0.23563760814846993,0.36747553078002776,0.5183985609432167,0.6627757910480332,0.7734447988817617,0.8453166175863037,0.8897233557727869,0.9193830702134211,0.9387183947477994,0.9475499947705517,0.9434109104166314,0.923417369039865,0.8758111046044748,0.7437658188072629,0.2793474362426341,-0.49342135915789564,-0.7840390414148278,-0.8533979275780064,-0.8655299218450726,-0.8566681628144165,-0.8330816115305134,-0.7811641946065153,-0.6627882154944278,-0.4528424546277287,-0.23089269458882425,-0.10225182272557941,-0.08578805392389358,-0.1591291907508954,-0.2908018793515243,-0.4269230147062498,-0.5230639684995458,-0.57206661332811,-0.5841667280795281,-0.5782903371131297,-0.569080322616165,-0.5671770471371365,-0.5688417453910645,-0.5711335067660327,-0.5731552505063696,-0.5724387683330673,-0.5629578403556914,-0.5418609087996727,-0.501670347286096,-0.45334777464056164,-0.41737617348913614,-0.4089107226333648,-0.4467125129658233,-0.5284595568121181,-0.6007333911010759,-0.6208418130249471,-0.6193931499589665,-0.6217809722026009,-0.6457671744146111,-0.703311642250194,-0.7582303893439447,-0.7703749766437892,-0.748779145893655,-0.7237753574588458,-0.7022248602921878,-0.6805868250152162,-0.6491183050119335,-0.5992699139251264,-0.5346049805404343,-0.4621944392710737,-0.38107804214035473,-0.28028987285756,-0.1385894612453747,0.04357659597155006,0.23229380222082482,0.3867522712824281,0.4904063247432352,0.5464901007463514,0.5627769336025971,0.5424443945805727,0.4966936401779232,0.4444559418165308,0.40024775430943266,0.3714680191183805,0.3521383890846601,0.3257495906965037,0.2936634347716823,0.2681143628419647,0.2602525571677732,0.27049930150175866,0.2890453294884807,0.3078759242174034,0.31813784852829097,0.32296573347728386,0.3364408634998474,0.3707207976426201,0.4103941413602612,0.44326101296939313,0.47081392515518933,0.49085765422256566,0.5118513092516982,0.5545291050401827,0.6303576630246717,0.7388815894924377,0.8344319337345858,0.850801580703901,0.7492870860630698,0.5329274626420812,0.2307689528852688,-0.10212494410671999,-0.3845677565365853,-0.5617053257639667,-0.6442401411846365,-0.6576369125017838,-0.6186996575346568,-0.5375543113248649,-0.43522377942118773,-0.336600509647534,-0.25633206224511895,-0.19296198216146385,-0.13855079813681023,-0.10036301697280435,-0.09988886502834551,-0.16833304538771798,-0.30010202975307676,-0.4237346185926946,-0.4799586986118882,-0.45828494192287716,-0.3721181132392947,-0.23305722430688064,-0.04582683078736097,0.17432286443050443,0.355157280059523,0.4327600982686981,0.45266501142228616,0.4633247057147354,0.48312711869787367,0.5205528259987406,0.5693934188974767,0.626610257798689,0.6795731734156568,0.7242115908393697,0.758360984579047,0.7826664099273741,0.7911938356882533,0.7800985591742519,0.7530367743901238,0.7189122010388728,0.6828274638697828,0.6500884925179451,0.6226761368616752,0.5996014957958945,0.5727730541108084,0.5176666231186022,0.40824500566582067,0.23215077726322342,0.035788634079760455,-0.10996923989753163,-0.18075779769801137,-0.19960658297164247,-0.1944161233069681,-0.18537640905132283,-0.19056565693431807,-0.23073343370856336,-0.31475320965299863,-0.4223700179325341,-0.516741603301742,-0.5867374465916795,-0.6384799995811216,-0.6727419315495264,-0.6844687784392517,-0.6742380857562593,-0.6460757858977704,-0.6142231140654173,-0.594047405245225,-0.5855688740435514,-0.5480835154912149,-0.45057975438218256,-0.3363995909341906,-0.2442997076511244,-0.17285329263232932,-0.11657042356763422,-0.0758604344864324,-0.04429873102505471,-0.018722454997368305,0.01054231196619366,0.05308784509358624,0.10889457113729843,0.16299743077294662,0.2142047749090636,0.26455722103166845,0.3251001436479489,0.38465158203567096,0.42393082226159307,0.4272644844306838,0.39298094942234973,0.3413007902753451,0.2982946417975894,0.27496409797903404,0.27242067787747976,0.28677395806175504,0.31794004401814363,0.3602587661497061,0.40461777819326283,0.43090868053673526,0.435025447813477,0.42148082738453646,0.35729615312735585,0.17683951249275107,-0.049727233690090654,-0.2379799818662026,-0.4106641143787952,-0.5696534651562026,-0.6861864179351972,-0.7500905494963384,-0.7730332685510145,-0.7693102647994852,-0.7434855055648372,-0.6998341838572503,-0.6421639565111188,-0.5484386129142064,-0.4028648270038217,-0.21880934429505763,-0.06418779756864769,-0.01437191018651753,-0.06566354081013101,-0.1730783589373005,-0.2807887007968631,-0.37134092120284407,-0.45018290118486504,-0.5159482122885368,-0.5594447576954589,-0.5600227870670133,-0.5346377183961676,-0.5088811302959172,-0.48645230464136197,-0.4539045753331387,-0.3991736165516995,-0.32204125399910305,-0.23398829366636525,-0.14578791360762014,-0.07966685661652907,-0.05555954113287632,-0.05994123749740402,-0.05512508946930431,-0.017546309956888682,0.07823047567737342,0.23894185542754562,0.43242952289836867,0.5886335181344141,0.6553268242643857,0.6102215698448731,0.45015957970458365,0.22640687402445397,0.036857810898600026,-0.08482714228964645,-0.1384034531373336,-0.10928351322748335,-0.003768286770089827,0.1320162200300316,0.2545417408247492,0.3631920299689398,0.45962098248872524,0.5430105744844357,0.5929739363332351,0.5929100267541026,0.53687886845646,0.4451675096474625,0.3469600715976683,0.2730810695439762,0.2407325453852141,0.25202195611691297,0.3033689760621837,0.3946161318134059,0.5244956550605248,0.6712600410389394,0.7631456505101424,0.7428893958160994,0.6415025893718046,0.5334838918556573,0.467541142553714,0.45108588946059747,0.4692938343331487,0.5148617543448066,0.5846986208978987,0.657003837064785,0.7139135065831405,0.7479367328620152,0.7492026392465121,0.7038026207562107,0.6173295401935546,0.5150573101112316,0.43020044787198886,0.33641208483935625,0.13169422770989914,-0.15233476798298345,-0.33343074698330083,-0.4373021271084233,-0.5057766347416832,-0.5416100406258068,-0.5488791127683815,-0.5426020477101717,-0.5371353297227844,-0.5441644585926784,-0.5593608744239223,-0.5772877239483949,-0.603713243434238,-0.6362738837252193,-0.6596761070411044,-0.6646262564935331,-0.6353456869812484,-0.5562583456406416,-0.43799764212283326,-0.3396301164162082,-0.31892503269998007,-0.3748078753481909,-0.4559538897445359,-0.5251611001952524,-0.5744942441212759,-0.6095805606782307,-0.629037154836788,-0.6345266122487694,-0.6273817674219505,-0.5989952108368944,-0.5255558971062938,-0.3662156491256489,-0.12159915222806725,0.076582947661402,0.09360641197328075,-0.018555939876648764,-0.1528267813013032,-0.23572528579347773,-0.2579184959249048,-0.23537666435809643,-0.17958356812744575,-0.09075759381578265,0.07644811483119593,0.3752196986408466,0.6921604063850838,0.8496445888789071,0.8982064171034071,0.9155069209139176,0.9285991959821603,0.936342368019711,0.9356714956176743,0.9277408265785915,0.9117910807747812,0.8829181976854157,0.8282675873824207,0.7319608944170576,0.5910990984158495,0.4365906314392133,0.29605789907521696,0.16400748215369357,0.01067568229670153,-0.15980760170443264,-0.2834993002149249,-0.31590991567102555,-0.2791844545517611,-0.21476339679485268,-0.16136929782201215,-0.16080146384642022,-0.22503494339942534,-0.3326892958464528,-0.4442747251455683,-0.5224675972206595,-0.554733940195227,-0.5597522992467542,-0.5563903607641385,-0.5537620842246948,-0.5590610508374216,-0.5721234944453089,-0.5919639457847574,-0.6213240142993477,-0.6609177405916036,-0.7048207380385547,-0.7492700166818178,-0.7888042795290144,-0.8125914626910806,-0.817983039204287,-0.808729428841423,-0.7853630715240824,-0.7468241619419209,-0.7115126787797417,-0.6903551834823444,-0.6877024329702057,-0.6953093937477526,-0.7001246261154669,-0.6757239359079061,-0.5804886908746978,-0.4056195656493702,-0.22893950535846325,-0.11013988996018471,-0.04281315370902678,-0.01621779336926247,-0.018587706067368086,-0.024305266537979896,-0.018554614198536216,-0.008287030809800837,-0.008744207832229034,-0.013651384921107667,-0.007099830899441638,0.02141175493563584,0.07414146440927036,0.14123044320341238,0.1927425308699389,0.21914279940576453,0.22817792491558703,0.23445978028457914,0.2467394696427412,0.2579355476507484,0.2527305318680416,0.22040331200437516,0.16733039606999808,0.11562519120068558,0.09963330506281506,0.14867844166211752,0.24080190098193846,0.32425812622928313,0.38378564336293514,0.4212726941394328,0.40855120292286845,0.30823585407943144,0.0901534924528634,-0.22338486274668012,-0.47006331483271613,-0.5438841681865276,-0.4635103426559358,-0.34907759986540676,-0.29077746037262825,-0.2915942940959718,-0.31619672596572457,-0.32395465792151706,-0.287426700524362,-0.1712760197485127,0.025080909589452655,0.2394489503035063,0.39741375801087125,0.4912389127951161,0.5506991570530263,0.6030345281115733,0.6538126974658819,0.6950507752569283,0.724623820413727,0.7471240686321586,0.7645564701107199,0.7737650297740651,0.7753249059651285,0.7673429211239172,0.7372188328919429,0.6632754062764304,0.5238656467091332,0.30246537372582033,0.004762525868101784,-0.3256649630219703,-0.5932514297312073,-0.7439902881233564,-0.8089835260870271,-0.8334478782967251,-0.8381941131927234,-0.8264430027473294,-0.8010459791689001,-0.7636830123072935,-0.7067613696929415,-0.6085204827065455,-0.43442461181525094,-0.18079434292240648,0.06281715239657924,0.2200363227228366,0.2947148396899275,0.3152705467855773,0.3046417707230964,0.2791248439305613,0.2490396128660855,0.22418806253023196,0.21486785825023702,0.23222209438751387,0.2727318833834703,0.3187311645040258,0.3540648185689939,0.3647349489377161,0.3421092048987502,0.28354497847429405,0.20112975653002627,0.12885821602717493,0.08522052359570867,0.07772607220402529,0.11050810166279068,0.20038765697422364,0.3400886543752253,0.4706402273545473,0.56497518688143,0.6364646889293692,0.6999859734232667,0.7614087781766685,0.8119406503852801,0.8441347861803856,0.8507529638164442,0.8381278717281389,0.8194440318466587,0.8045936520458186,0.7813897298404344,0.7078977037955626,0.5340493189330996,0.3094411038060734,0.10057179144896959,-0.08041597834655084,-0.2504190872039188,-0.4229830284067691,-0.5619950271851518,-0.6469849441149567,-0.6853580589007864,-0.6994162229470332,-0.7021156230552749,-0.6896246645844445,-0.64366046861857,-0.54529321556983,-0.40914022869820654,-0.2775731810319988,-0.17333994754803148,-0.09469521975910375,-0.03257279997573048,0.026228183727349266,0.10136374961762334,0.19301333785753888,0.278648688607852,0.3457666179872221,0.4097473632427971,0.4943846633625116,0.579708751423424,0.6388196709233083,0.6553294925076691,0.6389974485309959,0.6095926167575058,0.583278860199952,0.555077326717343,0.4976799289291735,0.37401645881159173,0.18772567156962042,0.012803117537532743,-0.11656503225325815,-0.25099097467792936,-0.3695813955232297,-0.4509043154134837,-0.5335607908138765,-0.6131789514571011,-0.678696701642894,-0.7188853873896323,-0.7369419863396888,-0.7463510669080726,-0.7574726402147692,-0.7598471674806919,-0.7368406271519456,-0.6854228574358773,-0.6143676110261908,-0.531457085659918,-0.44257791216790093,-0.36097272811638703,-0.29349140262555795,-0.23601215356005864,-0.1733436262006664,-0.09845830902016799,-0.015479234326742319,0.06758536022345675,0.15534173283723832,0.2665659619729896,0.40920548952563124,0.560846832464714,0.66099877686553,0.6944951301878944,0.691087068815674,0.6803177211530151,0.673187058986783,0.6658026924163366,0.6582283344815457,0.6498137938970203,0.6369587402476894,0.5893450809480748,0.41427208391136844,0.0847659309314294,-0.15264568414260715,-0.25286092368961016,-0.27954840131513053,-0.2863381030084227,-0.30198223455547424,-0.34136023544247357,-0.4184879428950369,-0.5347531996312329,-0.6265556945832548,-0.6066211887579311,-0.508598847761413,-0.379204816040322,-0.22693273987695445,-0.06898884173643416,0.05424640705204923,0.1144933912486454,0.11600044788927559,0.07929811665305156,0.025189640032669026,-0.03155648305124182,-0.08565533936310173,-0.13635454890667012,-0.1877865230138408,-0.23353588129823613,-0.2628599773271763,-0.2873835721865697,-0.3125842139707744,-0.33805501434447505,-0.36055484412537997,-0.3836769816771968,-0.41800055770115435,-0.4692723429828646,-0.530420958862751,-0.5846355047233621,-0.6159980416879811,-0.6064278215563671,-0.5512280808860726,-0.4790947387043758,-0.4212869059156262,-0.3763408576196093,-0.3279512894026129,-0.26552374418625885,-0.17921229446626832,-0.08979781333731861,-0.05167637203566649,-0.07620761596034817,-0.13591878532081642,-0.19113608683466327,-0.21784033854329707,-0.21614715456104977,-0.18569482639710538,-0.12691049915929156,-0.047824860191303574,0.023639634130936036,0.07080855429158403,0.11133098692892736,0.17093704976871116,0.24992705674839824,0.3236094454133491,0.37925732534566325,0.43407272580825706,0.4981002295747862,0.5625450383787209,0.6099202965323769,0.6314326082987829,0.6481284767254728,0.67439002892344,0.70977429207296,0.7422795246785828,0.7642482594031565,0.7761189814447557,0.7876704045323567,0.8082311819747957,0.8374427878137009,0.8672537751171038,0.8867897496390986,0.8897389724540555,0.8757489863395362,0.8428459222253908,0.7803655028014691,0.6819918546996413,0.5940856538896755,0.5271276367559347,0.4337541482095847,0.3025570645831769,0.15941827544186113,0.03490597208367073,-0.0452677856082063,-0.08229065286407111,-0.11108620362392718,-0.17395433556022777,-0.2639490659918571,-0.35596374707116013,-0.4304093105292852,-0.48159898647297383,-0.5033320968261833,-0.49550861641122507,-0.4633645725149758,-0.42509074671918534,-0.39197175699828324,-0.35783440417902435,-0.3142250910866806,-0.27456899364754983,-0.24443182181737316,-0.2116162354938345,-0.15138541279720116,-0.08656599489183318,-0.05289286996766457,-0.056239311675397634,-0.08769293953928177,-0.1356152857419963,-0.1823019867901952,-0.21292255792175965,-0.212484756710307,-0.1864500000058145,-0.147244927979801,-0.11399363850854743,-0.08861362111389703,-0.07169080786025815,-0.06730338618657378,-0.08397633572149707,-0.13303271356837498,-0.2263179382569095,-0.3351352063680498,-0.38870434481064525,-0.3832534296501466,-0.3411026825924115,-0.2686956508366024,-0.15434680224448652,0.013062564869460265,0.22939565650589686,0.44491366311181807,0.59133115938538,0.661535194234803,0.6825202527256462,0.6665422868776877,0.6151122803979382,0.5319723377176356,0.43157576036250345,0.3344814831303621,0.258279265748856,0.20264458599968285,0.15206190729867106,0.09256197137574633,0.02964689109874053,-0.010174433903862247,0.001582396076397983,0.06565673634219028,0.14254327800371258,0.17973548426515634,0.17135855770037023,0.1344355223254708,0.0909865347914279,0.05303580438847539,0.031819481508766734,0.028326363742552624,0.040347822896500504,0.05699943754376241,0.06591044047059685,0.05911216084093547,0.04426722627488694,0.03513002871822517,0.04530998619663041,0.09561654292930553,0.17516589090844056,0.2332022362014313,0.20216726315893427,0.06408648506038037,-0.08734814034080107,-0.1720063507204107,-0.1798124220514734,-0.13246293592108543,-0.053445434179233094,0.0297684301930518,0.08219776708129335,0.06897267682484248,-0.0229824972625895,-0.1744162719279694,-0.34160486640051607,-0.4764843489388689,-0.5656144659425835,-0.6103221843550486,-0.6244619003681532,-0.6146347340805809,-0.5843208524912045,-0.5428167917974013,-0.49877960994835746,-0.45452461086443674,-0.41690466098175544,-0.3860446872204963,-0.36056751683903704,-0.3475189114379316,-0.34797096833633157,-0.3490300125454759,-0.34991487173171026,-0.3646234680345715,-0.41306526167302793,-0.5141657211117806,-0.6623350299592272,-0.785621120796549,-0.7754670839335508,-0.6691816177244038,-0.5635360095407842,-0.48532188380132585,-0.41158592035713637,-0.29479546583061905,-0.09280719904902611,0.11905040787328898,0.24018640747578449,0.2941829380655877,0.31527582072589405,0.3147910192399399,0.3088186448614856,0.3085361891705051,0.3251181291103868,0.3633847242888646,0.42611711304109223,0.5081115424001031,0.5993617803126703,0.6825788365062815,0.7448234275598468,0.7778833791465053,0.7631875805873192,0.6839333776429434,0.5662074637636053,0.4508335286163064,0.35633718119138363,0.28226619281407256,0.22196945446847033,0.16815148841267016,0.11608383397165364,0.061513494791170964,-0.004322146568276986,-0.09282528552095556,-0.2129634768859714,-0.3648855243757878,-0.5290920270229755,-0.6649873852064567,-0.7515841730388737,-0.7822501669403937,-0.7313330054993759,-0.5721418924461473,-0.40799521423810986,-0.33596361534661995,-0.34308354000720015,-0.39341659281886493,-0.45579186259678584,-0.5146143200332065,-0.5597994200718099,-0.5926285851165213,-0.6176602025250819,-0.6345748677244482,-0.6377805838448012,-0.6076923341780146,-0.5231183079668091,-0.38469727979561014,-0.21395164262886407,-0.04096739729587009,0.11410975377332386,0.244711786768331,0.358541136777439,0.467724898121882,0.5675921375126881,0.6373849349880393,0.6564299652508799,0.6478195418673084,0.6466983307120858,0.6609284067929021,0.679994067453536,0.6949389868193021,0.6958230155960697,0.6821772365011877,0.6595717257554552,0.6336729881451243,0.5976117095521956,0.5168072011427723,0.34920275292393915,0.11982458055286943,-0.09188317920771119,-0.19091466421137296,-0.19755412293007835,-0.18555510188490026,-0.17650339942515134,-0.17499866921509158,-0.18198885046414034,-0.18911507173815764,-0.19777564096979805,-0.2049332504057092,-0.2071791725432307,-0.19564032574597953,-0.15799542015447796,-0.09527623155485755,-0.021190932616339593,0.03192583905341767,0.0428839451627915,0.017984879536311983,-0.021333858527584203,-0.06383636364441345,-0.09917582491370673,-0.12866710695200542,-0.1485992189310323,-0.14986787759198866,-0.12193730809658691,-0.07787095615535265,-0.033353410359520684,0.011396509976552862,0.05187685891738635,0.058765626248440464,0.023824745837220607,-0.05093793632457316,-0.13657011611021605,-0.19031773303582208,-0.2111697748581005,-0.21348423896109517,-0.23349059331518693,-0.31303128023425836,-0.4469550744981445,-0.5890528448930408,-0.7193517226503661,-0.8153825445144801,-0.8519258756044826,-0.8565094990850379,-0.8609021430701563,-0.8641168579306726,-0.8450156145908985,-0.7922886027035,-0.7131809121102427,-0.6095058789394322,-0.49587480120913613,-0.39189419304215717,-0.3020182115407569,-0.22208599634955906,-0.15103305441485032,-0.08243088422269987,-0.015838552094069133,0.041611416976113265,0.10080600502428064,0.1787004419960138,0.2792007747169288,0.3801737950360152,0.46509965381522644,0.5338276835495253,0.5897097562513282,0.6336508744783418,0.6653155993796271,0.6799946137369992,0.6729850904829057,0.6389347206003226,0.5701792706624934,0.4616340885883021,0.3225732588378049,0.18889212560213461,0.10077396054233924,0.0775533982353917,0.11866630899781644,0.1998373755991995,0.28526300623525447,0.32673407277738403,0.26137121829382737,0.03845197191109707,-0.26490155800933035,-0.48141541118911213,-0.5835701835820394,-0.6162072960595436,-0.6023892949547923,-0.5557386445307422,-0.4858713771883083,-0.39027586799827485,-0.266076162145885,-0.14268035402923554,-0.027879006293248163,0.08550548403052463,0.19748854227228682,0.2934395652888344,0.36578485043755066,0.41275445919296805,0.43157270702283684,0.4181601571710653,0.37683703464263635,0.3076512734754258,0.19632285865213547,0.03827613099868818,-0.15790175217767166,-0.35089685055197306,-0.4910856674112419,-0.5640456916919825,-0.5742077301693498,-0.5270948405157028,-0.42774826307388475,-0.2861182234237991,-0.11191325483366203,0.053712832997725904,0.16139135357375908,0.20355193679342307,0.2139116880967011,0.2153238682154998,0.21041756770049644,0.2168099616668958,0.24832626579384856,0.3045926965525906,0.38753730202050335,0.49982884320828086,0.6181997266230694,0.6814559971477255,0.6790005285484175,0.6439393580257673,0.6061773077056148,0.571146497196411,0.5468843922762255,0.5441521540756578,0.5572169763052016,0.5721310688231379,0.5806463854726013,0.5804567007504378,0.576080083350376,0.5591596686030956,0.5124877256262076,0.4171886058137358,0.25079777145478077,0.016356556208910487,-0.23961606477535155,-0.43094758392825294,-0.514168925708811,-0.5333604584077543,-0.5366600958128293,-0.5478907489834931,-0.5737359148622837,-0.6089202629018405,-0.638545735374388,-0.642758642538408,-0.6011441325020104,-0.49808396519448644,-0.331007122260225,-0.17320016266308466,-0.11651633055235323,-0.17187331793675398,-0.3043819907472382,-0.4279956280942706,-0.47507288384694535,-0.43475836039056076,-0.3438018486436728,-0.23725272392555471,-0.16280499949046842,-0.14225354311994795,-0.1696588090883814,-0.2111763432804201,-0.23278498497136718,-0.22186642151515684,-0.18902892724972728,-0.14971151999546864,-0.1141073879888276,-0.08711695870887483,-0.06328290437932281,-0.028615922229668248,0.026991023971087547,0.1152898619893145,0.2287202391630517,0.31920805890934656,0.3582871023764063,0.36071294901782996,0.344089193785794,0.2999464607442385,0.21336001852677333,0.1017121802546429,-0.007891184661737409,-0.1057086167904763,-0.19342964382022568,-0.25611059226101734,-0.28542555638815664,-0.28469874629315667,-0.254678322485203,-0.1941327606088063,-0.11016517114847965,-0.023557921861789996,0.039359065230197464,0.04116445162474319,-0.07975111549201633,-0.33840496735744524,-0.6093423956627607,-0.7679559871342039
