-0.4192732885838315,-0.4423275335322552,-0.42466260498280645,-0.3621803088677516,-0.23255187854605736,0.007514632198542215,0.3240975162606426,0.6033862049365313,0.7677344086075828,0.8358580031354038,0.8556055902426497,0.8584798183761481,0.8562404099496183,0.8551444442663365,0.8574338282517054,0.8623585193069359,0.8646966272959162,0.8548135342890432,0.8179399968628084,0.7441617093633819,0.6204651582097427,0.4374737363259373,0.22286675991249436,0.047077945501353066,-0.05347519629675387,-0.06019169359476341,0.014855531114175497,0.08247949535801319,0.06891808276782421,-0.0264589165164303,-0.20645365276073382,-0.4493343339446141,-0.6641445269155052,-0.7958191581197168,-0.8653964827365649,-0.8991700703334167,-0.9133762115984274,-0.9142074385245985,-0.9027514782825798,-0.8813386993780433,-0.8618406275843515,-0.8593053694949694,-0.8695723176397824,-0.8796664413016161,-0.8788291859585124,-0.8553217036061942,-0.760015374071865,-0.36946694101191047,0.3885634181333972,0.7039300924401722,0.7899215929958302,0.8250759173325327,0.8460781631181572,0.8587750600371359,0.8599158112424519,0.8491391022120652,0.8244622944201854,0.7866882859240919,0.7451597271321373,0.7198102099266485,0.7278685068191577,0.7683661534732379,0.816018274388687,0.8413212053977763,0.8145161902658954,0.7058131344281603,0.5170523517773995,0.24065596696587938,-0.16747988784957857,-0.5382075570449162,-0.720438984742177,-0.785166523860501,-0.7920088478829657,-0.7570156324445693,-0.6831063205732286,-0.5926115560967636,-0.5507899511046137,-0.6015476832520331,-0.6959437086590916,-0.7696576121824233,-0.7958354686574667,-0.7651552081826828,-0.650352447028423,-0.4212048960110671,-0.1679961704694595,-0.047740586536937246,-0.06903880350309953,-0.09859697151703285,-0.006465898820245854,0.22113904250465652,0.47084375966145403,0.6236625266828166,0.6840440253337806,0.6874350371225346,0.6533665142833562,0.589922216148148,0.4891654100555713,0.31492662024097157,0.07062413270761439,-0.07895893042568872,-0.13227370760194793,-0.1544177574088091,-0.15828810764812626,-0.13663395913972282,-0.0801396136372627,0.00017910170394548475,0.07007452166393864,0.09705092218175272,0.05397851849087268,-0.06710660250491818,-0.2443626188207329,-0.386134999802299,-0.3401893158091165,-0.10796648201920933,0.13555480816293525,0.30674126652359535,0.405834130244017,0.4418938449940714,0.41987965512427566,0.3431185474122015,0.23021077395868503,0.12127481829873508,0.06866333567106245,0.09361545146026497,0.1770760302885697,0.2813797123972776,0.3805021784063608,0.4752209959533775,0.5751415256602999,0.6787685634037518,0.765651138217999,0.7933452941698632,0.7453019005924322,0.6733144481113295,0.6195805157324854,0.5873349248687739,0.5576032263519561,0.5039769639276677,0.39088919814708795,0.1840765200552399,-0.10733006868988508,-0.39240522773532394,-0.5895885419904238,-0.6963329041743802,-0.7485859442305985,-0.7763265751399921,-0.7987042365786138,-0.8216503237334652,-0.841301750963545,-0.8453450861886859,-0.7911135770399147,-0.4582396066190675,0.5281021185095638,0.876813595493765,0.9312929396127045,0.9197218397203079,0.8415551661294504,0.5989839662777028,0.09202607169566115,-0.36421164318521343,-0.5878066855389673,-0.6875209887385296,-0.7310294837235797,-0.7432345540386462,-0.7356722760494873,-0.7087317096367894,-0.6501881512502473,-0.5248017208348021,-0.2665021672719513,0.1319461550999554,0.44402627842714404,0.5607538564778786,0.5438994060615477,0.4057103086826581,0.11656418053268221,-0.2577116123488662,-0.5380036737875443,-0.6862333561778627,-0.7560082529413635,-0.7792058466732249,-0.7440128406370096,-0.5218598516243522,0.33045491123461684,0.8565096368365952,0.95201556434526,0.976434403486255,0.9849323767712139,0.9878855873936151,0.9879030968651111,0.9842078878194643,0.9698378144400367,0.8935582977543064,0.11118133600010154,-0.7540692289445193,-0.8508912578692381,-0.8496024122368486,-0.8223378532162232,-0.7822648573703769,-0.7260611206704104,-0.6444742488613908,-0.5443088447165888,-0.43936719206077457,-0.3320382597590625,-0.24548576782593917,-0.26429989421778166,-0.45452425511828304,-0.6897315761278892,-0.8221860548098172,-0.8788609517069856,-0.9003691196782682,-0.8993193301030727,-0.8756160091754381,-0.8272583415213011,-0.7645170574714963,-0.7108829081657766,-0.6736072929821835,-0.6456963400750043,-0.6427999541558086,-0.6875272511922125,-0.7557050481492733,-0.8034028894039046,-0.8167807697770113,-0.7991879284988738,-0.747515805649455,-0.6221853144174847,-0.2509724686985469,0.5935808827799207,0.9271447926224455,0.9672144667656237,0.9698901485981629,0.9700369671830857,0.9717496143531554,0.9728467722330101,0.9696417901866361,0.9578343182290584,0.9341356230658766,0.903547713736118,0.883338074871632,0.8795498480750288,0.8832288523530731,0.8846321656998286,0.8772922743237243,0.857575228374406,0.820502677702152,0.7578981090999025,0.6557646398984303,0.49445527018680313,0.274662905696097,0.04948880990127943,-0.11958632090064551,-0.2033246706008293,-0.19169095037861422,-0.06655003775688785,0.14234884208066356,0.2824288231278935,0.2601111556955745,0.09896756137614549,-0.15267219467939402,-0.43663654094341264,-0.6809713401540222,-0.8366693170574121,-0.9151643204465879,-0.9519311939869494,-0.970029698283486,-0.9790242569183651,-0.9810970623729931,-0.9711385897565008,-0.937775383375871,-0.8856461934878855,-0.8385185214268647,-0.7996368635123395,-0.7563960007868049,-0.6986693223449151,-0.6197812906006853,-0.5164733830260512,-0.4186047407096697,-0.39222206616607486,-0.4683518765515613,-0.6096898759629444,-0.7494939181468457,-0.843833987649404,-0.8885212654849185,-0.8940726972735537,-0.8678581091225945,-0.8094834836092585,-0.7098912658686146,-0.5538544044365068,-0.33068947635979434,-0.06672578279775229,0.18124845227746805,0.37398015199790424,0.5153416925045596,0.6196446341590647,0.7049601218433877,0.7740417399851474,0.8279454375893325,0.8680029820666877,0.8965008147342134,0.9136998208018984,0.9192431766705335,0.9099526813916053,0.8727646127620304,0.7972428272158238,0.7071938354209913,0.64792812516883,0.6384528820975746,0.6678557319682895,0.7092608962960768,0.7461455152930604,0.7762454089674194,0.8028819460602754,0.8285171027704052,0.8553213677615922,0.8867434439135959,0.913160340909336,0.9116124044384397,0.8775421475355859,0.8315670172634375,0.7793437070553025,0.7151409143130347,0.6276870439815914,0.5119473310158716,0.38314014955419806,0.2688678302673113,0.18001884705783933,0.10637569849726716,0.03456835141380806,-0.03477373176527066,-0.09484089735450504,-0.15274956644136173,-0.23311619757651172,-0.3382515748572387,-0.4280665098390857,-0.441510903609498,-0.35486658591161796,-0.16355303488243703,0.08644525293646085,0.28233758713123136,0.36693406378218,0.35502136282164914,0.27115430544862373,0.1523621360140585,0.035266968784243874,-0.05775483896667613,-0.1201104858702903,-0.15290421561221407,-0.1723441858918816,-0.22886922267020315,-0.3694271472486938,-0.5233076323971424,-0.6427885858268056,-0.7333858210309757,-0.7989565742822663,-0.839605274402443,-0.8595913708709223,-0.8645169260003315,-0.8584461495345267,-0.8434199385369661,-0.8207472899947587,-0.7895544294101268,-0.7490946533121147,-0.6955793660053637,-0.6172219223841744,-0.5051564672056165,-0.3906781563979837,-0.2987825420065098,-0.199088722764542,-0.01798594179207032,0.2901222734817852,0.6001479062843735,0.7735527377596761,0.8423791293013492,0.8574232702571589,0.8365707184361983,0.7764929262829073,0.6673702192779685,0.5220184237604163,0.39082848523142716,0.3156130048437358,0.2973443591611494,0.3089232287751327,0.32812048745132993,0.33595108354309833,0.3153822558679155,0.22985782209329653,0.05196390662186392,-0.1595609695182431,-0.3183903887043892,-0.4137555741118776,-0.4718117303173388,-0.5062793203759381,-0.5264862808553908,-0.5396039348349947,-0.5614251966488404,-0.5937265093505183,-0.6159990368864402,-0.6159324290485119,-0.5940069766218863,-0.5615973001656063,-0.530084470665288,-0.5102071926816397,-0.503566589505597,-0.5016634485588659,-0.49457367047305056,-0.4757401354550788,-0.44530180363226674,-0.4046693842530975,-0.35258440257658735,-0.28403251396218887,-0.18941672773518659,-0.05022564896719537,0.14731899570528784,0.36724696883344515,0.5458964581867084,0.6656736005237286,0.7500210041345062,0.8238263817204511,0.8913386235368758,0.9377017684191437,0.9597382643436246,0.9666388477081604,0.9655280236076275,0.9579405298991222,0.9399473333007407,0.8984469684078243,0.772375866987889,0.1718091348429619,-0.7754820642954227,-0.9534802187151051,-0.9845592942346804,-0.9923971304293902,-0.9941352930924597,-0.992865915798071,-0.9884480756026011,-0.9786068894012362,-0.9585372632340743,-0.9158755099088881,-0.8092688609881029,-0.5018677753720567,0.1265929922381596,0.5750607497105381,0.7000827291029771,0.6184715532829056,0.16265468435482805,-0.5848694417198674,-0.8642081941634189,-0.9345216605888714,-0.9541040242112269,-0.953857591913849,-0.9291069158756625,-0.8179194351042322,-0.43119103240827233,0.07355489486084954,0.34442262240046057,0.4728955354017953,0.547544266462323,0.6027512300740229,0.6599396359564977,0.7299966960698638,0.8017642798577,0.858457327291409,0.8930752138449245,0.9080260678466365,0.907811467777828,0.8934877386368245,0.8605111652425854,0.7999637701986482,0.7057575364365359,0.5936704350676137,0.49719473280295245,0.40051337731713765,0.28397177395355816,0.19260704114181434,0.11539851055300415,0.021800053110316502,-0.06477759137796378,-0.10199182480621648,-0.06360526616497914,0.010623733594422001,0.00614132545093735,-0.13552753757858704,-0.33289559861689066,-0.47137670337431925,-0.5353591101959955,-0.5641683882438374,-0.5847727904887245,-0.6018152228955262,-0.6108032900119313,-0.6025284578927707,-0.5552324591436788,-0.4505747904017965,-0.3428021146862514,-0.31684323246212887,-0.3501280910428237,-0.3538407631441691,-0.29924477886119377,-0.17107846654913156,0.13715922454093765,0.5335451211714115,0.7317878387471444,0.8033868726281983,0.8274527612570709,0.8235176724028581,0.7885949166710343,0.697118179527871,0.49929562229015567,0.2107891459702322,0.0003156214932849629,-0.0466219376776635,0.04203613965870098,0.2303425696511644,0.4672279587060768,0.6834001711055345,0.8255492436582232,0.8911706254747624,0.8947660936760442,0.8375632968557409,0.7201924197131733,0.577094079658679,0.4718369041674047,0.442790889048366,0.4811523136153775,0.5535740193840735,0.6242479025897096,0.6736772833016114,0.6968722780732264,0.6931087471576528,0.653012735556214,0.5697425567774211,0.45578298823412755,0.32817315461873825,0.20778068044408615,0.1044330671112314,0.017834830949984417,-0.0635448429808158,-0.17218424115518785,-0.31750699530596516,-0.4461856115104666,-0.5156040186096806,-0.5099581697082813,-0.41033966738992333,-0.18678355878001138,0.1263502739882598,0.37033872529771034,0.4367258835565109,0.26240913612448336,-0.2735189473168819,-0.7469048102009503,-0.8990746783195879,-0.9425161620986243,-0.9562325215320788,-0.9592913305536895,-0.9559595394536125,-0.945265313384438,-0.9228101959348034,-0.8809760186675663,-0.8173164968272213,-0.7514573960679993,-0.7029286214392371,-0.6720950970701726,-0.6499199208357412,-0.6255929895640959,-0.5883313064914849,-0.5233454554604524,-0.40508447463558844,-0.20259264434279714,0.05047969376723401,0.23668191471530942,0.3152820277138002,0.3134013399514051,0.2579608377867565,0.17985338785310973,0.1273136594310412,0.1754933786003417,0.3702227095135439,0.6027632775251519,0.7437437889962812,0.7943014017374559,0.7816983476963966,0.7324749484518915,0.6769429147855479,0.6381805541749174,0.623962395643176,0.6312004257323315,0.6465113141169284,0.6486727228158728,0.6196460224166959,0.5470153154498956,0.42915160851379397,0.2905683277542599,0.17797293970522435,0.1279180669738877,0.1345705418919062,0.13896433874897715,0.04504888497947569,-0.23212405163713773,-0.614908068949553,-0.852251388274137,-0.9101088692387249,-0.8104264167391458,-0.5235895216491647,-0.16821934438261965,0.08878027777168672,0.23827569693619072,0.3301364640349383,0.40813718350313805,0.5062927718868587,0.6386794027505779,0.771631463557974,0.862278050260784,0.908673244107641,0.9282280125345175,0.9325047932481656,0.9257876053040972,0.9049228055226254,0.8521602232074925,0.7338732973677456,0.5605097903453378,0.38307835205222635,0.15314802958111312,-0.22714175811991394,-0.6303596808250445,-0.8398374424826409,-0.9140344712202123,-0.9360695924025902,-0.9347571537544824,-0.9091544133654352,-0.8146456491142593,-0.3722512341087046,0.1361379123289678,0.1008296468513864,-0.1344415110333282,-0.41904041932417374,-0.653754040982499,-0.8021643304878903,-0.8759392567002161,-0.901727114542932,-0.8880979148244362,-0.7680592101257885,-0.05158627015279126,0.7653085547037257,0.904043601100417,0.9068073363148149,0.8212009571715462,0.5011731424286908,-0.12906052447263186,-0.5284041279130479,-0.6630854974936348,-0.6735338073946555,-0.5639693204709088,-0.2097991515321626,0.37119075086266096,0.7091949939568336,0.8266053345589665,0.8571787325750666,0.8417007014489585,0.7877324698301407,0.6673689392181692,0.4075425410986258,-0.015966051112426993,-0.3386733453999517,-0.413806537355871,-0.36038273749501026,-0.29157985919767554,-0.2665385040679341,-0.3060133379761681,-0.40060666163143416,-0.5213874269445092,-0.623881693017723,-0.6773562364783713,-0.6678778016076748,-0.5901009552453441,-0.4669881315654731,-0.40823649672277607,-0.5009675065150657,-0.5996824093214415,-0.5420484484397646,-0.13045519727091803,0.4857722733114423,0.7710820310912744,0.8732796767217558,0.9149082576620564,0.9285273655770987,0.9200314878323261,0.8756599480856033,0.7234130081171617,0.1604990481515391,-0.6254804111425998,-0.8749694228485769,-0.9387756577164883,-0.9576024124181997,-0.9614076512330628,-0.9563466514499309,-0.9381649917389707,-0.887219302575074,-0.7566491947729795,-0.5038826975879734,-0.23573567569310794,-0.020252688493754157,0.1449476342553378,0.1932598783776547,0.04150007538584595,-0.29424768812290003,-0.5708953320157393,-0.6583214238526693,-0.5263581355371101,0.02593525612051396,0.5819804018468073,0.7416201271318794,0.7632419598553108,0.7447399831981122,0.7211000105350718,0.7220190021489175,0.7804601162446013,0.8692835799009412,0.9024173751321745,0.8691856251032013,0.804545553902128,0.7164020434704144,0.6027741173410306,0.4723459636654745,0.3485801594249602,0.24900920640109864,0.1749743583755148,0.1274926063241465,0.11024034450863403,0.11501948863439952,0.13304702750844588,0.18856319807940605,0.292811619174707,0.44049336988021853,0.6023737861420723,0.7367642680211673,0.8203164736092038,0.8582064410868517,0.8642276683893471,0.8415218675264633,0.7700695464600105,0.557144300452378,-0.040691421637324414,-0.6594976534027505,-0.8606079568208223,-0.9138836186253593,-0.9164876584107722,-0.8728288496634753,-0.7730755244628287,-0.6500348468195233,-0.5627597317675029,-0.5132193221253959,-0.46522615444628207,-0.3923784338088261,-0.28019177058811273,-0.10345158227000185,0.17252939047169602,0.4577694984138961,0.6282766587955951,0.6942439184729605,0.6843419281690953,0.5683747787811515,0.14614583465848385,-0.613654872200735,-0.8371694945252572,-0.8694474879963434,-0.8841928685291867,-0.9059821528416717,-0.9309425455894548,-0.9452400408856606,-0.9334454022839375,-0.8831129294288289,-0.7814607736744319,-0.6016036532548577,-0.3008429061951108,0.09821558795382357,0.45409983600734766,0.6865040203124847,0.8228540994003392,0.898020731913238,0.9267767382420138,0.9181488959946954,0.8862596227030864,0.8430704807545933,0.7943114726076662,0.7494783024989577,0.7268742268317429,0.7302009740091269,0.7352840857914523,0.707392490732316,0.5927810512554265,0.34336931172637064,0.0444639880050953,-0.18731859422575364,-0.3383483512092871,-0.4219130874469167,-0.4449782941787347,-0.41139455513685885,-0.34156266322395695,-0.2526571694899807,-0.15503960023938984,-0.05408712151245491,0.04640488005154696,0.11287913483138927,0.08148495124976925,-0.11902984037591338,-0.4696616365671935,-0.7387678150411365,-0.8519307416071541,-0.8815459960699445,-0.8490762842178251,-0.664895570713414,-0.17786435348396426,0.23623954959136448,0.380596917961791,0.3961267679120047,0.33968519148938725,0.20940955778888226,-0.02350370830771156,-0.3448141115483573,-0.6319003248345061,-0.798614385350093,-0.8735025440408545,-0.9105154069008347,-0.9347021630527851,-0.9444950266507226,-0.9295120362257769,-0.857631436521378,-0.5540666124430389,0.31398360846975537,0.7724369532462556,0.8868023390305986,0.926383656237786,0.9473888258004647,0.9598713207641514,0.9413054209867655,0.8352681937042983,0.6421217489604624,0.40472458825181634,0.12045837877930593,-0.1658558912992225,-0.327251627637943,-0.23973031491129276,0.1669712947661937,0.5574573419580967,0.7025470705148493,0.7083834794753645,0.6175650014613919,0.42755677219843935,0.18974374297995694,0.019057198205768806,-0.0301788916295625,0.013161599555073518,0.08836192129945632,0.14154900980092555,0.14102251673792038,0.08583178416810311,0.011037112285053167,0.0007023520390602904,0.1188578902131646,0.34919139009522493,0.5952344272731589,0.7709886349704738,0.8623164414162321,0.8988658297983151,0.9037909022698148,0.8833458458309731,0.806294146061402,0.540349012880249,-0.028415126909525933,-0.33403231366840974,-0.3452182737032374,-0.262460182416673,-0.16522716659396752,-0.08864449878584973,-0.053692916478397565,-0.06872564883262773,-0.1338900690188003,-0.24719492815619853,-0.39841017104782467,-0.5640853232070535,-0.7152928802066576,-0.8319449268359834,-0.9094867095336558,-0.9537849032742014,-0.9744674624418966,-0.9807364650546481,-0.9792010665094374,-0.9721014044979363,-0.9559475964313926,-0.9168141534583277,-0.8276046414889585,-0.6668463747723957,-0.47321754852116654,-0.30597082174077533,-0.1693917773508347,-0.035539545159745,0.09105793299790828,0.1713041973048212,0.16561115591606668,0.08172324735856809,-0.0223321011840047,-0.0711416672586285,-0.021614111937525333,0.05697575376259919,0.10364976126270789,0.10359766579368142,0.07476222903977074,0.045766714567450295,0.04715237746782132,0.10703608804552668,0.24584445787996553,0.4474017762722544,0.6520849609042162,0.8052914773367915,0.8948411237288811,0.9388866532805527,0.9576341955560997,0.9634072801226498,0.9601206648295041,0.9465475912600596,0.9210912276450491,0.888210917417657,0.8549474495327621,0.8259555505799187,0.7997568979554927,0.7687216733135983,0.7207610613923374,0.6456500627826837,0.5281857605896039,0.36398490203736966,0.18238516067475138,0.03548369211539509,-0.04937725468355903,-0.07523080221439535,-0.055078149094713695,-0.014944059189676735,0.01969259232731095,0.03410610845078551,0.03661492886434804,0.05740757228102972,0.11798863508071408,0.21676639180756374,0.32716307280978807,0.41983544522507804,0.4888090716202503,0.5464034834662598,0.5966346750288646,0.6292842566415782,0.6401006787907504,0.6330265996328445,0.6154474414188414,0.5710121646440272,0.47651765899322956,0.3876513358739563,0.37167098985635505,0.4157546065591214,0.4578385257596424,0.4194385519749163,0.20815096854915707,-0.20054689123926628,-0.5436976515542951,-0.6895636432711765,-0.7148722316473701,-0.6071632562223829,0.027615629187649454,0.814947615714527,0.915049481972458,0.9281116260761462,0.9286363269131923,0.9197159693868111,0.8890313826932257,0.7923583216816852,0.435333389220745,-0.3743203202556749,-0.7708468956579789,-0.8772604192736176,-0.9183519540795415,-0.9436149540579404,-0.9629212107693762,-0.9768109651734235,-0.985789229351268,-0.9907407953401356,-0.9924112011779622,-0.9913347962533082,-0.987654825091936,-0.981167395655632,-0.9721635597985854,-0.9627371504475724,-0.9554583572232763,-0.9495804328047318,-0.9419155066807338,-0.9278141325696538,-0.9002461539836655,-0.8339744243046745,-0.5976878219679197,0.18586781323108184,0.7177346067404278,0.8356991146979917,0.8540043908785949,0.834661599521492,0.7850109687927305,0.7032214557316208,0.603031279107062,0.5415955210793534,0.5829666099016447,0.7036739203755441,0.8020143570890977,0.8442596722997013,0.8508376146523112,0.8408109496488665,0.8256363557510383,0.8107837734992466,0.7929284691783866,0.7605525012467715,0.6936788298566715,0.5717414785394075,0.39111028292905675,0.1842949347257506,0.003503116741015242,-0.11097942844545669,-0.12176288773640637,-0.07500389053444843,-0.084782808730259,-0.12047557349819228,-0.13244671781001435,-0.1134748222605337,-0.06950092977158764,-0.013024003428984871,0.05416307900022747,0.1513705199384409,0.31070405548085817,0.5443797009638027,0.7743478639392747,0.9070766398609242,0.9588732984977809,0.9744135970245311,0.9734571588146359,0.9624752872967864,0.9450183068275859,0.9202495455318611,0.8742885007653808,0.785182280407247,0.6562610394007933,0.5183436045481167,0.3846385839541849,0.2508393505205587,0.1211318236433707,0.013579199930331512,-0.05757468435024818,-0.09751663164223125,-0.12613980651311765,-0.1790115794105666,-0.29261409599661603,-0.448478413457349,-0.5681874560908236,-0.6055133421649435,-0.5471121594043662,-0.34452894305638965,0.06610352728032559,0.45656299962745595,0.5532551754822626,0.30793184236800464,-0.2572068193585445,-0.645805581779576,-0.7882515249341998,-0.8328912920851146,-0.8389430429474672,-0.8337748323470718,-0.8362405872387253,-0.8540260897405931,-0.8787930860654148,-0.9034598018541042,-0.9215370568659516,-0.9266964688705833,-0.9127786180710658,-0.8815107915595631,-0.8435508948611028,-0.796987651393108,-0.7038871235586903,-0.4878776210061513,-0.15543947088633622,0.0467154787794021,-0.05019220025447782,-0.3588678493473115,-0.573657834955816,-0.6368652747222583,-0.6183800168330437,-0.541700382452445,-0.40308924557556025,-0.19680625541897317,0.03694950807770833,0.2232276293223863,0.314538473044143,0.30506137363813196,0.19200955683653304,-0.006048009282427814,-0.20598772999945816,-0.3049428202377335,-0.2630742691851992,-0.08308985194732808,0.15582704374768813,0.3318343271013008,0.4114413521522179,0.41699349314560413,0.37478001495609536,0.300757303013525,0.22787878121768332,0.23167312922196653,0.4131097459030968,0.7054330603616614,0.8152130580233291,0.796117931994451,0.7411422271800848,0.6643835651929617,0.5683828751679363,0.4502803141670309,0.3136059866183046,0.17581977035742544,0.05996244129035366,-0.019622099220780193,-0.0614513164769779,-0.07688696761248036,-0.0840429591388459,-0.09803369247156087,-0.12049874419007771,-0.14281143039925562,-0.15797523700596736,-0.1624375659584942,-0.14083954522638767,-0.05897722218997433,0.12520295560306227,0.41701014027645444,0.6204192489590397,0.5944702664907685,0.45433037480495103,0.3256037635250917,0.2998185629593624,0.40217385297684144,0.5734393852472948,0.7247833496077911,0.8206226366470597,0.8711847542148589,0.8923987770326678,0.8912434647032167,0.858149617963228,0.7131644629438347,-0.0006267014332035304,-0.7501958853107638,-0.8844670028224236,-0.8967785806992742,-0.8657480344491604,-0.7955393277786985,-0.6950828227529284,-0.6134810054584129,-0.6039041886971391,-0.659229558026602,-0.7312187497846043,-0.7905060926024551,-0.8347387141769311,-0.86933994095987,-0.8962779875706767,-0.917989899509445,-0.9377281687516094,-0.9540109287707498,-0.9577892472122695,-0.9311386164173688,-0.7966474107152921,-0.15026444315387583,0.5363694417302739,0.6472698274659733,0.5272680315404473,0.23969958578018433,-0.040358227401049884,-0.08719980340511818,0.17356173329372762,0.5457749507926997,0.7518562931753642,0.8328158652136729,0.8595761868849686,0.8602544282015112,0.8474747087068224,0.8256402628464481,0.7867433518897763,0.7114243925487812,0.608105052500885,0.5524073517225614,0.6003061396719132,0.7033010822403422,0.7858167149294574,0.8288223345776704,0.8481180757597686,0.8554983855137789,0.8577988063163433,0.8620933843078789,0.8735808942971435,0.8884953905983727,0.8855600024634669,0.8324768791693677,0.7227379703476183,0.5845759406386013,0.4371632359988991,0.27111588718806134,0.07346719075298364,-0.14075614953228438,-0.3370287360511748,-0.4786146489899746,-0.5376841581253313,-0.52566878451362,-0.4900100476739612,-0.49490920586778914,-0.5741261813658799,-0.7032419829595185,-0.8092968264110794,-0.8618232413255653,-0.8642671541148571,-0.813461688890569,-0.6744681109069643,-0.38599607012890363,0.009697993467750871,0.32438170836927555,0.4944064741125118,0.5621854364138088,0.5618982914078328,0.49514175436096824,0.3199054975626238,-0.20166051859072567,-0.7799145962080313,-0.8609613374975564,-0.8603080899849539,-0.8424685285390117,-0.8021210515378896,-0.7201077977756158,-0.5667262186022923,-0.334378068099024,-0.09567555951254482,0.1091637088929995,0.3020220359234177,0.49786761435821814,0.6709546383242663,0.7905553319683163,0.8565829262957261,0.8794771365392664,0.866864937125904,0.8256785844820865,0.7681970806511184,0.7014080758556088,0.6221648576321923,0.5333678180692528,0.4489783317174832,0.39437063297966984,0.38691452435491586,0.42089293127156296,0.4774707010185005,0.5370802502248211,0.5799831868205294,0.5884078408705928,0.5579948593871359,0.4947030741516613,0.3943497874914693,0.24609921712725455,0.06849758076640484,-0.11232669676545946,-0.30355119172729456,-0.5069277332853621,-0.6887365192345979,-0.8056974775999823,-0.8611397843943797,-0.8845018259589715,-0.8995491479865567,-0.9151516374075005,-0.9292369001245169,-0.9369984228513842,-0.9360107581554193,-0.9238650089630768,-0.8941270235213598,-0.8261105246515974,-0.6487293512758053,-0.19835490611713671,0.34637586761539013,0.5561946503115727,0.5074323671276632,0.2586712004387227,-0.05092201212727563,-0.23181455204164794,-0.25742162579958316,-0.12954747867374064,0.15284790950315588,0.4675521323605828,0.6499264623930141,0.7198150410697807,0.7229541467307931,0.6559868420320165,0.4768765108381379,0.22409186019462268,0.060701652804363654,0.029516011080557833,0.10348888771795461,0.2481149281479118,0.4079967371597289,0.5339606835177773,0.612937208355668,0.6470030369414189,0.6430951362487439,0.6072052190453225,0.5481916772704263,0.46691329995550773,0.36498052956680155,0.24732671314394591,0.13060910961920702,0.0292252689145417,-0.052101421463770954,-0.11521503981841057,-0.1609881490067816,-0.18957286618576866,-0.2101590755947131,-0.23740868967574288,-0.27591673795212973,-0.31532420925894566,-0.3390560326500329,-0.3226408582835858,-0.2617852604952609,-0.15889861810393613,-0.017568974747050936,0.15254023393377517,0.3187021778368216,0.4438850619675158,0.500509936531771,0.48429393952644684,0.3955919506292953,0.2431920594322352,0.06957484735437051,-0.06490448529637123,-0.14506900201509193,-0.19765852995440922,-0.25032547883845047,-0.31902546406010696,-0.40655003455441435,-0.48950372853392915,-0.5439923319988941,-0.5598697206379557,-0.5362675507769125,-0.46141900122857615,-0.25150676604571626,0.07579986196165908,0.2190265754598905,0.27352378926167836,0.3137636278435421,0.3617405503049679,0.4118241372392,0.43612344172011386,0.4372133274702616,0.4788060732238797,0.5645202759898551,0.6553750792636743,0.7256269266807699,0.7743061228760834,0.8043402337780052,0.8195575827934277,0.8195561834582414,0.7928696299069784,0.6966289461449464,0.41988701961778374,-0.06950378865448893,-0.4638249873950547,-0.6802349066385468,-0.7998224843459177,-0.8632854958408311,-0.8883937161932155,-0.8814548686955972,-0.838225574364562,-0.7355855277879612,-0.5200596114833912,-0.15436063730703142,0.21076930777186167,0.40800953879566587,0.436777508657502,0.2893389017442969,-0.04062543273257653,-0.39683402514416316,-0.6311354069572154,-0.7608682106384659,-0.8284028887764324,-0.8540515000097544,-0.837657491356798,-0.753797056635836,-0.5029840840953353,0.010500805621575357,0.40286525544153506,0.44310798079728514,0.11254304095137174,-0.47694842343338206,-0.7819244829263673,-0.8767214594269195,-0.904239847422701,-0.9046693578084456,-0.8846274587833156,-0.8315333477782252,-0.6944151796293961,-0.3483535479190745,0.2062745152021928,0.5935963715966215,0.7692320974383298,0.8582388239183053,0.9096877612320353,0.9375606978492704,0.9472463490851176,0.9403515675111751,0.9117910115505473,0.8392576153454007,0.6925774606232169,0.49456227404109715,0.334924897984647,0.25264821610522664,0.23284861010417177,0.2576938191366366,0.3173455967161947,0.3965431224268852,0.46744068267437333,0.4964315756921199,0.4706556682769049,0.40158163314960327,0.32048150718092017,0.2753035392841981,0.31981000836296897,0.4814045660676022,0.692311905941042,0.8366680183738229,0.9054244303844459,0.9300773826102942,0.9241070986806839,0.8743434979559603,0.7206464042335745,0.4241989292600652,0.15181405400991088,0.003734839085839818,-0.05807962846053515,-0.053840179963603275,-0.0013914550719931651,0.06548915947158584,0.09829994140454835,0.06738600047317321,-0.017748809347240255,-0.10825865058217336,-0.1589620361355635,-0.1695336690354562,-0.19585756399768833,-0.29289045303976907,-0.45753930291930517,-0.6129569972259622,-0.710973106939153,-0.7586167625781185,-0.778519588925817,-0.7920342606211771,-0.8152871388498827,-0.8531786419831501,-0.8944542573735621,-0.9255667180586267,-0.9435481442686171,-0.9512552456626525,-0.9523971476204808,-0.9455424342848351,-0.9189835100744196,-0.80954768763551,-0.3597300007912152,0.2639094198938016,0.5580375630069796,0.7146950139903654,0.82851100283455,0.9021566156980936,0.9339170132874425,0.9346118525492274,0.9158428907575541,0.8859310873646354,0.8507038010759232,0.8125893660849511,0.7673512595272657,0.6969269118337655,0.5425737625103456,0.13984187207237236,-0.5057127001315116,-0.8288600331574962,-0.9191242248506094,-0.9386097808593807,-0.923169786562659,-0.8506957936103211,-0.6087639183209002,-0.06653871429111968,0.3822552095720226,0.5422571017124206,0.5666660161542703,0.5490786290126343,0.5298412811991848,0.5236790453420969,0.533215582832481,0.552639858363237,0.5741574745464207,0.5892289222903423,0.5960681733214059,0.6095117556262798,0.6513725908801938,0.7208516592208866,0.7910417743646811,0.8432995319483427,0.8783197781959069,0.9043522024497033,0.9176355688819471,0.8986769770138463,0.8083951597492021,0.5848507340073567,0.16416942915211427,-0.3273093480862733,-0.6512440967291945,-0.8001557463386271,-0.857215747112151,-0.865188733934739,-0.8368348919497574,-0.7743990420219008,-0.692734894752891,-0.6251328505063776,-0.6058615416323214,-0.6334695163126087,-0.67306899578571,-0.698001117661403,-0.7112041342676302,-0.7370887720085104,-0.7877234648885361,-0.8330570203840597,-0.8385965707792743,-0.8033889829889733,-0.743315718041171,-0.666067683652577,-0.5616327661063576,-0.41525725640884725,-0.20830034322391314,0.06866982484991489,0.3562812737988488,0.5201230448557463,0.4666552392038425,0.12154323575217492,-0.20081787624869823,-0.23393975923541466,-0.15390991139016638,-0.05380414405648833,0.01699975281403526,0.025693253264858218,-0.05454521756075373,-0.21202173918676928,-0.37937896395968257,-0.4894209917038852,-0.5313937041792137,-0.5316127034759812,-0.5484825546237048,-0.6443138583669371,-0.8040931480525727,-0.8980930030458941,-0.8996266253424479,-0.8658408165505603,-0.819032242056525,-0.7333077100969413,-0.4612921703648447,0.22422554549762974,0.7107361061814703,0.8756790901068457,0.9382925995052315,0.9657368932517831,0.9754412732336505,0.9728951924013747,0.9591261772597239,0.930342138000468,0.8760006883438218,0.7920478978234721,0.7016740955681033,0.6459659475672941,0.6532302806461588,0.7071896065494584,0.7585273224857683,0.7716274496404445,0.7138980774219473,0.44155042741499895,-0.32551090185870396,-0.7894134110626794,-0.8994344582652984,-0.931593675895486,-0.9436534740128766,-0.9470647931379766,-0.9426221305745477,-0.9281365636862238,-0.9017766294258432,-0.8627920905720375,-0.8114988486751242,-0.7475424345320706,-0.6714161648687902,-0.5790339024268446,-0.4552599406264627,-0.27314929545383276,-0.020057639271488906,0.26244329631972013,0.47794442986625707,0.5811770470016882,0.6015313787389514,0.5635286873145647,0.4306752712570602,0.19132431289868082,-0.08239581396609595,-0.31746150282544583,-0.4717006256010847,-0.5391754755219066,-0.5185747503519306,-0.3803944815786478,-0.06629133526183155,0.3224798107758933,0.5636333527557392,0.665456205280362,0.6984634391304403,0.6979877244440037,0.6781697717219426,0.6422792472202749,0.6007133217521986,0.5722251422591562,0.5684194200892156,0.5886840854745966,0.6246354414231535,0.6669688460145909,0.7075036198561627,0.7420928187736351,0.76092723328946,0.7346703606406058,0.6040222119338411,0.30415260895282487,-0.09160210481499621,-0.36271426114122113,-0.446019567800432,-0.3820731687228115,-0.25906515081438825,-0.15021189241369814,-0.056680648118148894,0.08134484988776768,0.24190955384474955,0.3633961799927266,0.46100877977105187,0.5481204156019515,0.6301150464106751,0.7046921415359788,0.7658617899557104,0.7999860382088099,0.7929936635950446,0.7375338431693942,0.6415413591840854,0.5279970822040565,0.4222141640457856,0.3367784330335636,0.26406396781130675,0.184040217535696,0.07723838952532418,-0.05649522208984779,-0.19301128402646278,-0.3009816496644155,-0.3665552640043208,-0.3987945524860725,-0.4097089793892848,-0.4079675995102992,-0.39391736952824985,-0.36767825151925526,-0.32150553402729654,-0.23816015159391327,-0.08741307029179794,0.16357667416945967,0.29599189438393925,0.32028757701046945,0.3328959178421475,0.35809124859250036,0.40424166988874843,0.476853840652587,0.5363943159983307,0.5585166539134101,0.5628348927781605,0.5351895602829606,0.43235107141745605,0.21249015953005768,-0.12780180638526006,-0.4496716306891978,-0.6266339265383027,-0.6829526802045001,-0.6665278396638706,-0.6152276183356207,-0.559440404752096,-0.5235302327347281,-0.5150696853873201,-0.5262539776636639,-0.5550253114280383,-0.6067227914580257,-0.6819357505582084,-0.7600012085764476,-0.8228094187655512,-0.8626301919383955,-0.88279001135421,-0.8853012920683476,-0.8574963262187856,-0.717007935913745,-0.10740853549994803,0.6137617711230241,0.820643131568327,0.8805381939361407,0.9059346098775728,0.9220073330513264,0.9337883570250185,0.942703029638072,0.9495112747208975,0.9549116277272833,0.9581717148962422,0.9570166828589372,0.9496327453554638,0.9262904019460256,0.7900678666327026,0.1866391072021492,-0.3310640085456772,-0.5616517720872831,-0.6875497983402801,-0.761026000408444,-0.8037907925038068,-0.8299332193890291,-0.8480673539736231,-0.8588492783879297,-0.8616946231739305,-0.8589025281714429,-0.8530951855097092,-0.836845696547131,-0.788909992594653,-0.6859976520316277,-0.5337762026072274,-0.3885022083551456,-0.3036114422768405,-0.29022772673495606,-0.33282865496167685,-0.4068592926939616,-0.48384559592253246,-0.5323245426027482,-0.5460123012521471,-0.5431643359420695,-0.5431393907726235,-0.5531282632755324,-0.5716457039408953,-0.6030870126894932,-0.6488923042242881,-0.6951303874382859,-0.7106375822751797,-0.5772269649040566,-0.008115913708913902,0.48990587604517155,0.6531554097137092,0.7097640919382665,0.7465161817551117,0.7883282015340584,0.8262583564798782,0.8524782450794064,0.8663468078654049,0.8671434134372459,0.8559189108374842,0.8335756796610228,0.7999374598617193,0.7513542686908136,0.6908646564145611,0.6335731081754998,0.5859409943662635,0.540447622724294,0.4868931297804532,0.41467172977688166,0.3033060466345619,0.10710333436377238,-0.21399195643309207,-0.5584196531563964,-0.76820302310671,-0.8609363583750691,-0.900092039931125,-0.9151282248179379,-0.9142686546018156,-0.8900508042588511,-0.8069919080109852,-0.5594415737103374,0.04459994144801548,0.6069419732727439,0.8171509684463564,0.8847985540679784,0.905722031676981,0.9083339598685174,0.9019736870952522,0.8907624146412233,0.8778302593479249,0.8729577418901435,0.8857295133990638,0.9083222498414733,0.9283479457191783,0.9386952975773358,0.9375245697277815,0.9217037837267893,0.8794599091038294,0.8005689926951922,0.7293272498303203,0.7429582248869017,0.803818479381621,0.8415158334223829,0.8349935639491989,0.7643942332479191,0.5199735045687518,-0.10113437269225818,-0.6246591640035993,-0.7968325931817596,-0.8405003044423656,-0.83591729951322,-0.8061329230740798,-0.7790422070855031,-0.7999637431019643,-0.8601762867726261,-0.9101700770996862,-0.936219298748476,-0.9460065541364054,-0.9442635442035662,-0.9302697658006497,-0.8973780323597236,-0.8313003193479162,-0.7082202501384379,-0.49631862599767934,-0.19142413420322404,0.13635903970681262,0.3571490646649431,0.451047878014267,0.4720075048685414,0.46199395566668106,0.45483062345025893,0.47424799233239234,0.5276584976058393,0.6072768460634552,0.7013323298775109,0.7941652547261517,0.8671619560826187,0.9143851838251494,0.940019196031098,0.9426996110487662,0.8940973483922311,0.7016818944989521,0.33674802828882094,0.05327385649946894,-0.0693737771837816,-0.0994702784580661,-0.09015397763911252,-0.08171422498265336,-0.09868112021486324,-0.1434585255347324,-0.20424289096766535,-0.2627873213293888,-0.3005861694508294,-0.30392698302322396,-0.2659938507503062,-0.19301177727089586,-0.0995700433747713,-0.008093848572488304,0.043180444717625374,-0.009084435568473485,-0.2187083764143966,-0.507552274474081,-0.6759231761589898,-0.6971941015186405,-0.6170700581120239,-0.4796992615326564,-0.36257228304744626,-0.3520533313407687,-0.45694422420560465,-0.5955298983298132,-0.6991684543130455,-0.7579288185435719,-0.7882974105674226,-0.8068614537903935,-0.826652250630699,-0.8545067629016092,-0.8801272101944418,-0.8792030028838752,-0.8187666354617467,-0.6473018337299795,-0.32401675812502817,0.10999420573458694,0.49130707413311653,0.684485466143841,0.7532080984622904,0.7848593005665648,0.8099624687883992,0.8275671159685055,0.8288707990391899,0.8081610949282014,0.7593838545161651,0.6783267378089224,0.5571233810963195,0.39109594965946315,0.16087467627747895,-0.15994054713301958,-0.49125305027465244,-0.6963044303524321,-0.7805804578297058,-0.7974400713045158,-0.7742257565903934,-0.7259745656326966,-0.6631541426897536,-0.5891344740845518,-0.5085319028086664,-0.42767390480042367,-0.3410107844267414,-0.22507057569251435,-0.04382505546385966,0.20843731514689837,0.4421117204054606,0.5813783610138524,0.652859622973339,0.692997492017208,0.7193661260177501,0.7379684002628581,0.7463121035349692,0.7325797520759927,0.6686965592599704,0.542661418530048,0.3970085022785729,0.27982964865996074,0.20764969747806547,0.18529383952846307,0.21953108885256406,0.3022520063260611,0.39410460117497903,0.4256907601655894,0.33273985215831314,0.10255353980094535,-0.17353186153318698,-0.392020069171778,-0.5430258606677026,-0.664964484220237,-0.7755850821061062,-0.8611039469282208,-0.9098141188173722,-0.9335132919172775,-0.9441502964562805,-0.9486638122743899,-0.9500810182070635,-0.9483758059372445,-0.9386363688007415,-0.9056536779101738,-0.7930821590294016,-0.3007867328157532,0.596696791524628,0.8609939208207298,0.9183281057841974,0.9314021360080603,0.9284434784224044,0.9154107605845556,0.8892239052974068,0.8391826150366967,0.7603681409819929,0.6860809410181647,0.6315217449256102,0.5390513607482991,0.33198737598803296,0.0394461311631863,-0.1316584464709928,-0.09140237369570398,0.1125011767822263,0.37866257697385125,0.5947195966511114,0.7310213859929903,0.8126589829592553,0.8642126414670301,0.8962467869836673,0.9144804230140484,0.9220993445596568,0.9201195815884424,0.9049135755917026,0.8725447256083902,0.8228500726445258,0.7636357986598776,0.7061591404884899,0.6551788109717257,0.6106079969723995,0.5655578383986275,0.5028468595623441,0.36385332214580357,0.03672624416518276,-0.19462150477814727,-0.18018696894337707,-0.12114915864678412,-0.2321205295109081,-0.6132344698845767,-0.8834992777342631,-0.9601624791574834,-0.9833497057148252,-0.9932320638620298,-0.9980837604486364,-0.9984890557753454,-0.9879113257667465,-0.9267988449706563,-0.7074921581576871,-0.536748505714362,-0.6473515743121351,-0.7655021005054294,-0.7729590984942541,-0.6744118863369084,-0.4234483814890471,-0.009415695677972112,0.2992399856677194,0.3154031817579002,-0.015584719512614168,-0.5220832690730037,-0.7780442021794105,-0.8620902375547959,-0.8862019946919726,-0.8849233205211585,-0.8690377355140111,-0.8574629828478258,-0.8733992841842487,-0.9034905775686491,-0.9199092093907618,-0.9071632852467124,-0.8308061095080715,-0.5812468085234418,-0.10394258200831775,0.26829751311079664,0.43670114867591114,0.5165874218809869,0.5755291508079177,0.6416663297173957,0.7161992419761024,0.7983625750750146,0.8836642715825173,0.9502248635348488,0.955313634702784,0.9063753736861248,0.8574200212641814,0.833198745229788,0.8305945964084097,0.8364088614754802,0.8386980125771121,0.823887638108771,0.7644322025443787,0.6344657691774097,0.445046970442822,0.25135890642022585,0.10697799552971371,0.04947162968926479,0.08967511460366122,0.2006264496250918,0.3449153777709031,0.5002056696325985,0.6478229411455553,0.7631560583017792,0.8328608872348184,0.862729381860664,0.8646344431217011,0.847610135156795,0.8240479857898695,0.8094147682061777,0.8085933131350512,0.8102179656704126,0.7980603657677836,0.763420956390187,0.7041123780477581,0.6442013230203572,0.6291734882076441,0.6731115699713719,0.7304319682492307,0.7475448470820372,0.6815373282594326,0.40324166779896464,-0.14497577556595526,-0.3971324596548204,-0.5054722377334385,-0.6304176645205006,-0.7714595889114724,-0.8794520689510891,-0.9321754203635153,-0.9413081292300134,-0.9216339526546086,-0.8762329739053341,-0.7984647702800383,-0.6743554324671337,-0.4961751262094409,-0.29591239366045186,-0.12486005673277323,0.015428073079897351,0.13562907365062438,0.18473696669296577,0.09018176869336177,-0.15612000610447588,-0.3996799194767713,-0.5240480970899719,-0.5554504504276588,-0.5206696717185731,-0.426064827885981,-0.2759992534502339,-0.10070550165668517,0.04243427940648451,0.11782979074301102,0.12485985261316805,0.07964732924147463,0.0025102690415519983,-0.08933182235050423,-0.18173307871800365,-0.267944425345721,-0.33993234935663164,-0.3841464527452586,-0.38065276770070483,-0.296805621354366,-0.09231576279877854,0.21699992371604576,0.5155365085650876,0.7125692162323511,0.822436055019396,0.8573057093080875,0.7610072389549934,0.5651096723067541,0.4920612447087076,0.5673662657675029,0.6854005075611068,0.7795254695365103,0.843567815152818,0.8861362151549268,0.9128352295627398,0.9266102440582064,0.9302575888689919,0.9238715153216326,0.9030791268634205,0.8565457617379172,0.762688254964896,0.59210306227032,0.34123190918619584,0.07023667114829744,-0.14088685026497905,-0.26990447951054025,-0.33855738511033107,-0.38386453382370467,-0.4537755815641958,-0.5637081115894529,-0.6674054067670321,-0.7198571288641658,-0.7142202283292961,-0.6332132539794144,-0.416858658994809,-0.047874307562497484,0.26369086739483655,0.39903213798856935,0.41629366707677934,0.35287568348796466,0.14657953401591273,-0.4076605125248035,-0.8775338492873251,-0.9751180287087766,-0.990489697778194,-0.9931418093721402,-0.9928858192588041,-0.9908799607356331,-0.9854093845771297,-0.969300418598814,-0.9149201073862419,-0.7433954403589214,-0.4284972984925265,-0.19829603819414446,-0.12422946073130002,-0.1187502184123157,-0.1127914768946079,-0.0679467099114796,0.027150181146091128,0.14020140105298104,0.2290187931241992,0.28234020371695073,0.33222838228222473,0.42575838111116476,0.5686364829422585,0.6911063048126324,0.7555630454173026,0.7676537657280142,0.731666328912693,0.642040902750506,0.49290175373450174,0.30119979538708513,0.09070251490095117,-0.14121942302856724,-0.38500591821640645,-0.5976410968506864,-0.7504434371518877,-0.8506591018670836,-0.9121442168272851,-0.9501190588759639,-0.9744684845507299,-0.9865580917352761,-0.9765027269635939,-0.8576248975087299,-0.16727788178696568,0.5315206029677083,0.7402733494876003,0.8180276451544378,0.8584877561480946,0.8807222738917139,0.8863075541844523,0.8724967067664563,0.8315305973238635,0.7660462242972506,0.7070120879236991,0.6887498463101179,0.7197080135860847,0.7785540222779213,0.8357944061977671,0.8661365214881449,0.8717231974457605,0.8684792078185498,0.8633841754435407,0.8527693141440181,0.8332741438156933,0.7932628866127162,0.6891017925821074,0.42527193349864545,-0.010686085792298869,-0.34331419287456216,-0.5046443503450214,-0.5730458526612694,-0.585725332426095,-0.548892892623152,-0.46487299118798403,-0.3633143576261584,-0.30243489018253156,-0.33264549803159,-0.451223871756893,-0.5909794737336206,-0.6885483488201044,-0.7253070960609215,-0.7040564471764913,-0.6261326568887557,-0.47735435408573007,-0.24646245813063997,0.024428140515053025,0.20552790498480145,0.2440535476067495,0.21888162062108604,0.19497443790258362,0.15724104398801794,0.06288025329948548,-0.08882578032056569,-0.23687151768919595,-0.32590324359341866,-0.3412958018359794,-0.2957664386034519,-0.2034062925099127,-0.07851779757472943,0.06011249245780617,0.1936499922417756,0.305419092716003,0.38136184540625123,0.421637193464741,0.4267814916698636,0.37277074712349645,0.21827939650341951,0.0403159919755635,-0.04036943223335552,-0.021457154944029194,0.052700862431486584,0.11670254326551217,0.08197783335861449,-0.09941001458551864,-0.37080910129277633,-0.6036929748115076,-0.7434152380911485,-0.8174220320589851,-0.8536826578965295,-0.8652039972976208,-0.8548225575585595,-0.8146593353774741,-0.7226597046205321,-0.53795527517053,-0.2248956829147271,0.13657709903487728,0.3918004841052844,0.5039064455107749,0.49968075069854934,0.3620080544165803,0.04303089034282593,-0.3616044884391962,-0.631543976690805,-0.7543130466231256,-0.7898166502179851,-0.7614148148826806,-0.662806030581871,-0.5010152856826675,-0.2997735103213164,-0.0682659677973216,0.19253695295479012,0.44826026374151934,0.6473429788735318,0.772033973506341,0.8402570257775872,0.8722880002474848,0.8818214625543719,0.8806280674027968,0.880542812589833,0.8899238453457213,0.9060103248469739,0.9208758005495942,0.928731868675755,0.9287570039988697,0.9213746022329906,0.9055679067832397,0.8790312744285549,0.836555285915299,0.7735736442669009,0.6873060667841726,0.5829848033126925,0.4549749394589803,0.2716351111820056,0.007374102994318224,-0.2933699718832923,-0.5188966369632149,-0.6136531001124764,-0.5727610715948118,-0.32494112383835516,0.22579434907065718,0.6928268598804485,0.8729738195046622,0.9329316231133103,0.9526623667452903,0.9537714463896664,0.9318880557136423,0.838234453915616,0.45311603315296894,-0.24552463226535196,-0.5651103796965157,-0.6349710075925744,-0.5876467547413204,-0.40985984540751574,-0.053443007043689615,0.3406007027074434,0.567354031496045,0.6558270830427758,0.6738009564973503,0.6682977650350881,0.6715222873433249,0.6646397524502253,0.576944354244903,0.33730163322055334,-0.015041054705719793,-0.33610942054030235,-0.5418895144040986,-0.6540654634735908,-0.7151980494222656,-0.7526007068487139,-0.794165456844645,-0.8538891926264682,-0.9048916937302928,-0.9313965447142413,-0.9373972133933015,-0.9300134214297001,-0.9117194099835186,-0.8709582578988906,-0.7314296471469023,-0.27299061210885245,0.21408143900012075,0.35112139163668993,0.30773589079499386,0.16642498531159575,-0.03465235691015718,-0.2329779364019397,-0.3770004600941004,-0.4627555299545293,-0.5025680453879728,-0.5001657256622792,-0.45288877313655224,-0.37148409772909197,-0.29780437480343197,-0.2744047446319707,-0.3117035734847222,-0.3991701576982279,-0.5265726574046719,-0.675732893857458,-0.8137268920267027,-0.8929284722490146,-0.8713987255300361,-0.751788900887229,-0.5991054425770836,-0.4695463137622167,-0.39065313977016597,-0.3816501523576985,-0.44684751327426614,-0.5637232844134951,-0.681629846517959,-0.7564572612923688,-0.771743335471515,-0.7143378297815193,-0.5769305753122234,-0.40851986321266553,-0.2700547375078959,-0.1670830161812396,-0.07001432608010309,0.043507442999910925,0.17744477322460495,0.21773725430266408,0.13872549095046213,0.07026407374237151,0.026264600190144233,0.004349879085335793,-0.004255945573383372,0.0017824443075998761,0.02293935362187481,0.06673067363244888,0.1567257712804373,0.3085043488044902,0.4713294636231562,0.5743565734112747,0.6218297963773933,0.6465031459514134,0.6681634053957803,0.6931871729668353,0.7226985761285524,0.7539011521051392,0.7771018852865392,0.7820354873904698,0.7606032046938127,0.7085747343347905,0.6239026440983751,0.5125085013001229,0.4135013540374972,0.38619864539297993,0.42426728075543996,0.46062190477873516,0.4440447448854507,0.33473239304958347,0.10293087624790301,-0.21235129170773517,-0.48232548669708647,-0.6495223610395147,-0.7444502422875608,-0.8010444761669604,-0.8351392740709628,-0.852079696091881,-0.8513838162229965,-0.8264099079681314,-0.7744853262895045,-0.710422396128296,-0.6554465294733516,-0.6119568694315514,-0.5771710282061507,-0.551568167641788,-0.5346690248036421,-0.5151493850806058,-0.46723256768606697,-0.35851115069186096,-0.18743907150330313,-0.010930482909486186,0.056766701099133295,-0.04784858211351974,-0.2263260365224983,-0.2919248883020946,-0.24561833011232448,-0.1838403218521744,-0.1586069687139706,-0.15536304640004908,-0.12396599233506934,-0.030431872805075328,0.13658888244073683,0.3660483939837597,0.5968692435514757,0.7596861753768174,0.8256578963071199,0.810209113047845,0.7655932220081189,0.7419786493046981,0.7586505616191158,0.8058888222922298,0.8565767033072355,0.8920136811338338,0.9092082405353025,0.9121435381000618,0.9032301910374653,0.8692745264159409,0.7484184538532154,0.4628960018010926,0.17930480120877693,0.028043925826116808,-0.047630327277228476,-0.10585105559421674,-0.1780276125534628,-0.2747627385742596,-0.3842174350531051,-0.4877209117663787,-0.5661774042456311,-0.6124703337730981,-0.6332385689476591,-0.6567477423318469,-0.724132464839376,-0.8077663269916443,-0.865105853207943,-0.8958573418636061,-0.9141083643476828,-0.9271830257112871,-0.9347841933903466,-0.9331571382444488,-0.9211217340256913,-0.8998907068413091,-0.865143002592068,-0.8083278645045349,-0.7223110385396633,-0.6279188189646976,-0.5876151062688089,-0.6419115799798154,-0.7442033111937746,-0.8103817100718487,-0.7870154287263258,-0.19431106599494102,0.8395966111501566,0.9537536745602032,0.9789004423579107,0.9808592580364845,0.9735870024146352,0.9698380126313904,0.9737413731180186,0.9813034454964041,0.9870747013461896,0.9889740731141048,0.9885084623152917,0.9868519741902375,0.983401030970666,0.9753640500978874,0.9563571896944827,0.9126081437604625,0.8148060474133334,0.6258208056250957,0.3785240022028259,0.19413098078076446,0.17400309952675772,0.3456776920517825,0.6130669407745356,0.7939928244329748,0.8673192799462155,0.8837948405231045,0.846096294986262,0.6171092367931832,-0.2755168970197793,-0.8009631954464106,-0.9146326586014187,-0.9486921059008949,-0.9617410331126728,-0.9669162375773185,-0.9697912475710564,-0.9721812523826974,-0.9610049085727139,-0.88131170175124,-0.6893657383436678,-0.47313588489992436,-0.3198944946899891,-0.2220938350348056,-0.1447392010070804,-0.06723019336139632,0.005550108856902591,0.05608870004417248,0.06406531832311052,0.01004348691782974,-0.1079004109169471,-0.2589278564938483,-0.4030672481124461,-0.5416842613627315,-0.6915054918857987,-0.7925537990196543,-0.6408462619847238,-0.37062864154290914,-0.18098476446044168,-0.06707343996069294,0.006460955086919905,0.06190371566547966,0.10702454648268729,0.13873369851630685,0.15280410750673112,0.1484097060244693,0.13241636355011535,0.12345092664711127,0.142505751941837,0.1868137361446771,0.23088145881830338,0.24918239607162884,0.2298704435367153,0.17306307685892883,0.08950388109921029,0.007342913480920301,-0.025399163669834548,0.02752099023457186,0.17275526668603672,0.35124638381456535,0.48013850791208346,0.543214265619512,0.5717639062154869,0.5889197104808997,0.5892976518275894,0.5409394910043396,0.4002798913531546,0.15777771788366848,-0.08361935073763097,-0.2389434031057446,-0.3293096510606631,-0.41304044611155105,-0.5216998676096023,-0.64125955970914,-0.7348088961050495,-0.7830852268094223,-0.7881732886214554,-0.7584831111473549,-0.7005916832464816,-0.61508475412378,-0.49882354724978284,-0.3581244322175495,-0.2305321641894586,-0.1841071103060622,-0.22510895812633397,-0.2841155217566129,-0.2848637463753179,-0.19189915603577515,-8.244242591173328e-05,0.24136867829448766,0.4255353576331404,0.4894900874958553,0.4340454169624884,0.27525761278062166,0.052706534828026064,-0.14937043351382556,-0.24607772350259424,-0.17960756130414554,0.10993992164527001,0.5489842577187202,0.8050560761669284,0.8063134889765108,0.6654205251605482,0.4554693090596426,0.2506391130028005,0.10449477252002391,0.010357883696323332,-0.0639977291678776,-0.14432725909634553,-0.24356745600462062,-0.36684348011575,-0.5097231162642815,-0.6554484966672951,-0.7776815597509137,-0.8564326522057687,-0.892166623015617,-0.8993737540906819,-0.8911642929462426,-0.8664072929361777,-0.8027691024682583,-0.6234098795406795,-0.1617398544701594,0.4117508549170583,0.714131942234032,0.8459461471611917,0.8948855167825052,0.8914064603146028,0.8714175745082252,0.8606256638990143,0.8613732905418977,0.8644535939602287,0.8550100275907477,0.8140724611070924,0.7133253511513994,0.47376444045186095,-0.10618856291469386,-0.7214118052146603,-0.9150284111229399,-0.9560249599998583,-0.9560007712020849,-0.9273220996248893,-0.8083168383108711,-0.22456817944307197,0.6102729262610388,0.8325043112805544,0.8851483380855402,0.8983922927493343,0.9021773754027266,0.9087298619243719,0.9207280890634383,0.933378219420746,0.9433049229965474,0.9509177122200407,0.9558554204539098,0.957080385231731,0.9529821334951274,0.9399094283733875,0.9006235976413796,0.7460614414308439,0.05828320034377967,-0.686760585394461,-0.8675077951404697,-0.9059278181731988,-0.8993834548259562,-0.8452287219678493,-0.696855274942385,-0.41874045781835056,-0.10058765338838556,0.12297771575770453,0.20250445029290481,0.17612431580186266,0.11636693061668141,0.06039539667045004,0.02099849448002593,0.002954873295995171,0.011215514212978813,0.04999421927678182,0.11951234696178158,0.2090892854828286,0.2900915013973467,0.3446096663621238,0.36317612152761364,0.3539788905627555,0.3404928949513614,0.3359939998575404,0.34467489169845644,0.37990394615919676,0.47995908281257676,0.6356189239652865,0.7388027071671285,0.7330189096023122,0.6850962613753983,0.6438255953245824,0.6269936886827238,0.6263380452666123,0.620187686419897,0.5995640286662709,0.5751158951119159,0.5642324626581129,0.5800570164674543,0.6266367381953983,0.6793951830120111,0.7076909641437853,0.6894143861070554,0.5995991579736826,0.38224193945536444,-0.04650967734999857,-0.5291952180740589,-0.7719823088329585,-0.8549279899192826,-0.8846980222580729,-0.8987382925498811,-0.9074882629368456,-0.9116491631867166,-0.9074655521274255,-0.8869872980422313,-0.8316398281160109,-0.7243267378474075,-0.6322139323452756,-0.6722967033130705,-0.7810444456738096,-0.860448388565663,-0.9004604265080969,-0.9155873567055213,-0.9149151286332735,-0.9016290177899722,-0.8784961641658107,-0.8369853190123867,-0.7283261206233562,-0.34706145082882855,0.502401876736311,0.869875879743971,0.950050231514431,0.970602912007236,0.972902592855224,0.9674894366806773,0.9607487332639824,0.9544877904565546,0.9493034162260865,0.9441869279916696,0.9361805492502642,0.9173542095560333,0.864048455177268,0.7255308327026139,0.5179474093946869,0.4015558908407006,0.4209300658270587,0.496090994578914,0.528002958612004,0.45297323141423596,0.24624279861696458,-0.007384215548248363,-0.18152978361551037,-0.2991332037004509,-0.4427063632934569,-0.586773574205036,-0.6441527621459656,-0.5456083597910364,-0.17079436664331335,0.4088843353666754,0.7368104601243303,0.8325627385503688,0.7951137222435731,0.45213960855926666,-0.35240334234142756,-0.685724798409445,-0.7773178282404802,-0.8176319392979929,-0.850105362181192,-0.8786269149785516,-0.9016701104035723,-0.9160400065993363,-0.9137792211800175,-0.8738039887605117,-0.7166645320649635,-0.23287906802606423,0.2668970670832425,0.31311458635273753,0.0061448364159759775,-0.3716294837507258,-0.5676936873746304,-0.6508857442956948,-0.70253085762496,-0.7563579501637158,-0.8150987111144481,-0.8683228332000936,-0.908847197445628,-0.9351348206583935,-0.9469918619059985,-0.9302737466946318,-0.6960986994000079,0.41031465889445845,0.7174238572528223,0.7590301540916087,0.7547802715248492,0.7315241993953383,0.6670227962516865,0.4410563178717372,-0.3614593358941779,-0.8342237153420716,-0.8458941717832299,-0.7159756628384011,-0.3087167673057482,0.37927126035869,0.7351433534208077,0.8450410420805174,0.8787047629686869,0.8866120831785353,0.8805540782777674,0.8653383843666353,0.8465286706974138,0.8273790155389599,0.805491988512029,0.7750816272078361,0.7328153465954773,0.6804298470254974,0.6229015018487255,0.565475799379438,0.5116887861051443,0.472932036686392,0.4621513138677825,0.4775419331020385,0.5063549696614271,0.5424794290875351,0.5821477958686516,0.6255652778349993,0.6726574083573719,0.7114503005771744,0.716153333957197,0.6613607650506583,0.5225063275360651,0.26383334555618754,-0.1185165699383123,-0.4507168979727144,-0.5795594580620437,-0.5367811467558325,-0.3857096537297013,-0.2604906981755787,-0.3018389689818273,-0.46634350349267445,-0.581622699529629,-0.6287718642596271,-0.6248512901480006,-0.5644808712323621,-0.41163018206931873,-0.13128619000935182,0.19921844942981373,0.40963229251985483,0.47320728811330937,0.4490157458591924,0.3771811657809888,0.2713480084192312,0.150865625119811,0.05349232531088763,0.02078228896959025,0.07255455076411886,0.20998738279976373,0.3867654036137189,0.5299416115890844,0.6189246614786553,0.6670718618436133,0.6592236442897057,0.5521796263242771,0.4014162519914768,0.29053698725011345,0.23238275605328076,0.21281282970177579,0.21685539945738547,0.228989759467531,0.23826695564990952,0.23511568745859596,0.2174672123677514,0.1842429016177028,0.13613757424571316,0.0697177617043868,-0.02546372522271622,-0.09837811927454858,-0.1140832340141837,-0.10984600511438415,-0.10409718459302243,-0.09839874292073886,-0.09504718310608974,-0.09666254690562948,-0.09830311600413695,-0.08728018861080593,-0.05344832615810984,0.007558751616670654,0.0926749139231213,0.19161336359204223,0.2832481850082714,0.34335762503121076,0.3613569602832486,0.33966244066922574,0.29044996162402714,0.2284513565613069,0.16773937084707594,0.11340033293570312,0.04774151592064073,-0.06397608963119447,-0.2649251845300926,-0.5156153925147451,-0.6759072802226608,-0.7030730770025996,-0.6613384965431556,-0.5934006292420491,-0.5185956050713029,-0.4449524194743466,-0.37536724391006937,-0.3082986440499014,-0.24707416340831442,-0.19967666262090836,-0.16761788512762715,-0.14791504016814788,-0.14057159299132976,-0.14966629711655427,-0.17499179558527397,-0.20635815446005168,-0.22763631743280757,-0.22806701617982972,-0.201558220099963,-0.14499513324857413,-0.06871721800472436,0.019107428524990623,0.113284929618026,0.2131163524046833,0.3187390358755547,0.42030884416740266,0.4823255040155285,0.4759595899020962,0.3899641283044368,0.27074223802221803,0.1777118178618047,0.11190242074942097,0.062168294658520924,0.029733057729472736,0.019159515058587442,0.03118863121297953,0.055169513492396925,0.06936838081812573,0.05025987462982193,-0.013428258983227541,-0.11666542133436239,-0.236038025558325,-0.3487365361376755,-0.43923395846186797,-0.4988220131738999,-0.5179774035598956,-0.4851818614368793,-0.41111951241358297,-0.32071903244865063,-0.23604649529612193,-0.16654690093284352,-0.11470735532192167,-0.08102347680288124,-0.0734100327818389,-0.09585885529014859,-0.1439902105202541,-0.209166058714709,-0.2812581856544224,-0.355507965319369,-0.4451344915460442,-0.5453347722234699,-0.3571711126338046,-0.03442691990676803,0.15553740158699592,0.31532253932352766,0.46261566524766484,0.573491396771139,0.6400099705477823,0.6698553287149336,0.6769568844789882,0.6726004043166188,0.6612997758284729,0.6425859969290814,0.6062290201271008,0.5282324434841607,0.37142073032562767,0.07653533230725348,-0.3589562643855918,-0.7068464423434435,-0.8190478300557775,-0.82410467153013,-0.7933020269628679,-0.7305746146040585,-0.6277386540695291,-0.49387295550715454,-0.3347116417179448,-0.10904360288420675,0.2103303725369087,0.5249803651226616,0.7064061408467036,0.7773437867601521,0.7897184702311372,0.7649102476284327,0.7062117660693411,0.6031983796492656,0.39963530605555564,-0.05616467515372778,-0.6481629842649597,-0.904961687211779,-0.9637565120835664,-0.9667563184370636,-0.9512816927834475,-0.9230849341597789,-0.8713849736983365,-0.7497185169934408,-0.3445765139177193,0.5693665100442697,0.9128216454056746,0.9698372273818562,0.9801665809607499,0.9806459626804181,0.9762204624794448,0.9637542166879052,0.9244035181631145,0.7195518257929149,-0.37533533068694985,-0.8702781162302798,-0.9481163160922024,-0.9693624882662276,-0.9694419274189902,-0.9237232002131307,-0.6596314522786647,-0.02970159840760113,0.2728900140510404,0.23442812968788518,0.039301229166730504,-0.1915248211304975,-0.42848845786666917,-0.6639609963064765,-0.840170727204625,-0.9282025767533766,-0.9620701902946698,-0.9717256776220661,-0.9676213732919006,-0.9439322096776441,-0.8570642844766143,-0.4728163000393506,0.4036037104086899,0.7844410858288909,0.8854510332578187,0.9154710745848399,0.9187470959963498,0.909804063613587,0.8992439242592349,0.8944390491369572,0.8979518398833386,0.9091881177687404,0.9236032169904632,0.9339638934457336,0.9344518645336338,0.9184511957597861,0.8703794148927698,0.7478270852844003,0.43928881131298,-0.0908310876440573,-0.4336358192532816,-0.4887172703920688,-0.39369296982684,-0.24070566413692018,-0.06383845506572816,0.17889498372980128,0.48797829454507785,0.7305820240693331,0.8477916646411365,0.8914373720159715,0.9029309607342004,0.8970894832318995,0.8724778059331559,0.8165173087091104,0.7255890716620246,0.6324931969915253,0.5788350519235108,0.5738287234342037,0.5954668039858173,0.611595794726357,0.5905483180843788,0.4938356492080081,0.24440680031791218,-0.18494011614406605,-0.41485791216684603,-0.42355201239701074,-0.3691485005353946,-0.30308821881495546,-0.23556341253379937,-0.1876401521898269,-0.20519857074319447,-0.3400230721514744,-0.579838022743698,-0.7783446581133229,-0.8581560946833606,-0.8703777247543059,-0.8497523304267813,-0.7989581194191024,-0.7178823152693535,-0.6303829015595915,-0.5845042231441288,-0.5908603677271004,-0.6285981810771144,-0.680465239532699,-0.7350863830873675,-0.7805763520020625,-0.8072743186655952,-0.8136250017398939,-0.8008977581950958,-0.7624225907533666,-0.6774859442314775,-0.5131078425876942,-0.26646743816697505,-0.02453064053481195,0.10495420983997458,0.09558820707961065,-0.04248011962587671,-0.27685959045142516,-0.4982406926497429,-0.590593327443818,-0.5465657126599222,-0.42719942393788773,-0.29836275021845543,-0.21005491078658875,-0.17344703074883347,-0.17892200200206512,-0.21201634460620508,-0.2525460015556401,-0.26921025098378787,-0.23243644178078648,-0.13897921191828203,-0.03351867477172775,0.017864974505294333,-0.01357496600624045,-0.10518787469151944,-0.19934764071564698,-0.2504295569244052,-0.23648721619748764,-0.15276247847301563,-0.011511283872613947,0.14706790705514133,0.29333058208931806,0.4206799902624764,0.5330625438978286,0.6233757470212912,0.6850105616062321,0.7103449172376366,0.6906945984489574,0.6174175114086045,0.4854546416519619,0.3231019850357051,0.1920918453895332,0.12252750211540764,0.10253206234367816,0.1139259004760914,0.138381721021584,0.16304368177335618,0.17856984249744678,0.17273756784727778,0.1388134263808913,0.08588330128560988,0.04359050418180778,0.053562362952552615,0.13117105501752294,0.25030810235637824,0.38333868902957435,0.5200915319451449,0.6513823219478749,0.7391140899802195,0.7666810132673314,0.7701588006107969,0.7803280098277366,0.8039242984668729,0.829655153384609,0.8377469090398687,0.8118485454956782,0.7578813317779894,0.7058059460109092,0.6812009114050895,0.6706903517409699,0.6499268189841205,0.6065578571798053,0.5408987508967275,0.4579181182132518,0.36022282913675197,0.23676217434891075,0.05268127258350794,-0.19731108097844222,-0.42267688150662286,-0.56095855003272,-0.6319455664854853,-0.6596825288638596,-0.6562031355566988,-0.6314298369127458,-0.602460478979466,-0.5747742818110732,-0.5467312621386393,-0.5146272402496271,-0.4745482572407331,-0.4212038288685078,-0.35276630412106946,-0.2683202251850411,-0.19151467484847062,-0.1712659990091185,-0.2569886878253725,-0.3868545112356911,-0.442481979171753,-0.459187131881218,-0.46870947415890074,-0.47265703397129727,-0.4624868327455625,-0.4326299286322044,-0.3926954714055417,-0.3621872531413313,-0.3538584749929703,-0.36913129477972223,-0.4038455247324609,-0.45197617379853267,-0.5087529510164467,-0.5714689684799646,-0.6349035671975592,-0.6948934263783044,-0.7447087132070866,-0.776232696972627,-0.785078924496185,-0.7607687387836971,-0.6870173827003674,-0.5403710060163464,-0.34951247403907637,-0.19640625968734898,-0.10725996721052919,-0.050056171106545415,0.030434368053249408,0.18196734074963228,0.40763264214450357,0.636937459698034,0.7956981825972477,0.8812009111461621,0.9211213038274295,0.939249629092055,0.9517852926312729,0.9661525090879471,0.9804382982851388,0.9885589445816121,0.9835380362304875,0.9573348521649511,0.8978971241136143,0.7969222633539189,0.6692024831420548,0.5466097349737215,0.4653450781172987,0.4580841558382671,0.5319861951113233,0.6817950710097186,0.8467545484343411,0.9120209749956077,0.873241582658381,0.7988744331292073,0.7137416505488333,0.6157239486019154,0.48713073575070825,0.29661249748019897,0.01665344550033994,-0.3127510590789714,-0.5779482073671175,-0.7381008001468412,-0.8323400134625759,-0.8919750944537017,-0.9313014534824983,-0.9566578590591873,-0.9703244156244257,-0.9760032493738934,-0.9757023146398051,-0.9680199105867274,-0.9458606238905024,-0.8847302878192569,-0.6981427700232623,-0.22869936498252288,0.24523857834835067,0.3979357143002628,0.24130110538104954,-0.31402059631140766,-0.7859443379639913,-0.9141885876192962,-0.9305497523499262,-0.9090757048486562,-0.8583052720897798,-0.7558950412202106,-0.5300381280198005,-0.09557831416450997,0.3479490988723799,0.5858786669945447,0.6850619339612796,0.719775416446912,0.7076515499347891,0.6377078241756887,0.4643601365301939,0.11670520362327597,-0.30541127694861475,-0.579437564591503,-0.7047108070859222,-0.7489087964736373,-0.744320952541954,-0.6971358043552172,-0.5731968584092386,-0.2448644375499689,0.2622187064517663,0.5052873251260117,0.5221847726136304,0.392525889677377,0.11419762579360154,-0.24861773427518613,-0.5581017626153731,-0.7448742269335102,-0.8392923079116607,-0.8824536439296413,-0.8969068696470586,-0.8893317438447761,-0.848129419298271,-0.7145247959252974,-0.2650126463453758,0.4857625473699356,0.8108099634499785,0.9069932435994534,0.9450938975335533,0.9664782916145359,0.9737164688277681,0.9604052595427622,0.9354102193359919,0.9133367257363163,0.8974148228124734,0.8899866018791627,0.8923077271873727,0.9025784292748567,0.9147123035150828,0.9251309173966361,0.9301383961044979,0.9216757221740032,0.8789184763636001,0.7389739426113082,0.30576872687201073,-0.36406882304887794,-0.6920907235123231,-0.7961309051821244,-0.8207965964238819,-0.7993036466283823,-0.728174001228991,-0.5831779368516391,-0.32417430134958797,0.05734218047769968,0.4206366221042041,0.6272807500551362,0.6955469771780394,0.6567277681710018,0.5018352232957675,0.267279772751044,0.13074170264499685,0.145496304437621,0.22856723391486752,0.32368619057172593,0.4092021058733026,0.48062739654190373,0.5393143875551107,0.5893665609002591,0.6336745590828156,0.6699030413363277,0.6552034411309132,0.5143868809417645,0.30241755574822404,0.10724990012854506,-0.06392803987973374,-0.20172126695251935,-0.2899375548181683,-0.3574440987579464,-0.42646950268134737,-0.5001878621516473,-0.5625339510348094,-0.5954994867484551,-0.5789049175127998,-0.4862646601834777,-0.2874984708194451,-0.0037144321152755596,0.27478246769651976,0.47880345954979375,0.6056170134328809,0.678862563541768,0.7221834143937021,0.7499599369104146,0.771159199645161,0.7970376401938867,0.8334275100136028,0.868743772617502,0.8871220686003957,0.8838030970811085,0.8622599856450626,0.8238561629089701,0.7642001237322222,0.6765543705655878,0.5475852802337429,0.3397866072522641,0.014563221500032046,-0.335797106346925,-0.5587219704911027,-0.6650710082735899,-0.708850570167234,-0.7184711557459419,-0.7041209885261936,-0.6619619554779735,-0.578317308593138,-0.46681962072580935,-0.38008359054751467,-0.3435718038836271,-0.34266148812177566,-0.35988570980413415,-0.3885682807336912,-0.4457343078769752,-0.5549063934869003,-0.6955155368244214,-0.8088102942890777,-0.8755269524985515,-0.9103367806151037,-0.9266796643107709,-0.9293898318294643,-0.912894519613672,-0.8570215186969183,-0.7248354417547894,-0.507873574238993,-0.2864043315226163,-0.1240722683869072,-0.0035216501425462884,0.1056731770365252,0.20731592460005016,0.2985192315382396,0.38229044426029957,0.4628351182089911,0.5447603781928331,0.6224199527867023,0.6900224242182333,0.7503890772504256,0.7994187027367692,0.8256415002316474,0.8188333536903596,0.7498689506020477,0.503981537427353,-0.06685641890496813,-0.5353697207335768,-0.7351929619427021,-0.8267725232402011,-0.8714259721197036,-0.8821054927130644,-0.8692920899780822,-0.842122825303908,-0.7622106248065684,-0.4194399234536553,0.25006016772533546,0.5435139689596685,0.5236208236368397,0.13773828886326228,-0.5081870004560449,-0.7694132984843075,-0.8340086451559872,-0.8359869689986401,-0.7986256140305558,-0.7115168412733576,-0.5424561551507839,-0.2744248550725319,0.025271978579568963,0.24317927903641468,0.37053802293684523,0.4641254846831342,0.5577437836117812,0.6555105464744784,0.7483873368022254,0.8214288992705023,0.8704493734141211,0.8977620761250525,0.9106403998915538,0.9145643207062332,0.9143882413663019,0.9140359853772456,0.9161951500856546,0.9222646179196377,0.9279315620070788,0.9199240504286722,0.8797177056187442,0.799620226974633,0.6802877146100335,0.49417354200189956,0.24176267121796394,0.00840583666656323,-0.11244150866170158,-0.09550201232425086,0.06985981149199366,0.33088873944088054,0.5536536163311477,0.6798744002921909,0.7300136304325926,0.7124713451433696,0.5684874023825899,0.07716270865611326,-0.5636327815429324,-0.8048418280170732,-0.8665309947364973,-0.8731407878469346,-0.8556132712353741,-0.8154678971929127,-0.7487939607276146,-0.6574159398637945,-0.5631017206421108,-0.4948258165553962,-0.4437392302095063,-0.374845529015668,-0.2514720294107682,-0.05034765002121379,0.20239895633284258,0.43266336671315925,0.5758009384625247,0.6258595673758559,0.5949703608576118,0.5014197657706465,0.3905276232734672,0.28186362983092966,0.09996204731516445,-0.19068022318652153,-0.3401089062005277,-0.237400201375085,0.00316350889921145,0.2404401572246739,0.400985756367928,0.4916797570298833,0.5291261975323582,0.4875627093130957,0.24592717325886132,-0.240533179044105,-0.5889144888728776,-0.738511635876484,-0.8003200492176441,-0.8293932233124292,-0.8627727568379586,-0.9006084392230036,-0.9281656444430352,-0.9404312256592317,-0.9339502253855828,-0.8747733313215599,-0.2543518482759986,0.862069429720251,0.9585139322747841,0.973204501555243,0.9727619467015115,0.9584063720718872,0.8986313466106974,0.5894841652653754,-0.35708284977884713,-0.7764476526671548,-0.8770617373086588,-0.909406089801356,-0.8994521115716589,-0.4764489026353815,0.6627839370251286,0.8475150260420821,0.9060196255745289,0.9380706807226108,0.9554136124137765,0.9591972070465195,0.9482731168439313,0.9114760154040885,0.802853630266645,0.44969405099418963,-0.25500222956541146,-0.6563842997508181,-0.7836387202334959,-0.8284706697837434,-0.8429845192467347,-0.8451240857912876,-0.8442625432909271,-0.8485789301896315,-0.8716438344251843,-0.9063092316934894,-0.9022116360839199,-0.8398779258613684,-0.769143524533416,-0.7181026230533043,-0.6824740890618383,-0.6499699030645244,-0.6166457060180526,-0.585494384121647,-0.5644923038154814,-0.5698593620038345,-0.6023760585722744,-0.6395636954114956,-0.6539547455444942,-0.6227542255331066,-0.4276263085130076,0.2393479332400567,0.48415350991938894,0.5069090848796682,0.4888330308639987,0.4553880636647671,0.4087534753852793,0.3490398955559677,0.28633588820314493,0.2401304320903333,0.2309622699151209,0.2672044309553442,0.3367712102879215,0.41644044971435645,0.4902349095891704,0.556085471189133,0.6197072260849676,0.6780936228440149,0.7096245453011008,0.648747184178562,0.3266554264350437,-0.20057964953631108,-0.49231418798631876,-0.5872237900271092,-0.5890701536007018,-0.5298359720556569,-0.4116343767435322,-0.2125343721013446,0.012064964498164833,0.1460940150432078,0.2098137323938824,0.256826481491437,0.3256045340351605,0.4244685912894566,0.5246934475309027,0.5947529596232439,0.633897891509982,0.6625039470995541,0.6962158871333927,0.7259377237643732,0.7150640762930042,0.62023866350841,0.4405720378551338,0.2726934340994542,0.21618498905787617,0.26030008102461993,0.33262139556974324,0.3724522707535242,0.34287574051399494,0.23931882355062198,0.07694594863101123,-0.11211026920923996,-0.3006818659361038,-0.4718419476098539,-0.6177819513914665,-0.7156935374523559,-0.748699552150477,-0.7203288270502819,-0.6204902952848187,-0.4091728406157222,-0.07672982176279154,0.22695456458486427,0.3670540232740784,0.3595932460275825,0.25131618572880304,0.099610250288702,-0.027395543216573105,-0.07568445627034509,-0.032310358242946036,0.08577113952762715,0.21793769755642467,0.29894389571259666,0.3211637045197076,0.3101772303009023,0.28452355715142924,0.2593514167364254,0.2482759237806824,0.2500208918022118,0.2281483752196315,0.11988761618183326,-0.1204823366382773,-0.3638938822422211,-0.4908559535258875,-0.5205288573731489,-0.48025569542230495,-0.37798199154675904,-0.2365677206347254,-0.11134144927153326,-0.03490139719094932,0.005060630435686501,0.03011428517803587,0.052294253065140885,0.08907260301057118,0.14839435500888395,0.22389597398619177,0.29785831471730045,0.35067265809122034,0.36770798705349217,0.3499623855279264,0.34784912184793315,0.41117520151766096,0.5164241464620634,0.5974728267874934,0.6232101978501106,0.6057254199387372,0.56308393982713,0.49387220397142234,0.3855543557202146,0.23681184956915072,0.06691209699322136,-0.08865076200613435,-0.19413957106310978,-0.2063268334044805,-0.1089311979487986,0.038638145973272725,0.14940980378021645,0.16338123613839498,0.02760717542910034,-0.2933210438403836,-0.6286688182370862,-0.8081020554144753,-0.8831360292869783,-0.9130265566021867,-0.918317010360185,-0.9007641370788089,-0.85923708063919,-0.78612853434652,-0.6550074403939466,-0.4391957610551729,-0.1694385338895938,0.06718446107024895,0.23693591304964282,0.366939894108057,0.4933367400915789,0.6148494445316349,0.6855615477091874,0.6616248113652434,0.5507150655670595,0.4170423104068475,0.30655714218773134,0.24122085884258004,0.23402880786507638,0.28270054572768816,0.36931497685810083,0.4622513518008854,0.5339535807903785,0.5805250901688287,0.6080933210572199,0.6265862789114389,0.6398888387988984,0.647251408704108,0.6434606886099384,0.6230346765005557,0.5807212375224755,0.5137041655431778,0.4214552352019433,0.30284679229335837,0.15756400667673165,-0.0006618095437924287,-0.15072218271550236,-0.28087989280977693,-0.3895713277799471,-0.4773176619067886,-0.5406098242654696,-0.5674195396981545,-0.534015877141976,-0.44196549968033166,-0.32550752898942037,-0.2126722359742581,-0.11757180866895393,-0.053887183238837136,-0.06054964846780412,-0.24519802578375552,-0.6232751294170469,-0.8440937792454918,-0.9150278040793405,-0.9467169061728581,-0.9649120006293256,-0.974334739987182,-0.977898397498012,-0.9787676455087948,-0.976563661473332,-0.9668467281533148,-0.9376167741274323,-0.8592378524814798,-0.6548869416584764,-0.17372740748122653,0.4485707884597211,0.7824409971532281,0.9034904204178553,0.9434831236871812,0.9512062518819235,0.9353088367431266,0.855557036040941,0.37528620384381167,-0.6186436880624926,-0.8636903082689993,-0.9183501662865448,-0.9341659644626399,-0.9330744445503913,-0.9129356755838293,-0.8309813348103251,-0.3100471190746401,0.7513296241683284,0.9305492071914586,0.9627889020774179,0.9699142545187557,0.9688553199288387,0.9641170583658123,0.9578564322797448,0.9514291067093974,0.9437591467228666,0.9290690652623701,0.8973747779266278,0.8533631161234799,0.8154304294819994,0.784837217430204,0.7472186520793014,0.688028507304716,0.597921103175398,0.47041509338268966,0.2868448846510297,0.031918041951409966,-0.2291376394553627,-0.4250238504415543,-0.5514679943002059,-0.6262544286234709,-0.6686543695723548,-0.6910218904410399,-0.6935797938145908,-0.6556342968672942,-0.5113471016340032,-0.15371957316054718,0.2820504189802423,0.5350937651776043,0.648373414356511,0.7034950381571854,0.7322893787556143,0.7444838297391283,0.7351786937124584,0.6779472057699114,0.4676489352583339,-0.12957989390902222,-0.6600234852654063,-0.8201554644352498,-0.8564509713398625,-0.8446872650764452,-0.794314134653693,-0.688159080885929,-0.5087357473568821,-0.32417229979254436,-0.30138465599055786,-0.4634540353042612,-0.6478765287006997,-0.7606564112108422,-0.8143987502473804,-0.8322777754853886,-0.8243679798996228,-0.7865842920261619,-0.7038170697763357,-0.5647353615230282,-0.4094407704568807,-0.31935234406574486,-0.2987196280148386,-0.28747711906415774,-0.22028965288997326,-0.05425794888707501,0.18616826709827725,0.4117497950306027,0.567412974371746,0.6613779261883497,0.710380560594155,0.7259596876494828,0.7111547710851588,0.6579816660230444,0.5417660506487899,0.3259740407377673,0.02984652395877067,-0.23607108159000956,-0.41246630248471433,-0.5080868921022148,-0.5488432150152229,-0.5525787309227994,-0.5288497087514658,-0.47761651741808514,-0.38528208492085764,-0.22943581581839934,0.00970288056386762,0.2902448193252481,0.5226247153078737,0.6713817337831659,0.7585874110308722,0.810696287835716,0.849370009895882,0.8874716830366144,0.9270337115702826,0.959468961090181,0.9782082049234639,0.9699935543485025,0.8744840016229026,0.4855470785216283,-0.09037039382835768,-0.35011784513724137,-0.3926338391802184,-0.3242555548371782,-0.1923190498096735,-0.03844356031617805,0.09490480155370014,0.17805510176705425,0.19712663837208144,0.15244338676385216,0.0636723823423247,-0.040009651784553124,-0.1292802472077697,-0.2117986947280037,-0.31472396279586523,-0.43405586961691955,-0.522088604892588,-0.5673454296134072,-0.5999955305822573,-0.6412916264754552,-0.6972208864720437,-0.7549688265595805,-0.791845246201708,-0.8007381305786786,-0.7870013522906113,-0.752572541637598,-0.6813736790717781,-0.5161918062089664,-0.14487160053272236,0.361164225693007,0.6678880637843793,0.7967341474372972,0.8547762579605263,0.8825386549833418,0.8866619908812275,0.8572202916325183,0.7594890420873543,0.527487751842921,0.20484356025251726,0.08211745540937174,0.2913886159704626,0.6173485158829795,0.7970706038012472,0.8652470524024136,0.8880106455986866,0.8910719461010823,0.8828293654247507,0.8671983033873567,0.8481932268899159,0.8356054272421758,0.8361870872584092,0.8472080659683369,0.8634524480691457,0.8801851200608356,0.8962610853314456,0.9092654391810636,0.9156972212313865,0.9054809456116462,0.8251978596191968,0.34505193138130913,-0.5513441261182599,-0.8457848789773015,-0.9333269324033736,-0.9639897042587389,-0.9691527239200922,-0.9634334224546924,-0.9556501490949381,-0.9501427913833222,-0.947505061890905,-0.9457546829369718,-0.942477492356551,-0.9365344349127211,-0.9280436351657384,-0.9159006248048492,-0.8973401809253168,-0.8526514484240614,-0.7523825656011554,-0.6484514546954347,-0.5961276122844685,-0.5481039279457787,-0.43800783607423444,-0.2647211694173769,-0.1631825598303241,-0.2708131884107885,-0.5123197673584197,-0.6932749570223228,-0.7725606970006605,-0.7869486627763749
