-0.344329562718497,-0.7351362253674006,-0.8399930173778652,-0.857035352188441,-0.8260075966545118,-0.7303213743011491,-0.5321557613985521,-0.3014665052463887,-0.2535303761193192,-0.4298669409190853,-0.6323219901034515,-0.7263063888002707,-0.7181064652508865,-0.5815044544850336,-0.22131466218448412,0.14744534056730169,0.14962449798538835,-0.22006929083592733,-0.5866404821797542,-0.7135407214957497,-0.6826208392518626,-0.41089060310036507,0.3183739657790084,0.7444258636809042,0.837790073056726,0.8296179865958163,0.7467004516171516,0.5760495945202959,0.3800687488740177,0.24632262206973052,0.18356643026990005,0.16226606659009066,0.16837192741879783,0.23482985100710557,0.4001564264781553,0.6039047747222409,0.755408873559395,0.8460519441603004,0.8964085044865542,0.9237851144045247,0.937837504653962,0.9437494191674596,0.9426666372432284,0.933688046834234,0.9126717396775735,0.8654082876348465,0.7338958787835335,0.2542419187280968,-0.589635302533827,-0.8765201361485845,-0.9435925157263275,-0.9598482203139599,-0.9584903053345557,-0.9523298203609503,-0.9485300574109529,-0.9490858288781302,-0.9501978099540236,-0.9423981561941175,-0.9032016035054257,-0.7711677805818881,-0.4347335930006506,0.05916160356384759,0.4292711108656627,0.6254608037265648,0.7149067837076972,0.7256150126792904,0.6316019389353897,0.3822048540311242,0.1632844751930528,0.20888582580273093,0.43322811277049866,0.6148599793031035,0.6854687978449808,0.6652242625965636,0.5315672742656619,0.20460584567883552,-0.24695411517459073,-0.5371432329311394,-0.6540290483802355,-0.6802068334916185,-0.6449768380477965,-0.5303732617263184,-0.27044570613911073,0.15449303079145063,0.4912757452292817,0.6260887351025616,0.6620644653573573,0.6687364570518384,0.6699969755781386,0.6732308539693145,0.6872091283624557,0.7209257983608223,0.7746015754113156,0.827849132057848,0.8657328367298828,0.8840159899460882,0.8834768993509722,0.8612174386025502,0.8085586107877999,0.7030722294596745,0.5231262041912601,0.28851599436454395,0.08374413534502663,-0.03521365391775255,-0.07650961607781655,-0.053186616557774444,0.05135653550077955,0.2601537905693314,0.5137706114004427,0.6947490587654606,0.7826698957396894,0.8137726112264166,0.8053730375124576,0.7382993361132498,0.5344885189295896,0.13360802257538854,-0.31641165968753227,-0.6421780558550398,-0.8170284691921542,-0.8990197400243598,-0.9335394290056509,-0.938909309926814,-0.9225840747945809,-0.8789202680342785,-0.7716353225785413,-0.5187178764121397,-0.1848944153859567,-0.05333974840122296,-0.18330173739438338,-0.4469003225339806,-0.6480965521813459,-0.7393157069835034,-0.753602564543791,-0.6836740576483469,-0.40336049043910727,0.258509929565978,0.6973248997699919,0.8213104379650048,0.8458003987029852,0.8307125084272498,0.801914285974017,0.788731547084105,0.7794399220303393,0.744751040193237,0.6965482575625024,0.6615965233614013,0.6570778311610094,0.6927659410188338,0.7566203774289953,0.8140728260874363,0.8430724655546719,0.8402713781600751,0.7979667445127875,0.671742451617869,0.3041237450059803,-0.358293078632053,-0.7319476579515631,-0.8414131962955869,-0.8554220640098225,-0.8161425256695901,-0.7171760371219918,-0.5538675660998553,-0.41097327329735395,-0.4342349850033278,-0.59444835140072,-0.6721740280449036,-0.4898204629902853,0.37296837789496123,0.8526163351087631,0.9217752698406314,0.919578100887599,0.8827604555692812,0.8010513131807908,0.6648768716137303,0.5404460574892245,0.5259434455980719,0.5690627194028935,0.5501885608949483,0.3608344565523688,-0.1503184392603635,-0.6620370440677429,-0.8579240966565499,-0.9228045245614147,-0.9500371411138223,-0.9652925370780042,-0.9755400979996324,-0.9824820029168561,-0.9863224603994521,-0.9878094248033378,-0.9886328441318151,-0.9890891877719967,-0.9878481473184104,-0.9800713387406913,-0.9350506173394484,-0.5122346317048089,0.4380776542779811,0.594068040453345,0.44533293504384835,-0.007781308996505235,-0.5540235121712787,-0.8244002935181858,-0.9181972310414702,-0.9256272573836114,-0.8624490099716849,-0.7348810803972954,-0.5297764363942823,-0.16376322853456224,0.3010540424431169,0.5943360030695313,0.6993759271939611,0.7041400321381731,0.6164804060603903,0.34674128399792903,-0.17666219058631635,-0.5950976112131038,-0.7660134384774505,-0.8257109524268605,-0.8331584552454175,-0.7882257209895561,-0.6249243994452169,-0.18469010282214926,0.3856554032339918,0.6814412414279544,0.7962454885661349,0.8454413290889803,0.8702552946175556,0.8854308932765342,0.896884140134404,0.9065777729084789,0.9097951412330487,0.8170952119762447,-0.20937843774998255,-0.7255643366158728,-0.826064808449657,-0.8579004445161489,-0.8613968812523872,-0.8395492588873676,-0.7757380344719798,-0.6247867364104213,-0.325271753112748,0.04570607546323064,0.28901016245366495,0.3755390986926543,0.36487333692980667,0.33662997190014077,0.3846452289535795,0.5373972649006601,0.7210865475110165,0.8462405192005442,0.9072266383456481,0.9260685151600452,0.9148629236685153,0.880095521293581,0.8276795112216937,0.7667224277766116,0.7048445230497815,0.6529047172524536,0.6287207726271157,0.6513427383263477,0.7175663740919234,0.7975071053426378,0.8617209149994712,0.9014074945803084,0.9215654098428573,0.9279495490643918,0.9251027819677193,0.9128273894268758,0.8866259677810179,0.8319948819127516,0.7122528297301005,0.45095264427166704,0.053919682711771943,-0.13006522955057645,0.044399582898352295,0.1987839660170033,0.13906188448835405,-0.055624080615281374,-0.2591089783116675,-0.3928820622712395,-0.46733325920625707,-0.5378549319563549,-0.6330239058794707,-0.7257389642804315,-0.7882800407273198,-0.8167077240566138,-0.8207645583447837,-0.8181095720897,-0.8328065134963195,-0.8712366938577195,-0.9092229345611358,-0.9261904839937729,-0.9198486675190999,-0.8863014004509013,-0.8146170424097512,-0.7069482140077848,-0.6076420412173561,-0.5610453619215606,-0.5607403046401167,-0.5693027252620084,-0.5512755791253077,-0.47919520708807745,-0.3337418590730065,-0.1429455773393658,-0.007255678724211862,0.01885801811090889,-0.03770528426456259,-0.10686979849328059,-0.10996449785751376,-0.03004226409368566,0.0799598008224012,0.15864348121928307,0.18471916382795078,0.1980955729749756,0.23904644484004034,0.33056180450127937,0.4727030899671052,0.6201768983481902,0.7394992979566842,0.8246893992182972,0.8802985858939353,0.9128094293233108,0.9284402717846376,0.9338888315503234,0.9320271362365034,0.925163657206222,0.9181908003826976,0.9145746719117077,0.9144678282462368,0.9129020378004032,0.9015689494409311,0.863480594086789,0.7373769300725053,0.26666429075108683,-0.5365776813423899,-0.8339078287601555,-0.9093292787208335,-0.9348451960288233,-0.9459668088773187,-0.9525021996427803,-0.95736900387463,-0.9603458593499677,-0.9599035482049144,-0.9553968333022462,-0.9478474828249698,-0.9384167596497336,-0.9264446374352788,-0.9101723255785864,-0.8882487845936865,-0.8604689005689228,-0.8237925437528164,-0.7633388327487619,-0.614097591493107,-0.1856062800336019,0.3304558268050881,0.540786766781985,0.6151225354716534,0.6482401559582176,0.6622171980889494,0.6536809198398053,0.6153290137629951,0.543421210604462,0.45351912397640926,0.38753266314513496,0.4148480595815133,0.5969382356052505,0.8188895739027765,0.9272019615927907,0.9634982129016155,0.974545619761721,0.9761030826653923,0.9713571697866166,0.9571048222305789,0.9217039131715796,0.8442223949387573,0.7470480662351546,0.7392217959335325,0.8274371735273909,0.9051834994877508,0.9394582647005962,0.9456628609993446,0.9322387836701393,0.8884822368678117,0.7400240556350229,0.35906454141115846,0.10234929417222745,0.09668123608653867,0.18886943156438502,0.2899922444120667,0.3660000018817336,0.398935301007188,0.3881678367583422,0.3407383050342149,0.2716882585872427,0.1910153228783217,0.09567052083615085,-0.04213565279807901,-0.24181306486668588,-0.45591024764361515,-0.613923880253752,-0.7052908516013081,-0.7513713710246311,-0.7725255295954613,-0.7788418932123736,-0.7684150677646344,-0.7131294979329869,-0.569374634751745,-0.38720718956460587,-0.27221935149429605,-0.19151209951541656,-0.05636736787825853,0.13237588882739756,0.28642908202338174,0.3752841863991265,0.42463730825256674,0.4581312050093865,0.48099661625790635,0.48786240931526825,0.47883011036379086,0.46091682724241656,0.4403391677694854,0.4059233987800067,0.31333349512346503,0.03994604558025562,-0.5150341420458739,-0.8668576256066024,-0.9555818653366457,-0.9753322754995035,-0.978229131979711,-0.974308726196278,-0.9688548573435697,-0.9723644695713329,-0.9815129615261191,-0.980043362247856,-0.9738513868601553,-0.9652988973288753,-0.946600261618704,-0.8694749992509533,-0.05691525897377862,0.8433359285250962,0.9252713664414506,0.9407480749255287,0.9453190015178197,0.9467434894948359,0.9487398168898664,0.9524660051002274,0.9572698261042523,0.9603563945540009,0.9568446879891673,0.9369596784231009,0.8580337775616705,0.45512489389730204,-0.4677773260021034,-0.789142102455362,-0.8670022742941879,-0.8933565846451752,-0.9105383793123626,-0.9302916984183245,-0.9460631447860333,-0.9487622039284543,-0.9426663021745271,-0.9348041542435845,-0.9273026188849995,-0.9170810498703071,-0.8941545488804941,-0.814554125152234,-0.2941712580557979,0.8160953995355273,0.9617353428494034,0.9821066483337061,0.9888068234652316,0.9939235771277849,0.9966267981886683,0.9958587098845861,0.9921212436964864,0.9854381642023794,0.9716592337124775,0.9266313274435011,0.820375646495546,0.6967313005434385,0.5856679793745226,0.445167613767388,0.19244002807737898,-0.1299590769170219,-0.27415640625084864,-0.12297503368627773,0.2600769608258851,0.5589197358180475,0.6712481102542223,0.6827179715324705,0.6436262101535354,0.5967077972582607,0.6099057317459302,0.7132428566005764,0.8252544016017018,0.8909457985912782,0.9208059055980918,0.9328208939297937,0.9362312866396302,0.9340935128353121,0.9268647307288562,0.9138617527744581,0.8918787433293579,0.8508440240225071,0.7712687090449818,0.6133625900298825,0.22844104985701583,-0.5039125886423717,-0.886935738559421,-0.9713146370085176,-0.9872022602593009,-0.9867482440545072,-0.9832003653060831,-0.9820393756182079,-0.9835944882565778,-0.9862117791553272,-0.9884403941189929,-0.9899635504237978,-0.9905239940707028,-0.9899233521452943,-0.9875570946243825,-0.981641973858697,-0.967063464916956,-0.9331217226796862,-0.885615102308195,-0.8647363579006915,-0.8552198340891232,-0.8086409881704795,-0.628001723110809,0.013674597528394946,0.6960161946868606,0.8799232239260004,0.9216620773007083,0.915688113484637,0.8733617145407089,0.7893002278701221,0.6550210687280236,0.48791544259970165,0.3672387629058724,0.3635581136991705,0.460278476632248,0.5732178461326916,0.6306537523481399,0.592158344694823,0.35014864245803545,-0.3050230345400589,-0.7837381895890831,-0.9010650799062363,-0.9280964483497788,-0.9354827918029366,-0.9371133383979728,-0.9219200557454149,-0.8233223256584937,-0.7923880790041329,-0.8856253339920743,-0.9357924006152387,-0.9486455339309553,-0.9392162404778484,-0.8912312552213695,-0.6148778760979715,0.6403720147649116,0.927436330409497,0.9540345179778436,0.9410199329476737,0.8784058193743199,0.6951890063191998,0.38846465915548845,0.33794044431175224,0.7189060347440457,0.8849387486219467,0.9273563339200288,0.9414588377606273,0.9440573931307497,0.9387186167959242,0.927037925102611,0.9131411775439069,0.9019417270899152,0.8918688773103429,0.8782187341573593,0.8641398754447285,0.8541896308802767,0.8529815682358027,0.8593512897219198,0.8662585374775582,0.8669514663244506,0.8560047024717734,0.825198015462983,0.7397006544317867,0.4192592582790129,-0.4762115682037799,-0.8666197447925176,-0.9302492287449796,-0.9190994752529809,-0.8204251887532407,-0.36010280442767134,0.487900457823252,0.7757831912698143,0.8119770607971226,0.6720643512909495,-0.16294158172892312,-0.8296951569900178,-0.9313151486660869,-0.9505042529689693,-0.9455280971867137,-0.9041947086532084,-0.6624379197716403,0.28159340953348677,0.7287878415293977,0.8264528720530486,0.8536916380521603,0.8540768295949046,0.8313729807607034,0.7821338666560783,0.6940938327801535,0.5446103345273569,0.28507979084198365,-0.0911683161316714,-0.4078475237452809,-0.5583969399282133,-0.6039499695115498,-0.6198426898011417,-0.6464805392684085,-0.6684801003846577,-0.6576622723363246,-0.5989641430462843,-0.48381098963763736,-0.28976385782067393,0.02616080519955652,0.410224155589271,0.6598071236930674,0.7624834573456786,0.804322008897269,0.8294731998420204,0.852255383517093,0.8720260254977432,0.8802206931573158,0.8612306572804416,0.798201643169032,0.6758154177785668,0.4945363120193981,0.2757007629330369,0.018051332146716614,-0.3091561840872769,-0.6458837816496216,-0.8218614906122647,-0.8645964066046583,-0.8473192246692448,-0.767208952048551,-0.5580197798393771,-0.2192261001761584,-0.01054858192897361,-0.018382554734538387,-0.1301938948140788,-0.21310274421080194,-0.19152301929789597,-0.049760096868622365,0.15850705329881917,0.3227997775471472,0.3584495081889299,0.21057734810292683,-0.16898281854707556,-0.5810878972698675,-0.7938147241457064,-0.8744406347316239,-0.9035135566606761,-0.9092564315916212,-0.9079440292695442,-0.9137314863543274,-0.9255630504653749,-0.9350238272324016,-0.9365933710903085,-0.9252796264725552,-0.8895317176363075,-0.8081022564498765,-0.688657875013736,-0.6556022432692693,-0.7731034586747018,-0.8925317609075162,-0.9412619053582318,-0.9421814396914477,-0.8724924957578708,-0.04287026896264904,0.900286451704961,0.969251887131058,0.9812008568049343,0.9831012670959929,0.979063841521137,0.9629103226763627,0.8994325748529888,0.5724923441916081,-0.3186821189023288,-0.7128094664880511,-0.8030645451224997,-0.7996746023864275,-0.7102322974858596,-0.4304986700657548,0.08271677327486736,0.4325374013317786,0.5306573207278455,0.5311764103644281,0.5658539628974213,0.695103220238554,0.8258567525979429,0.8929364421021098,0.9189014226068932,0.9258791801300341,0.9239135635279823,0.9126744480873742,0.8608778137795329,-0.20795220542563558,-0.9753991705333261,-0.9840145852699559,-0.9852037556003795,-0.9858930250616557,-0.9857967410829037,-0.983917108109796,-0.9768040318478469,-0.955393735803201,-0.9010080356475275,-0.7924434841889352,-0.6230800529905612,-0.3848540352708227,0.010806086659934211,0.5334354620057817,0.742673753861684,0.7968099528823911,0.830245286340202,0.8572522482034209,0.8779590151693035,0.8928416322555914,0.9025347253964437,0.9071036691674546,0.9050482702704108,0.8963017683224641,0.8819888147535591,0.8629268588941245,0.8405124467488184,0.8239769893136284,0.819910664475397,0.8208997717988743,0.8096126777342769,0.759317750680236,0.642965182368941,0.4952480329961907,0.4386335595794908,0.5367728266301509,0.7354947993595553,0.8897876131001257,0.9504512376182935,0.9636712255214234,0.9506794340188885,0.8309880058155424,-0.7014278677116108,-0.9536843171551168,-0.965642608553706,-0.9529540138602446,-0.9165504745951307,-0.8246500210776043,-0.5843650338505194,-0.08006752015061334,0.44763184037764747,0.736068332913155,0.8684825470109441,0.9294578262810878,0.9558320107648761,0.9634871174406371,0.9588293066665912,0.9341040733833633,0.8037317677606415,-0.3765431609411248,-0.9205197201298727,-0.9687821173424234,-0.978391868955568,-0.9800532513622332,-0.9780835620092805,-0.9717084009661966,-0.957710310755922,-0.9342117630633809,-0.9011346527507182,-0.8550416198512792,-0.7862868149633501,-0.6755909996726566,-0.5056623372160107,-0.29661089214964037,-0.08907304901073361,0.13598418323883174,0.3989893285514972,0.6512111379333739,0.8188856450076288,0.905516171257083,0.9445005058701447,0.9611258668707634,0.9695170331339599,0.9749882942164907,0.9767045605746202,0.969160832932549,0.9444242953499689,0.8992512484233153,0.8391102360970079,0.7705240521108071,0.6901831009762102,0.6037037513749467,0.5345702986276226,0.5112081400126655,0.5289856402884893,0.5525770115715172,0.5491607557526533,0.4989638868353481,0.3934011613688905,0.25015466086032834,0.12295319585986884,0.047815497289873464,-0.013155160821424407,-0.13582083056528685,-0.3379321560715082,-0.5134710033197006,-0.5767045196416364,-0.5089820770847877,-0.2832265245524185,0.0928638111879965,0.4516483354530274,0.6661811755926427,0.7594408748368845,0.7857395893640092,0.7795061450037135,0.7506803737971268,0.6850953837074862,0.5663475330239706,0.3906523727028059,0.1405367511621646,-0.1828321489702368,-0.48728358449153747,-0.6771016069753834,-0.7636138255796971,-0.7937071148258943,-0.7956001714583283,-0.78348304169861,-0.7601375344205086,-0.7142106505521658,-0.6253128988583762,-0.45513326087905814,-0.17158168248747202,0.15928974336456075,0.4048469317098824,0.5332144904593487,0.5910507440280822,0.6170870699938562,0.6228952841427196,0.6067861615909537,0.5604690995549003,0.4775685184446751,0.36070512197032606,0.22145071035310565,0.04915284167796392,-0.17547007812956214,-0.4310686051672432,-0.6487234527824306,-0.7874730937627973,-0.8611259420027613,-0.8918944748204265,-0.8912261752679189,-0.8525100666891091,-0.7358584224997898,-0.48793780972999734,-0.22498097598439482,-0.1809924675569579,-0.3804840397563213,-0.6305810760178608,-0.7747995454174587,-0.8419481136073023,-0.8690377795769024,-0.8724806841127185,-0.8643203898256205,-0.870673754739125,-0.891321047709572,-0.8981704566432307,-0.8593480112471718,-0.5966343225800087,0.5490882149598885,0.8922125629656213,0.9220975762213071,0.8647407283626332,0.32611941968882524,-0.7869540191398351,-0.9357005168020965,-0.9565786267503218,-0.9452693695976374,-0.8769883765824317,-0.5080423837704954,0.365112011870034,0.6808907929885468,0.7553497439208822,0.7975869442792798,0.8470197561546127,0.8882439286637251,0.9140022636481178,0.9272707594329836,0.9330745845464061,0.9332946630120275,0.9310782880495109,0.9295810998334879,0.9293447689897026,0.9294238401774698,0.9280903263779725,0.922544165066961,0.9063277779952148,0.857980726050127,0.6625635596765337,-0.30206552456736635,-0.8938954841010727,-0.9668656495973806,-0.9774409966014718,-0.9754430745075605,-0.970166591956339,-0.9647471098236324,-0.9601624380682321,-0.955845287326069,-0.9500913911391382,-0.9403616866337876,-0.9234924212774864,-0.8970510753784388,-0.8648620915957295,-0.8375254097132352,-0.8078384514882436,-0.7322821268367772,-0.4472538685069187,0.31532352862761825,0.7476389208911959,0.8265481485615216,0.7767422478905167,0.5761841011197619,0.2428811180095568,0.0637617269958808,0.29293643186403046,0.7788810291718746,0.9130389593394509,0.9257067386921117,0.928100004192959,0.9342997801613585,0.9445911204603479,0.9558045412209298,0.964045325610196,0.9667826453378342,0.9599890223270116,0.9350676577866717,0.8783312434675581,0.8038474925526354,0.7742728107055353,0.80392692243629,0.8519727297831663,0.8913669595445407,0.9157549057738503,0.9250503704534536,0.9161736543125933,0.8792192252852843,0.8119926012994031,0.7409683260257526,0.6976220400252687,0.6852089919762827,0.696453576134224,0.7202995962134903,0.7391362293661177,0.7271820073625512,0.6631196858719073,0.5597436047499474,0.4627676740396525,0.42068277575437646,0.46002808046981936,0.5658954780354037,0.6793484524983933,0.744708948153349,0.7511373941296933,0.7014661670488412,0.5919829057562336,0.43096541168391167,0.2755005817394574,0.2184175089004711,0.322213267266144,0.5255392319173179,0.6708245480237077,0.7119359807685812,0.6597419266472414,0.4900484074127985,0.19104431081395706,-0.09719342738076879,-0.24838285164048574,-0.2753176300419131,-0.24180491742071045,-0.2073268131389667,-0.19984730605513296,-0.20943208115823309,-0.21078679839703407,-0.20052572601254182,-0.20668492948411393,-0.26913032180824414,-0.40874911454038576,-0.5853721350729625,-0.7179199595135779,-0.7863154387065764,-0.818163963119964,-0.8399240404859272,-0.8708977478300521,-0.9078498316582734,-0.937211326889816,-0.9553200461828918,-0.9636671429412744,-0.9616711665157255,-0.9400545483244348,-0.8629283248113634,-0.6175953058687941,-0.13069725126906126,0.2753752763270707,0.48703240403380893,0.5977437620611238,0.6540923960979651,0.6654419783265435,0.6195878106324885,0.47967623669522297,0.22033626464731967,-0.06420975820667954,-0.2601499737258964,-0.3716641483855326,-0.43408997422188783,-0.47345389934094834,-0.501201706274793,-0.5290823826685641,-0.5685846857030992,-0.6178455870982633,-0.6538045912018401,-0.6414071048238841,-0.49429877154005664,-0.01176774757737003,0.5355102598597945,0.7422300679552044,0.7844739434606978,0.7503930949026907,0.617403058618512,0.2132436885558899,-0.5499421453835645,-0.8491397362181797,-0.9117513444453144,-0.9375504041506434,-0.948977806881657,-0.940718820037513,-0.8990983436701326,-0.7742627402914096,-0.43894239672488533,-0.01389615656345946,0.07245629190496435,-0.23187169598730603,-0.6235915590042166,-0.8069191100192341,-0.8634143013002058,-0.8557459907427468,-0.7596523926545546,-0.4155112828339141,0.24059156686645905,0.6301135547442304,0.7607592209723556,0.7906978216826216,0.7611599620328428,0.6707521486869175,0.5203058552121014,0.36230147842818633,0.24019924320402594,0.11512617572481511,-0.08757577284410026,-0.3661034372332848,-0.6157452843170748,-0.7760707015811821,-0.8536790942793409,-0.8766532680317219,-0.8582080602638018,-0.7478020620327844,-0.01737595282016225,0.8734548353507074,0.9715708408729489,0.988019967832662,0.9923656401228657,0.9936051977034756,0.9933134017718633,0.9916943881453081,0.9891841891346788,0.9870203291800901,0.9859147448077568,0.9856554628315259,0.983682794106857,0.9584103991182386,-0.6582499635437721,-0.9728808573309611,-0.9869569110170202,-0.9899302270305413,-0.989651604510666,-0.9866457918303216,-0.9798247536067727,-0.9671432070545698,-0.9471523883406616,-0.9235959586645375,-0.9021619650469649,-0.879180900824649,-0.837424965202575,-0.7419118094011418,-0.5287783906430343,-0.1760442154156962,0.1432368087249042,0.3093121541618428,0.36437292879135336,0.3828459382572765,0.43366412944313415,0.5059852655311436,0.564379804180649,0.6058277322080379,0.6398236512719693,0.6696098468260121,0.6865311319764308,0.672815826697354,0.6120614302536413,0.4870912969452908,0.2831763773468321,0.020850918144572277,-0.21471256274167125,-0.3235182005510392,-0.2674342041790436,-0.010161598131003218,0.37341821921701496,0.6300486021644763,0.7366472562650077,0.7742677922693718,0.7840778843165565,0.7839321579403797,0.7786571945015947,0.7636634065104093,0.721934848365985,0.6302024954747671,0.4645177743088494,0.2526081840619066,0.11411644252758078,0.1387156975662968,0.3182628152776498,0.5500741450670257,0.7115089252696273,0.7927637738142133,0.8336181697442299,0.8548703407975611,0.8582606757051123,0.8357773768666534,0.7690629626872811,0.6162734212156465,0.3771773799956198,0.19909471250405852,0.21842272852573089,0.4459221113154457,0.7118841282593437,0.8529111287902468,0.9065721250419488,0.9270816204031308,0.9353337779010602,0.9329304468214705,0.914255938140133,0.8597760904634344,0.6958545621599456,0.261581234024544,-0.24506847889199063,-0.4700568828940703,-0.48791663949693864,-0.2870680759458532,0.1414793489360549,0.35319183497909834,0.13168934126215612,-0.39043901066665665,-0.6745024771702021,-0.7237233514908178,-0.5993020731881374,-0.12163199534203502,0.5387454149510692,0.8126048178198314,0.903061304369031,0.9388538484058979,0.9540816195407426,0.9568698786349702,0.9483145055548663,0.9316942049365954,0.9114787288437063,0.8670143466035446,0.6041690665422439,-0.4939527400106626,-0.883853834491316,-0.9572387464944755,-0.9782746305843613,-0.9829628811066077,-0.9810703142120893,-0.9765641859904143,-0.9716878922217644,-0.967569155781915,-0.9645461024211524,-0.9628311135043518,-0.9622724330485458,-0.9620115032779204,-0.9603284856540691,-0.9548576486670588,-0.9430782602635287,-0.9218443808242336,-0.8888866786571196,-0.8423592124360016,-0.7685959565464038,-0.5980897343737203,-0.2247490216654861,0.1879733559030621,0.42054604694090125,0.5292884293543061,0.5769131588481183,0.577099654131059,0.5303248727711026,0.45176268244262535,0.39084487988659106,0.41151697887338745,0.5306062231238402,0.6934550169183311,0.8198987951289612,0.8895486093595812,0.9216334707721416,0.9347093528587844,0.9399106731373364,0.9421489484385841,0.9408352043191559,0.9352572104161433,0.9252024378035236,0.9115889826816922,0.896840237479734,0.883579634078916,0.8700281589898957,0.852184714217016,0.8278682801934565,0.8012819559905835,0.7815217686739825,0.7755625236981138,0.7806227074004145,0.7901836050098351,0.8027824448999231,0.8182661243460749,0.833955576484393,0.837497820857829,0.7964396547755751,0.5195654443745795,-0.5340207475314387,-0.878428283592541,-0.9246934389407636,-0.9155499415948913,-0.8197574403756441,-0.1139662264996539,0.7584978893804262,0.8979880983884759,0.9308310533445172,0.9420265919840832,0.9454696028394578,0.9444251774753764,0.9395799688288643,0.928950399225718,0.9053917140029524,0.8408371760856238,0.5461424782003144,-0.6330304233441342,-0.9439850607847408,-0.9767741583919074,-0.9823500404082426,-0.9830802911179684,-0.9821531801557337,-0.9794522953238662,-0.9742142873169574,-0.965554445156446,-0.9528020909938767,-0.9358016399631912,-0.9152615889231679,-0.8927276962146073,-0.8690509532852819,-0.8431378538844707,-0.8068462327913049,-0.7404244784799172,-0.5971242261901789,-0.28797085444966547,0.19333131272834073,0.5834777416177811,0.7622154173783688,0.8179523140051043,0.8159467123548023,0.7881487119292937,0.7553316025018723,0.7248408311121434,0.694539322926215,0.6573523500118397,0.6062767851449042,0.5490053891227159,0.4992057559185341,0.46222820158829475,0.43754326514255626,0.4377510227462922,0.47705575202437345,0.5505457387186538,0.638469621427021,0.7270524569844127,0.8007308909621287,0.8485750084972757,0.8751782899116082,0.8920037903093924,0.9045337540405094,0.9133973070781954,0.9171495483777251,0.9163447077271925,0.913056415246586,0.9094917704751854,0.9061159377964481,0.901917185075541,0.8954090081498521,0.8862800865089209,0.8740818912417918,0.8508445978125287,0.8024693715020684,0.7129357228032401,0.5761424427766995,0.4583713610884193,0.47060333283797606,0.5916586626307655,0.6805638437746501,0.6861019195206463,0.5540930083867067,0.13933879841418825,-0.43534839756351795,-0.7496009711737027,-0.8633404687989398,-0.8949851442513433,-0.8727788840685996,-0.7599960942240702,-0.4531565448188303,-0.016968791286093767,0.2303836987994225,0.2976622002572889,0.28811157940102344,0.25657324136417814,0.22247039283214737,0.16743415192868702,0.02723297896977129,-0.266611572640664,-0.6071990678092093,-0.8039091703730433,-0.8852228841766355,-0.9162897838102516,-0.9236193183790534,-0.9128008562055572,-0.8774804580334418,-0.8078547287756503,-0.7124758075662228,-0.629995274716172,-0.5856515995699317,-0.5417029240958545,-0.40032682740680403,0.06977445143262118,0.6479048167007206,0.8114788286044261,0.8360076884335609,0.8160330924720143,0.7620293383397162,0.6692722440371824,0.5375985680231948,0.38933066428498636,0.2629271255035186,0.18811022194731658,0.1777232440589044,0.23366920579279127,0.34668569620488654,0.4968657901787503,0.6452813576423037,0.7590616782910925,0.834296385025707,0.8837334453834856,0.9178773229173675,0.9417332167222764,0.9605552621295523,0.974626659400498,0.9810241011326148,0.9805634671016906,0.9754638247562594,0.9663838844889724,0.9517830531493656,0.9256432318354743,0.864693801959372,0.5958202476127045,-0.6755708290380459,-0.9654266109394666,-0.989835155152284,-0.9931144782879865,-0.9921775933107708,-0.9890565836240987,-0.9833621960223214,-0.9729462245477895,-0.9534616709272368,-0.9235413542826714,-0.8978293416701616,-0.8966133737782054,-0.9158198788015128,-0.9381689383908007,-0.9530454220221042,-0.9447457784489149,-0.7854448366935789,0.11469431664252153,0.6743815611323366,0.8125065217398669,0.8558320860482516,0.8555080076425987,0.8045236472670653,0.6581054924334411,0.351932046711957,0.010081431491054248,-0.13698384669562857,-0.09323826071257577,0.04649300589197413,0.14867994845663407,0.11602788869649934,-0.04027221360613919,-0.19573909203472895,-0.18869924667985835,0.12305659466460953,0.5773144122135391,0.7630436553838578,0.7983522597620387,0.7895761389284899,0.7746217506014514,0.7707678570826104,0.773758411630099,0.7721873917516823,0.766869236547067,0.7685699403493115,0.7884336333172172,0.8308479639490572,0.8827640008058553,0.9191738150330173,0.9273165916121586,0.9104744446317748,0.8726099850116377,0.8209229478094519,0.7846497281727766,0.7852821354628932,0.8146227658491566,0.8531475509529891,0.8865102198882685,0.9073855732881364,0.9161297037606856,0.9172224366013779,0.91432585820417,0.9107693126081853,0.9080030755536982,0.90546123655032,0.9043701008664381,0.9060704927515915,0.908633054077151,0.9033153935621522,0.8724623986770249,0.7562273460526324,0.33464038152554876,-0.3648047626227162,-0.6628981192371131,-0.702087187251998,-0.5447185743794611,-0.021769552284458826,0.5438198858463889,0.7620055129116095,0.8272698853212767,0.8350299992777035,0.8076065183184441,0.7523262978051811,0.6835094123879786,0.632384572244473,0.6181329264598326,0.6262854873807359,0.5716578997042518,-0.20085808240170985,-0.7434748001436687,-0.8176291003909024,-0.8259190807772108,-0.7883103277878905,-0.7027511747674385,-0.6499930745035042,-0.7483684138072327,-0.8716042424856317,-0.9314088232048888,-0.955380653464245,-0.9653183470486062,-0.969311709852009,-0.9699204083152473,-0.9673789398092343,-0.9605862403636309,-0.9476021912485615,-0.9282765380807391,-0.9077734967455766,-0.8979305596016189,-0.9044828858466996,-0.9200185892627488,-0.9355901580015823,-0.9461667699773332,-0.9494246260563078,-0.941738647790449,-0.9134080707969372,-0.8531749408127465,-0.7734227805728476,-0.7161135875440507,-0.6858218378900905,-0.6481847683062374,-0.5598777693965715,-0.31211454717920456,0.29657546169682464,0.815779493891616,0.945427018586926,0.9628789749088873,0.9496551376526963,0.9249184553614752,0.9051437283534899,0.9054437705889296,0.9238464750515373,0.9457113063795031,0.9579563986190343,0.9450786117685797,0.8043235468979858,-0.2210805458502737,-0.772213639069172,-0.8467367865233878,-0.8279538174369826,-0.7170206711133235,-0.3917332302006831,0.16511196985178053,0.5318808251589289,0.6912451233487089,0.7700168857625228,0.8151584415648184,0.8421215453464719,0.8597775698331699,0.8739251297448958,0.8878108563466347,0.9038914369029655,0.9194481311255075,0.930307558522333,0.9358150338375082,0.937714867352963,0.9375273938721712,0.937163684870744,0.9365017565584453,0.935166637792556,0.9333171747000802,0.9291522801573496,0.9180854092666464,0.8930349616145041,0.845700156279979,0.762807922197962,0.5977411298751704,0.18897784149596855,-0.45845868250744576,-0.7876346376968922,-0.8849991895211693,-0.913579968378288,-0.9166635283993981,-0.8996929322979316,-0.8440054084412678,-0.6712686543240542,-0.20705668746600417,0.2881867749676327,0.4301078448305577,0.3003569160248213,0.08828834745512679,0.08926659395273244,0.23159518033342774,0.3344130766076687,0.3033071121720181,-0.025962100967135922,-0.6902226526346714,-0.9421402421615621,-0.9843678902971721,-0.9918431330615904,-0.9910224384619227,-0.9850636298020167,-0.9708995694180402,-0.9373528765283627,-0.8434854817664696,-0.4944941158245146,0.39061751620183394,0.8296525595868389,0.9345044728423468,0.966123474967593,0.9765549321121401,0.9773516875704026,0.9681361860903168,0.9360232809395779,0.8380574310207837,0.5973421015606832,0.24217122876784866,-0.014224595830276405,-0.100431473529774,-0.06998060933076984,0.009329155687148805,0.08824582332403817,0.1443613806236196,0.165421686905811,0.13092939307784318,0.04086399137202443,-0.08484795418382053,-0.23328554386928962,-0.3831965544948152,-0.5074433202001903,-0.585722000850824,-0.5961404686173787,-0.4750624831149004,-0.1690883368513403,0.1615158653093681,0.38128224835359703,0.506265806767693,0.5692704799159569,0.596624992415033,0.6074522968260283,0.6088554850731607,0.60453927145998,0.5936577613058475,0.572408162362225,0.5402688824085706,0.49780005606536865,0.439587100871613,0.354683165020956,0.22924758424677186,0.0653885355345862,-0.11102698702852173,-0.25878685253392025,-0.3499826533805084,-0.4004280046394512,-0.47074872621075153,-0.6042147137001085,-0.7563859179293464,-0.8532344994516656,-0.8929950684313617,-0.8977075634863224,-0.8755007094508831,-0.8301540321470726,-0.7823566776300108,-0.7616833428584575,-0.7678405725436861,-0.7805434128712484,-0.7761635493045946,-0.7242961741252021,-0.5624401695648997,-0.1874258244279366,0.28182301583883523,0.5605738080545877,0.6828526587835778,0.7325706875693548,0.7433319464168704,0.7296331274728599,0.7016497191073015,0.6723338524359828,0.6527049733825913,0.6483774639676315,0.64636879692779,0.6281127771277103,0.5784883983934668,0.48064783784792636,0.32703630398185085,0.1500248922561196,0.010581836427261893,-0.04564635829309153,-0.020899147178101405,0.05111560836909172,0.11227945092439492,0.11290113020498871,0.016139502473123988,-0.187985117240465,-0.4629164318961781,-0.7277151818724543,-0.8885709469278118,-0.9459337310882603,-0.9509417597254244,-0.930466686113062,-0.8810910578509397,-0.7553151907750054,-0.5247039202219115,-0.3735604960194781,-0.4001847157540964,-0.543470264211464,-0.730515925880735,-0.8580791481586041,-0.8896367256052466,-0.8768552773217881,-0.8400985073590544,-0.7511676329776494,-0.5324519078567266,-0.17983423953443758,0.030904025863333424,0.012786541841270774,-0.10166289378752934,-0.21819104202175876,-0.30969845934380613,-0.36676979920864244,-0.36844966284723496,-0.2938494189784925,-0.13542803885294938,0.07174093286833551,0.21706388315986563,0.17180501056114006,-0.08079013985790663,-0.3274676604347639,-0.41647301847930135,-0.3749889654806723,-0.2449965510397179,-0.05308480810278675,0.1626971988812248,0.3508257945516555,0.49661573939051656,0.6206891831058318,0.7408612088389981,0.8425971493010264,0.9033065348995584,0.9286458226134577,0.9332771954477177,0.924864241408374,0.904856016358281,0.8758572674419511,0.8410579127631306,0.8067664566096102,0.7795555262641797,0.7634038971470148,0.7587345750189348,0.7618616424894623,0.7617302198238554,0.7396296816747495,0.6660834529192569,0.5111679439237369,0.2821450291840059,0.022544762792732195,-0.2656267663217194,-0.5582924440241214,-0.7662114045918818,-0.8652324963054614,-0.8991752966208468,-0.9014744701144519,-0.8835909543202649,-0.845562110957146,-0.787853811042512,-0.7189146190134429,-0.6282107355774718,-0.43373780334127193,0.01213969035127508,0.524951453690708,0.7787676821798108,0.8791776042212518,0.9224530762352461,0.9424840256168563,0.9530445030794389,0.9600554813510789,0.9632984692618641,0.9513146947325881,0.8933911700373267,0.7569948272451488,0.47890918086234957,-0.20960345856074397,-0.8183878868163154,-0.9559347802641249,-0.9840135396249472,-0.9911256651805617,-0.992145160838727,-0.9899214643439611,-0.9844961255717151,-0.9748486209635169,-0.9605374642163914,-0.9423541590395259,-0.9207350031669106,-0.8917747214397946,-0.8445485976234713,-0.7566800784081374,-0.6085617200834211,-0.43239466660840953,-0.27482389470218405,-0.10029840852559357,0.17266885321028055,0.5410107144031938,0.8091416500523223,0.9193857016159287,0.9552553771836035,0.9639161776186036,0.959039086434783,0.9407397169884374,0.9041734201487758,0.853991915072068,0.817162538669509,0.8141213747768187,0.8311413343096385,0.8488671316566418,0.856850162955372,0.8538233492462174,0.8351037751682687,0.7871103430823199,0.6852073879824869,0.5092725350791907,0.32142627633457344,0.27761770855597434,0.43909605378330224,0.6740767097937356,0.8326508706945734,0.9098153993880442,0.9439546609700278,0.9565796625427052,0.9580375133378527,0.9541606670660476,0.9518624132580781,0.9546758840211076,0.9606377551011662,0.9663419608508033,0.9699697254739484,0.9710673070589694,0.9698178882002543,0.9666932628671208,0.9618735031105532,0.955872721957228,0.9487446800558622,0.9388738364011505,0.9200956824327157,0.8621510352003642,0.3855775271063587,-0.9080232441116236,-0.9896977128873682,-0.9962574659414989,-0.9954248520997585,-0.9919984995876512,-0.9861826589864159,-0.9775653161792223,-0.9659607095932742,-0.9521589917833762,-0.9390130310669037,-0.9312542201014856,-0.9319458817661548,-0.939314411675277,-0.9478067649044862,-0.952996129330544,-0.9493760174331349,-0.9176229155609792,-0.7339754402110694,-0.0015545426699261242,0.5492011647604403,0.7388344905845926,0.8324207285069382,0.8820227916628481,0.8970541270121216,0.8918317008444155,0.8744995543451624,0.8499523365708676,0.8312073479075344,0.8374763500311456,0.8694571248025541,0.9067585365606641,0.9335664751246803,0.9494382745359846,0.9553884837088297,0.9498036072288458,0.9239261389263056,0.8668735456593842,0.821464634787082,0.856456444737684,0.9116890944027916,0.9409138110759011,0.9508406503510707,0.9513878532199428,0.9468402778769619,0.9395169289305763,0.9292114837455011,0.9135061701496219,0.8879258298964977,0.8473036463941976,0.7849798933585155,0.6894387177077335,0.5332916042991969,0.26165703143185304,-0.14629215389320138,-0.5379479352979282,-0.7712032895462652,-0.8863166108436161,-0.8916519992752193,-0.8297173242614732,-0.8258809639560837,-0.8586605259997734,-0.8872967725377121,-0.9052363291045905,-0.9136253079053097,-0.9124928863116609,-0.898632331157804,-0.8617850595594069,-0.7761552333449324,-0.5961416294612248,-0.31037293251725934,-0.04600730538957293,0.09080544508747326,0.12362011372900177,0.12289135655898456,0.15161091821444847,0.2327716276165418,0.35376058736960897,0.49199295298187956,0.6213196473313115,0.7209802919582355,0.7859588340413187,0.8265147028487925,0.8528278915227554,0.8674092564576922,0.8709601164433266,0.867218814929296,0.8647297446684036,0.8728043999368699,0.8922057001886207,0.9077445269652247,0.9078548705528028,0.8888031548033859,0.8307787663864384,0.6371996824692185,-0.02674097419736846,-0.7025872268716742,-0.8933460260841487,-0.9506274412895381,-0.9718317197808325,-0.975649544009466,-0.9657328924975314,-0.9421405725732118,-0.9030796570910953,-0.8408261572600747,-0.7272949471955427,-0.49552812706813576,-0.14673306761081956,0.09361060071950054,0.13448353047501024,0.06705317013116557,-0.035603430328730916,-0.19379599033090195,-0.4392638688154218,-0.6785085223134624,-0.8155852168609804,-0.8731490694601379,-0.8881472470132691,-0.8733600961575892,-0.8051707357402481,-0.5269306246254296,0.2874081036109938,0.7292078071937597,0.8200039537151584,0.8185249999327154,0.7601404168624231,0.6298063791859858,0.43898649469900447,0.2866047408478491,0.22556157111481148,0.1831526509760343,0.05434484122733881,-0.21035895784255695,-0.48575110293341867,-0.6182927993373281,-0.5839845126696992,-0.24000469861870402,0.43051048894572724,0.7558235874781216,0.861610578108204,0.9041436384724564,0.9270357587901066,0.9447054706144894,0.9609182732911871,0.973261099154164,0.9747794851929834,0.9746424943422187,0.984338506282703,0.9885298831980257,0.9589639150514226,0.7361880225416683,-0.16415252487014748,-0.6253962699865384,-0.7041048775254527,-0.6570436763489987,-0.5014360187372624,-0.22507425209215592,0.0773835250305877,0.26000036932477266,0.29739822845630653,0.23519864590383194,0.1539922718633337,0.15290311610959606,0.28560800832412464,0.48137548151880694,0.6112742034348063,0.6073220749614872,0.4950978744936214,0.34908898248685083,0.22704578677076795,0.14539737081665527,0.11975674733446771,0.1662277410661899,0.2813742148810197,0.4380063848163706,0.6027282362868006,0.7429514607221612,0.8380866523055044,0.8936658796241695,0.9233423294188166,0.9393146685087508,0.949756081607258,0.9566427782660456,0.9566601733152589,0.9451265450191882,0.9161433239178778,0.8534372771441289,0.71917476239028,0.4724943947782424,0.18620044296569413,0.005057261342230796,-0.03727393414525084,-0.008026029426908061,-0.0350717730950928,-0.24892257112444843,-0.5963623117382747,-0.8286549929872281,-0.9209931716090444,-0.9544346240959232,-0.9675133955276941,-0.9734967920344063,-0.9775822681727957,-0.9806827060388215,-0.9816951158699933,-0.9796425462658027,-0.9756090949419178,-0.9714327784362765,-0.9672402396231367,-0.9613592411359889,-0.9512769631382609,-0.932038068989519,-0.8880908499667971,-0.750603631371093,-0.2287002828251256,0.4848352252037519,0.7026050147113908,0.7147504212711115,0.642580820041304,0.5854724442790545,0.6745496778389213,0.8244536119013319,0.8988856546918126,0.9208040358901842,0.9228655236184697,0.9173015956661869,0.9074146719206682,0.8947681701436068,0.8800268877908439,0.8683176133956007,0.8657392210927582,0.8765612006740422,0.8957848085990818,0.9135734594003815,0.9232862019220313,0.9223318762128431,0.9080058975650459,0.8853082682762718,0.87032901595653,0.8800292347801519,0.9089913999885644,0.9369323113309926,0.9512220673460007,0.9538872724337965,0.9492138298838707,0.9404837721514026,0.931212433243097,0.9238652264670908,0.9212764975072127,0.925464682221843,0.934533293852482,0.9433908563287429,0.9483314702109855,0.9489315864058327,0.9457714080884719,0.9395179537696206,0.9300071098379944,0.9172657386593206,0.8998938664669811,0.8710425009457773,0.8116166679190214,0.654923650589117,0.046194002271849076,-0.8284721033122818,-0.9755510273952244,-0.9925632749476804,-0.9940127641569444,-0.993132698922539,-0.9914834950203534,-0.9885307119826688,-0.9828462300547138,-0.9739798111824371,-0.9642029183571801,-0.9557667287529511,-0.9483295031719022,-0.9395050982166331,-0.9246529974067613,-0.8935950190782813,-0.8207692338471766,-0.6454470958456207,-0.31209300165791704,0.04333366748972878,0.29058103624109044,0.5006928115989538,0.7384797422968304,0.908866600129518,0.9691010819241377,0.9844752720027395,0.9879205969314533,0.98636135556545,0.9807980129999587,0.9710015642109332,0.9576584832867768,0.9447574559249199,0.9354576175017835,0.9270797022491026,0.9117252403812623,0.8721142604037632,0.7587682505535133,0.46221539094797215,0.0637884920718687,-0.10493096129374063,-0.024193377726429138,0.1569824535217159,0.1988135644908432,-0.10889824473404727,-0.5592555802629086,-0.7501494955510427,-0.7758523299957801,-0.6428565534540731,-0.07528883262086644,0.4674503670211532,0.5085218949247762,0.20908751886192162,-0.3036100913870246,-0.5974337399841025,-0.6748897097781033,-0.641372700377842,-0.5524699748322008,-0.5093788936213921,-0.5941947564619163,-0.7094554447338289,-0.7321973536694232,-0.5503955783821924,0.23642790551368625,0.7976596856988644,0.9128918793877164,0.942169857810047,0.9502714936654844,0.9528893918158092,0.9603012410240084,0.9722319924587923,0.9798050334612765,0.9819705117845322,0.9810986521465941,0.9783865958641289,0.9735227389263814,0.96412693605617,0.9357173498128243,0.7388863781223394,-0.3792413297056762,-0.6963216695580217,-0.7328979521114449,-0.7696894059335402,-0.8298485977238178,-0.8842510060295187,-0.9187655560811241,-0.9344455528306543,-0.9301978017874781,-0.8716520804896302,-0.20523331929076347,0.8601772736855307,0.95361564371644,0.9698733944808606,0.9731261789080011,0.9698548913434271,0.952229008858008,0.8371159338929157,-0.341810707305661,-0.8891304290242997,-0.9465176305347888,-0.9587796341562291,-0.9590680876212998,-0.953154756235803,-0.9437125112010031,-0.9364052747352368,-0.9363057584087155,-0.9424869424206033,-0.9498757090599786,-0.9551160309690048,-0.9564382761599104,-0.9513060758289739,-0.9325347683186124,-0.8751335136327533,-0.6843138380049659,-0.06199585716207435,0.6840390122087849,0.9064477282047737,0.952766743110128,0.9603013992697342,0.9575643924033095,0.9510163558112462,0.9435012551582049,0.9384800072317248,0.9387102352726377,0.940788885928469,0.9396417409729301,0.9342951586933333,0.925441005552215,0.9143947296439519,0.9020920408959201,0.8906815319387951,0.8839364873979899,0.882459660868296,0.8832704091949035,0.878237433262705,0.8619668506805944,0.8374283395776794,0.8232294085225299,0.8324628743496726,0.8554691766793421,0.8767923980342741,0.8895053424508009,0.8933695799563386,0.8868768543184827,0.8634055028848928,0.8076504905369519,0.7116035892594808,0.6078116195504414,0.5193863397272508,0.3680101509784167,-0.11279149948335432,-0.7553137701163986,-0.9278256540951888,-0.9580388884588488,-0.9608312469342515,-0.9520289247805176,-0.9284124880510907,-0.8730817048164737,-0.7512481518885344,-0.5246072499304919,-0.24494409683983187,-0.10534288040665186,-0.19661789946053906,-0.44271820830169334,-0.6660988720987877,-0.7861078495228524,-0.8523579361810303,-0.9043801914060109,-0.9409496648449052,-0.9587330727883239,-0.9566534458879157,-0.9190271270317419,-0.7790424945534978,-0.37841633714488726,0.14995098171135476,0.4017595499326181,0.3435370773129615,-0.20492092477882926,-0.734026913496272,-0.8594643631250978,-0.8772614753324274,-0.8440612171848136,-0.7575468640605697,-0.7159492656618041,-0.8164596215402248,-0.9137012930493881,-0.9545717224603065,-0.9669388567754899,-0.966160399506615,-0.9573245976605345,-0.9411670670029337,-0.9178185684740638,-0.8916570309365418,-0.8715635355951654,-0.8626103085953932,-0.8524883811521872,-0.7795580895339456,-0.24006484411288193,0.5852231058941876,0.7828977415739947,0.8358265851230299,0.8569391804044805,0.8687639553843559,0.8781040988041107,0.8875664554751351,0.8967706755155194,0.9049622440752374,0.9112843628929347,0.9141949914231178,0.9132168513932457,0.9071880352963038,0.8968135551820287,0.8900605058636142,0.8943506800267214,0.9057291760517148,0.9173929034210787,0.9284836011138229,0.9383630277302312,0.9444826957731269,0.9448030972703685,0.9385104624794925,0.9286050032960962,0.9190591970086803,0.9100989980008345,0.8975473885526463,0.8712603190602111,0.8001548956060386,0.5345262173413092,-0.33762692091897195,-0.8594211567108657,-0.9642630810473051,-0.9865854650888644,-0.9882009393962917,-0.9843164214473222,-0.9785209739903006,-0.9699146046849818,-0.952629730338796,-0.8971370846589531,-0.48414146449437906,0.7917248125882258,0.9553239012579436,0.9770118091894867,0.9804501980651804,0.9775584897719539,0.9694049712902407,0.9553297735163456,0.9332936939359904,0.9001607615478006,0.851155999594801,0.7854143772960477,0.7077665139202121,0.6278499521308967,0.5562712923459616,0.4809809404222598,0.37136690592983074,0.23655740419350638,0.1609400324680003,0.23899824870809122,0.46611241357790356,0.7136673980991987,0.855907254607553,0.9055462697875346,0.908655049320374,0.8828094586604871,0.8154834971838133,0.6642876713765785,0.44046030167389144,0.3690398094711119,0.555091681200258,0.7469126845496322,0.8431435388665485,0.8914492975487378,0.9219002553508675,0.9423351321132735,0.9530410270078103,0.9419229216547456,0.6820852088563549,-0.8910970668569578,-0.9801607798247355,-0.9910140955275579,-0.993946857309749,-0.9949304759753465,-0.9948457677197129,-0.9931077207788072,-0.9881162826914117,-0.9786809177389543,-0.9664132514328223,-0.9564968362986809,-0.9525956855464952,-0.9538689897257768,-0.9574379727189365,-0.9606856415379318,-0.9607987551660463,-0.9501209383991643,-0.8796725721154388,-0.14773159817588924,0.7710962885871019,0.8918725105319212,0.9155080334528091,0.917553706618645,0.9136943703936152,0.9143914191426177,0.9238097638937203,0.9365940242185268,0.9468405402628511,0.9526021571678659,0.9542433642524695,0.9515082626316174,0.9425684167816591,0.9255859849212611,0.9048518021934138,0.8906514759351726,0.8896442238354844,0.9000984957437921,0.9159612145445181,0.9303559698131387,0.9409190185656583,0.9467465025843258,0.9474122681846028,0.9385399942976134,0.8914444835789472,0.5689039502736215,-0.47500845768671135,-0.7708749085486964,-0.7583401393988595,-0.37883320697721545,0.60523588278751,0.8780471183522247,0.9302641217451183,0.9431547300297571,0.9427377111953017,0.9351652446970886,0.9230870433518396,0.9075249641192309,0.8865878768714456,0.8564811276492417,0.8128668765661241,0.7311437736537914,0.49408379170887506,-0.2507560300283692,-0.8197747372550657,-0.9399963255884222,-0.9694988845322078,-0.9794623827294491,-0.9830863618471333,-0.9817230076692582,-0.9694392350501604,-0.9289767582761496,-0.8476550942012335,-0.7861099543066534,-0.7716224262275589,-0.765129000982371,-0.7482155543765194,-0.7127624801801282,-0.6528855399228493,-0.5616126641198077,-0.44257087377073884,-0.3488014145020464,-0.37947948274865767,-0.5349651809407695,-0.6971151295468087,-0.7925407751903073,-0.8111294693292442,-0.6779621593822479,0.039610678384399176,0.6594594576369842,0.7645347515886153,0.7301708162125709,0.6438385029822381,0.6019532645456686,0.6431113042571355,0.7016269616951623,0.7280096555032305,0.6923780414045902,0.4747033576647512,-0.427120789350455,-0.9296349407723482,-0.9819104410592838,-0.9893633406696092,-0.9915914015923358,-0.9926249542855139,-0.9923686647346376,-0.9899041224870894,-0.9826367863972857,-0.9642134654264144,-0.9231681256576145,-0.8405034446098483,-0.6584416163212182,-0.12729530322954258,0.6970807006164103,0.9362095930871878,0.9710375345932989,0.9674211736195995,0.9484054470916425,0.9217755600753864,0.9094598998084317,0.920528599296317,0.9366242694413903,0.9490692550299092,0.957980221957855,0.9640060377637337,0.9672910086982984,0.9682648073357975,0.9680555155014878,0.9664671040008598,0.9616549131167165,0.9522211931014299,0.9382717692873621,0.9192585794835628,0.8915831055939917,0.8432155598773866,0.7388264403379912,0.46304018033266525,-0.16034859371310556,-0.6802851968950304,-0.8715888341223644,-0.9419065006403006,-0.9702029659727922,-0.9769627224979927,-0.9710968421569559,-0.9601575019466198,-0.9471793726572145,-0.9289349492362201,-0.8907847664123382,-0.8079650435736386,-0.7083090580193784,-0.692781992063009,-0.6906832692139554,-0.5697072169688107,-0.37250423269010347,-0.14099403894781198,0.1223972507669163,0.40787791074131224,0.6716322116797938,0.8462295390907217,0.9301975560624434,0.9641433619468327,0.9739509953386469,0.9695991451426264,0.9563715531198738,0.9382735013139062,0.9166043990162193,0.8921979549239093,0.8689047079389361,0.8550755802932846,0.8458748849342866,0.789178941933717,0.36539504747549606,-0.6454131959357013,-0.8879687129969278,-0.9377339601263485,-0.9519864264163613,-0.9523818711212992,-0.9423785646807048,-0.9212754623182643,-0.8902433445106873,-0.8609263660047904,-0.8482743834097791,-0.8444025521026973,-0.8342723870859565,-0.8078596629765887,-0.7728971678518055,-0.7707501488230377,-0.8223223028610945,-0.8788500562108547,-0.9139642309382264,-0.9347156435514664,-0.9480149833181162,-0.9553649696073352,-0.9555123849697871,-0.9459635759675527,-0.9222866590427226,-0.8655380465862548,-0.6437738044320674,0.521575433908858,0.9391593334820255,0.9692769158844302,0.9683772044064907,0.9632011259575085,0.9583854363941811,0.9512479371320719,0.9242484294275582,0.7360717641761896,-0.3818349621203327,-0.8081906381781591,-0.8609393574018137,-0.8304837009874066,-0.6626063749907177,-0.015425493131936967,0.6847183022385681,0.8709334272877458,0.9181749467662306,0.9275784409257432,0.9143775240452467,0.8570802449264429,0.6683351198419897,0.2864098168724266,0.04828246756354754,0.14315597934476082,0.45247351320489476,0.6805582633864298,0.7463366870745859,0.7020938048418063,0.5597844856832989,0.3768645565104609,0.30170154973855945,0.46821313819550103,0.7533425073336485,0.8791340723678194,0.9147541053672752,0.9269606980440271,0.9269341311183283,0.911569906505304,0.8661303583593616,0.7621312478137018,0.5851039421460393,0.43216450586128363,0.4371118753069024,0.5559590957573548,0.6206220797888828,0.07426018556136557,-0.8861136920972607,-0.9498915822586058,-0.9571574864949389,-0.9545734620928387,-0.9486899710591808,-0.9422143015362262,-0.9360555661763795,-0.9283999584332238,-0.9118212679671751,-0.8512398619718098,-0.420263872888815,0.6889750233622521,0.8972301747465068,0.9392378761849707,0.9530281646414802,0.9563684746305721,0.951917528350116,0.9402341008859617,0.9208927643212806,0.8898853293940046,0.8393952322290147,0.759284990324362,0.6395526971499432,0.4631608239070013,0.17994908388473146,-0.2836186888268636,-0.7406276390873126,-0.9320806778451425,-0.9768042237851078,-0.9773928831618206,-0.9661176383592353,-0.9568448477616458,-0.9554980879314566,-0.959569054362418,-0.9644046255711917,-0.9666015784189983,-0.9621118829953041,-0.9392835334673905,-0.8458778624269726,-0.4698752714536546,0.17948992060538177,0.4813508373117416,0.5347726871454377,0.43678048165278,0.13394184705670725,-0.2984758951920771,-0.5119533614082591,-0.5041903673747755,-0.3355246174530099,0.048917558204677844,0.5063171320494804,0.7028232815669057,0.7415620384456788,0.744804315701827,0.7509712996749078,0.7697645013585958,0.7961831184905239,0.8206766296720927,0.8391920570974273,0.849733418262329,0.838801280366778,0.767287524234629,0.5842768189368825,0.38848716399324523,0.31556118407463285,0.3360723816834421,0.39839186571335206,0.47556634842856066,0.5592624923951559,0.6500227397908679,0.7465889329623998,0.8403049668178261,0.9115126585290569,0.9488125843769175,0.9600590997101854,0.9587738770478166,0.9545949621560332,0.9498580939334949,0.9410877303084045,0.918068005392698,0.8382649214677533,0.3859158961141777,-0.6970619521110812,-0.9183050819821741,-0.9477869546584847,-0.9371253694627792,-0.9107579201845241,-0.8936224654357235,-0.8932203588661422,-0.8959247417357299,-0.8867764508214319,-0.8407377411018095,-0.6488361571545436,-0.02771471826824939,0.4866092460639562,0.6237324639331102,0.6161793454938012,0.5249042681988774,0.3735027055286961,0.19665495442708467,-0.011581802589422995,-0.2649930420101869,-0.4753227871577469,-0.5720138953390586,-0.5579430441543617,-0.4045127912028365,-0.0441383860858105,0.39840377267846866,0.6726716794231007,0.8027058170110609,0.8635101594824988,0.8838623219625477,0.8707648851768541,0.8346873934744374,0.7876004874618839,0.7074479485894082,0.5072161489944039,0.08514024147530097,-0.35475349727079003,-0.5882875845252259,-0.6824942805079595,-0.7178871052450244,-0.7307573771675526,-0.7462189166147019,-0.7898101626078663,-0.8545300758483826,-0.9079077595150428,-0.9357224867958297,-0.9440259873096238,-0.940279930743867,-0.9256471118607495,-0.8907308507050311,-0.8002548125760303,-0.5373629245403176,0.04419661029381654,0.5193008004783436,0.7115606936291569,0.7950777953485182,0.8437399481151716,0.8818871176131983,0.9132026537277799,0.9365441121006675,0.951200690362416,0.9554595459306933,0.943852059596788,0.8912829059514701,0.6481924142633289,-0.20395829553638012,-0.7433685335161214,-0.8866473843579705,-0.9321365186325387,-0.9403968944685971,-0.9299188819576835,-0.9092406741936415,-0.8834165075081459,-0.860217678435308,-0.8487396765269153,-0.8568070260630976,-0.8843305994011411,-0.9169765199747247,-0.9395025490519251,-0.9439918277159147,-0.922495964537254,-0.8489258649248153,-0.6621778182910535,-0.2999633430745194,0.16720236266374272,0.5541255677230202,0.7866520196187885,0.9001634986624836,0.9483316138704497,0.9653466865713137,0.9681963978208225,0.9628657991403101,0.9505612851420228,0.9316033592343281,0.9051613728757046,0.8671346648180229,0.8030310024700857,0.6593609480700697,0.2762002374922394,-0.3768283753690751,-0.7578785505747787,-0.8948534378961398,-0.9484264360489287,-0.9681394828261495,-0.972837592479772,-0.9690620857419577,-0.9553377644246626,-0.9245495183796362,-0.8667883310670048,-0.764849612432589,-0.5735757547529409,-0.2135894052328306,0.24342532167775777,0.5601078620404618,0.7188820965071387,0.8006681614230753,0.8522824881180907,0.8922434895862246,0.9245373630641809,0.9462031166590235,0.9557762841687361,0.9548651896606796,0.9399347672231151,0.8922599914899529,0.7186570450053459,0.12769369590323842,-0.4216699313333208,-0.5175241830580878,-0.3419934899098755,0.09104771450932123,0.5312019374356441,0.7452967805096191,0.822181176227338,0.841696258593922,0.8372032069467488,0.8236238786285361,0.807749854210388,0.7854434437995844,0.7466073062100901,0.6867156530209229,0.5972848012379763,0.44858655467945757,0.19954953760135533,-0.09746745741694857,-0.31723035642852226,-0.4153064910220677,-0.38836496860173153,-0.1672823396348494,0.3158924906123984,0.7410211202213363,0.8997899748173005,0.944606088493498,0.955786931762044,0.956134068907415,0.9530273557734045,0.9486917883116928,0.9430134083176527,0.933535570931558,0.909924813912397,0.8303105796814835,0.37070563549622293,-0.7648451075794656,-0.9631286452331967,-0.9918681503216131,-0.9960882212346854,-0.9933125698383455,-0.9879382145438674,-0.9811614331609732,-0.9724094982897622,-0.9600677897724857,-0.9438061282187936,-0.92761650432553,-0.9172522703991165,-0.9135028283148884,-0.911311107084285,-0.9028392586650901,-0.8692673082946811,-0.6894041910773936,0.5409872475978383,0.9479665714034166,0.9792236713579036,0.9821749494502607,0.9786505213727905,0.9697157948218871,0.950785131974035,0.9101833874810626,0.8387876334283016,0.7822946031008994,0.8271876669582406,0.9036742416555764,0.9381914538369193,0.9469012516046869,0.9477400277367194,0.949821475150676,0.9564733830686996,0.9663370905404275,0.9729041919877461,0.9696261002464941,0.9533937917909555,0.9209242668342289,0.8590230132741322,0.7023205995767524,0.24827167774466025,-0.34737949163276066,-0.5719463274907347,-0.5189441876738254,-0.15629440922184729,0.38557492935702575,0.6695052484755303,0.7754053106623621,0.8187718432991813,0.8406651517760273,0.8546073625238638,0.8588615721833573,0.8415025565302183,0.7671960369421267,0.524967480549881,-0.026547632037577977,-0.5120216908752235,-0.7198848165714309,-0.8044307449888913,-0.844460236134876,-0.8668386379701379,-0.8799464743185811,-0.8818874524381092,-0.8615251061210876,-0.7912069520271583,-0.5692206684473559,0.09500083566879003,0.7004044573539946,0.87105381131574,0.91935621149899,0.9365137269253873,0.9408475228674259,0.9360669765830425,0.9219993927201527,0.896392658477797,0.8588798901337448,0.8150950694464185,0.768514073672714,0.6761199308084196,0.11803156049445945,-0.9002979755596414,-0.9518899203779687,-0.9518760879190024,-0.9511576253537254,-0.9520194979284566,-0.9536754254836282,-0.95480159929359,-0.9540329580213796,-0.949132032233966,-0.9360101318659977,-0.9078596819449579,-0.8471029773538016,-0.7120200517119688,-0.46180644341778054,-0.22240798739781392,-0.212887907220129,-0.4039258037724759,-0.5675827631014401,-0.5952700268516011,-0.44569084561267963,0.060256172489653634,0.7043748615988631,0.9285408426555318,0.9762234481010119,0.9821842534848078,0.9766250667855565,0.9668244852148673,0.9563752817700667,0.9496412861093768,0.948053905675511,0.9477304377025355,0.9400464631156425,0.9197509135352956,0.8919192079203151,0.8639349376724482,0.8342569444657354,0.7919495214672254,0.7297652773893704,0.6581909335162386,0.5942881565492749,0.5075919136192231,0.2747540444051956,-0.3247249914997211,-0.8073069316930951,-0.9252138569256351,-0.9455857003440118,-0.9286573912627636,-0.8691690205453673,-0.7580021366231798,-0.6288823455831363,-0.5463063009325302,-0.5672892119103152,-0.7048577110008665,-0.8327422103066838,-0.8869716054734383,-0.9060398407176418,-0.9125099190033787,-0.9133078706369325,-0.9100515896223371,-0.8999012617190679,-0.864694908062771,-0.6433627361899961,0.6613387933912009,0.939484260091177,0.9696142259812437,0.9736931399154857,0.9673762514989563,0.9568305347448939,0.9426680950930701,0.9174308218684645,0.8588041455962213,0.716351040153508,0.4242752603295721,0.03638437727453239,-0.263392450440347,-0.4078923257918534,-0.3884669944870357,-0.19703826526541443,0.08944542788245356,0.33538296331945194,0.5003755791597875,0.609346221869853,0.6914411621744372,0.7605714990138036,0.8184741177012028,0.858774704636608,0.8747723576924469,0.8578192628597996,0.7760133532987431,0.5596911420755516,0.2644777845014482,0.18243623459945596,0.42088896915958274,0.7253873016684227,0.8647493595345547,0.9036102718602207,0.8962143742528536,0.8308035502372237,0.5630146294786865,-0.24619292384036057,-0.7695903321876336,-0.9051477800997858,-0.9476677051667688,-0.9628674557708632,-0.9653705959021025,-0.95842465673516,-0.943608158635827,-0.9286668357107729,-0.9230223330300577,-0.9228880821290824,-0.9174945600491226,-0.8924731292897758,-0.8023965886854719,-0.3869710101074901,0.5807121625419466,0.875917015846306,0.9189151664148524,0.8812541800308415,0.6763050106075439,0.21733185583419312,0.10807075016309749,0.43449893492401076,0.7237370335248705,0.8361543853191653,0.8709300874592139,0.8735690625202767,0.8609043454585223,0.8437977738220159,0.8350018266482627,0.8509156998208711,0.8876204596342274,0.9206895893828979,0.9368395419161547,0.9341091565262966,0.9026783850736458,0.7792283551536955,0.3121632394862046,-0.31136792602149294,-0.5495575508551023,-0.5949237104618269,-0.5472203400884457,-0.4151708229529366,-0.19371777335237444,0.05380695160119769,0.21088778384734766,0.24853490261501432,0.27142334829806963,0.4309773392166439,0.6457627224571869,0.7511290050058325,0.7863320530655772,0.7942356036653644,0.7878320056952387,0.7602656245403995,0.6951631007379221,0.5660913282167964,0.3692766588755187,0.20088828937101735,0.18503937082817146,0.299509662368294,0.38380513247399556,0.26015103069413237,-0.31329485337917956,-0.8013454890274049,-0.9163719058515818,-0.939446342016104,-0.9362760093520122,-0.9138876056157291,-0.8646617646238076,-0.7794891578982651,-0.6622840773106431,-0.5133180287885241,-0.3147591078292043,-0.06600531977804013,0.19554059753984732,0.42127621885485594,0.5908524281902776,0.7087367581464253,0.7810189270477154,0.7963831390194674,0.6986756513367159,0.3044605214484022,-0.2943639450739411,-0.6329856570155319,-0.8000940173466355,-0.8986142147708788,-0.9492895610734928,-0.965469385319059,-0.9634257846758897,-0.9492612548342579,-0.9150156991093694,-0.8173310524429213,-0.5219564342421024,-0.06379124032413076,0.22231559795110803,0.36750391310627617,0.4593132631193269,0.5268014224540593,0.5755017150624793,0.6148181571029216,0.6493456248321522,0.677050912373735,0.7012173600582621,0.7257141034774554,0.7375447189796556,0.7283566217198701,0.6976379226492386,0.6261997225353952,0.42215807654208887,-0.0355952179015017,-0.48240841861950423,-0.6770632567429239,-0.7335523129924028,-0.7104771266186998,-0.5480798234601801,0.11817696951847888,0.7572134441716529,0.8885437491856691,0.9304498311462986,0.9533593265096736,0.9664974716979983,0.9728186510430331,0.9735929503704062,0.968770099392577,0.9582667876267179,0.9436812701987122,0.9278842693322736,0.9108329762868342,0.9044028280581737,0.9116995026438396,0.901393226918162,0.8167995628427638,0.3909161595374891,-0.46496295261624326,-0.7719670482486645,-0.8506754184758638,-0.8803446852141009,-0.9002419292242593,-0.919776430215342,-0.9382368780491306,-0.9535335837610451,-0.9651927401853638,-0.9735263518241419,-0.9786834357783532,-0.9803277050930792,-0.9716405531185104,-0.8973362517227808,-0.45635965479536,0.17754127590556387,0.43116755905888704,0.5190608562388951,0.5451244557126577,0.5258589670149515,0.4855473916854324,0.49726608961655683,0.604840566545363,0.743993143302691,0.8472382725619781,0.9047459987996596,0.9298580218673074,0.9347599735438725,0.9234888624973522,0.8834894346113997,0.7694705393299949,0.5418600455196282,0.3820756432149065,0.469293469608348,0.6883028668921702,0.8441883247395316,0.9134917055109629,0.9395055733189822,0.9483519141703917,0.9513724747643473,0.9535776921381147,0.9557836020119037,0.9567312908831911,0.9559460076250432,0.9531341483404302,0.947627349413016,0.9367655782079319,0.9166296227461808,0.8839561285104311,0.8375676357098975,0.7765593473610646,0.6888363039382936,0.5422277208046009,0.29595816306872264,-0.04352452914097626,-0.3716013834026793,-0.5803511458675121,-0.694711525927002,-0.7713375313823662,-0.8362869414911396,-0.889483092836843,-0.9265795770172814,-0.9488169570464906,-0.9616591419698719,-0.969152608888455,-0.9733014040952231,-0.9748504733631095,-0.9736610822535527,-0.9688737177171931,-0.9600710109754081,-0.9482099768437761,-0.9348708822517308,-0.9207826480826817,-0.906039001361209,-0.8906643070045579,-0.8731612273806866,-0.8469879548906744,-0.8013546115369898,-0.7172557717618795,-0.5716978147152116,-0.3324440289485181,0.01322337429122175,0.3866134753930054,0.6120298873772432,0.6880522126260409,0.705773093577417,0.7116037158303323,0.7171289317717622,0.7228972966808644,0.7239177130048539,0.7157527709804161,0.6930381563062864,0.6490677595415498,0.5889155497568049,0.5278526522107932,0.49228693290097114,0.4973661847786019,0.5348057046022775,0.5844687778486177,0.6318331592467685,0.6694207727584177,0.7005289886431553,0.7420568490781979,0.7979542528696877,0.8557815910636962,0.9042672670245894,0.9378653937748561,0.956424115712888,0.9639817618446579,0.9674345681365094,0.9725171103251303,0.979619830999427,0.9856561630945999,0.9845407075993167,0.9576466481603119,0.8363191109060525,0.3711096439962953,-0.39547024553949983,-0.7488348112971202,-0.8681024794145029,-0.9131046891398789,-0.9278444634552437,-0.9248961462528301,-0.9113975326918333,-0.9001944985222218,-0.9022566185124125,-0.9099006234133117,-0.9101782920010172,-0.8844370195911277,-0.7646760971700128,-0.46236996995209234,-0.2091812301696487,-0.17879333740259046,-0.3135991421444434,-0.5287061528171308,-0.7182778524070312,-0.8098159810489157,-0.8102148380654008,-0.736400860885724,-0.5769380179174882,-0.31400977455071527,0.019397825370573166,0.32493456955769195,0.5480425063297704,0.6961292855067343,0.7951464543773573,0.8636737543850237,0.9074841573438188,0.9303818025930982,0.936056478200477,0.918486026383077,0.8445450714144652,0.6285752456851107,0.28709441898930854,0.03982577558721659,-0.10398535748861738,-0.22597788321389597,-0.3653070121686311,-0.50702734815307,-0.6107742727533827,-0.650722541438321,-0.5810227633064796,-0.2345651333278614,0.39428446848926824,0.7618453693193185,0.903291263231779,0.9570052537668821,0.9758116015053202,0.9811238311044572,0.9812560624896898,0.9788282015122174,0.9738736681291715,0.9649409243188489,0.949002350826984,0.9216458812633638,0.8774703029813302,0.7925653917428385,0.49995350300667596,-0.5116523175875907,-0.9247635587884034,-0.9800688074094341,-0.9895932974665527,-0.9884871254225185,-0.9822604100624193,-0.9723291778352293,-0.9591860329188104,-0.9428610370759716,-0.922858716074331,-0.8978635508025686,-0.8653460736405079,-0.8208610355379805,-0.7567928162309033,-0.6635077006942783,-0.5403860714282704,-0.4132276738696132,-0.31204982831793443,-0.16999577383609793,0.2702130581764732,0.730395871463996,0.8353724338210109,0.8438529936260093,0.8176778039040006,0.7811888748435305,0.7637796045612779,0.7744565073454935,0.7994935264749833,0.8273921709248636,0.8540538956124069,0.8782424997933159,0.8980640089846114,0.9114908368327472,0.9170375807507167,0.9152448452637966,0.908917954243114,0.899565325064695,0.8859189278251796,0.8639845654746252,0.8283278454830358,0.7767471973367684,0.7204355805108403,0.68688145606905,0.6986657766462843,0.7470383301337291,0.80070454771049,0.841533850189028,0.8670751020540239,0.8780938400125248,0.8775373763062746,0.8676512776271682,0.8491881966104096,0.825936501552055,0.7958468420253293,0.7245329595694513,0.5272579342263338,0.11656523526007632,-0.21944277444911692,-0.15651299816549213,0.35243819279783295,0.7052630698624112,0.7775185074114181,0.7603916160766409,0.6803243645611963,0.44895967742835036,-0.28186682431991644,-0.8427738842317021,-0.9349402805603505,-0.948565757932043,-0.9462226805488961,-0.9350340314934129,-0.9015814769199385,-0.79351584525554,-0.610029436506068,-0.6674864785865305,-0.8542028689344636,-0.9260917420856849,-0.9449069115556976,-0.9485551033704983,-0.9450198284842644,-0.9315965379462336,-0.8904851351497263,-0.7142185859833787,0.20265191158847626,0.8316569223216742,0.9268841177780476,0.9396882510804391,0.9151611004549457,0.7928784639811514,0.2722770872859759,-0.4044469755566593,-0.6310845847972917,-0.6738025241663317,-0.6017832179891123,-0.27867244109109407,0.34837678120516935,0.7038097261867766,0.8333600056932363,0.8988387631674444,0.9408532737445092,0.9588585704751427,0.9536196998039266,0.9399959868695407,0.9284477909874416,0.92082536894056,0.9159203400150633,0.9108591387244114,0.9017387588205333,0.8815960384291619,0.8401286312798523,0.7607739205974923,0.6307040086316356,0.45199835152560824,0.20638391608015974,-0.18258292844759957,-0.614766373964854,-0.8325398752256427,-0.9047090268758184,-0.9309310758054689,-0.9415136535931043,-0.9444283869505841,-0.9401102909219664,-0.9281703700057128,-0.9146327867885614,-0.9112185298434297,-0.9188948871715757,-0.9282811445000959,-0.9332292322601251,-0.9324654822691404,-0.9238669375041461,-0.9008287492150584,-0.8460077632211729,-0.7095110565527418,-0.41227823317117684,-0.08539074769704959,0.0579727161775338,0.1354384586428867,0.2865193630705994,0.507130879856619,0.6705697721334936,0.7374119841545159,0.7423876632789778,0.7203326651241938,0.701584650263311,0.7063302269064142,0.7299104296839084,0.7592894245294327,0.7835176705597421,0.8007262570914737,0.8145398064078481,0.8318051840228293,0.850555795999097,0.8577008226872659,0.8456259336567445,0.8184327707204918,0.7884973607065283,0.7721767500892041,0.7794366177972019,0.8051228232446545,0.829418859209353,0.8398595324477253,0.8370695523312179,0.8275392710175494,0.8160249539919439,0.8025021213004082,0.787399155935109,0.7701439352312344,0.7480366954714389,0.7093731659256524,0.6137713524963768,0.3320638747404788,-0.25720017838452114,-0.6932666437833064,-0.8644594182187637,-0.9354221519320043,-0.9693502202940043,-0.9818342622809829,-0.9810481084414193,-0.9738856464650809,-0.9627530891013462,-0.932456206815506,-0.507628670656701,0.8103282326189911,0.9110279922283235,0.9266103560607809,0.9257366214889993,0.9129250224759028,0.8906094537074024,0.8843274451071714,0.9188135266281066,0.9423703646740791,0.9397568757792436,0.9246792652102906,0.8986111836368996,0.8614317472053995,0.8171475943393121,0.7751388335100522,0.7404504897555378,0.699452578823974,0.6212315904546908,0.46104822523842875,0.19413852216007454,-0.1044075833861457,-0.2848458785253689,-0.30687801121737823,-0.21272242139570094,-0.05251745677143316,0.09042559185534246,0.14008919213147764,0.12210648112355063,0.11214408896219671,0.19852959099123518,0.419438620227653,0.6300762702206302,0.7243010172111777,0.7349742574175788,0.6639410082414207,0.45347399684868755,0.12047687321492048,-0.14203937981762566,-0.3286979221965307,-0.5360942295291256,-0.7227649431870629,-0.8262017118322598,-0.8647204973763789,-0.8576098810218581,-0.7671273921549361,-0.3205335191888294,0.4706617902193945,0.6454047871040417,0.43025392648898403,-0.2839712291464123,-0.7284237657962757,-0.8414892283490382,-0.8798932249230874,-0.9017238031640622,-0.919504832826902,-0.9310237485459392,-0.9285048293333666,-0.906802346796225,-0.8722102831266759,-0.8375320696119666,-0.8015981011968054,-0.7599478232612318,-0.7140770563773273,-0.6321778586125748,-0.4038639245649225,0.20588578408956318,0.7100753983790888,0.8450361849092054,0.8826531421056025,0.885879280423692,0.8528259766134674,0.7762647368651153,0.6808300290895792,0.6217604188730737,0.6269012899166019,0.6582846381214643,0.6008221956784822,0.24501632106041227,-0.29678291639277293,-0.5600912709393274,-0.6067471153278016,-0.5043323791846327,-0.2852844201222704,-0.21928646425917556,-0.4232921481610264,-0.6662999698749089,-0.7916488835013302,-0.8286965162368759,-0.8157986714848318,-0.7680892724010073,-0.6985567508933435,-0.629299388138102,-0.5598718140534438,-0.44959417890559583,-0.2531231389812164,0.006204798193566607,0.22754140285767657,0.34055951210617763,0.3619103102714635,0.36374258829302203,0.42009528935750307,0.5272574895980027,0.6318710541245188,0.7023817868981278,0.7373056240472258,0.7427321497994954,0.7224530543485087,0.6779096964808687,0.6073924804098039,0.526481153664632,0.5028458419955371,0.6142458606023073,0.778451341107716,0.883511648722494,0.930171918121063,0.9505347560753702,0.9620155394054859,0.9707958911260566,0.9772524328986404,0.9803838755140375,0.9788246050125817,0.9737610524762488,0.9651900244955331,0.9429741721175321,0.8490401191615616,0.36969440476961235,-0.35529840483521874,-0.5799987030504536,-0.6270800989217471,-0.6540236860729575,-0.7042985946330217,-0.7613989021149717,-0.7959345049713275,-0.7956338047269903,-0.7553487284242859,-0.6538073400200122,-0.44774524943891125,-0.13450602444268203,0.1637494674185609,0.34768380956144584,0.42903229853342256,0.4517017046013673,0.45692199877444156,0.4876859092998917,0.5569622542095687,0.6417681660689257,0.717005271986065,0.7708015610877894,0.8024617201172995,0.8161340892523155,0.8162082536040305,0.8046970139577728,0.7973563179415325,0.8243490702603085,0.876895493117199,0.9113773680763988,0.9060212692551532,0.7504735681803557,-0.42662867836647994,-0.8573361280220847,-0.9065615088347688,-0.9075283310475721,-0.8893848921690244,-0.8562601132499539,-0.8151724259500925,-0.7809525374764018,-0.7663652572127199,-0.7684074419408637,-0.76405121103079,-0.7007874565472081,-0.398884637530253,0.22144066500034162,0.5229732592575914,0.5528224627270512,0.3706085392050162,-0.10162775478372302,-0.5382829311232179,-0.7272610658303386,-0.8048483760946827,-0.8415168156717527,-0.856948973608684,-0.8502112638375379,-0.7937823588121454,-0.5095237914935687,0.37122981499062147,0.7717275032272666,0.8515918021944698,0.8614220932203785,0.8371178048773876,0.7813474971416278,0.6999985242818029,0.6173564372974203,0.5706912987696591,0.5801997986599466,0.6319652332580163,0.685635556149695,0.6990307818021299,0.6252497438923015,0.3850042517689102,-0.0013137382569369442,-0.2819353749518158,-0.39215626125817266,-0.3979275308909424,-0.3404543957919618,-0.2342295568155551,-0.12017552560439043,-0.1125814165520104,-0.32540497199356827,-0.6592974813120518,-0.8413944573178556,-0.9053410870561012,-0.9224459302920368,-0.9168470993283964,-0.8943536002721786,-0.8586273343960971,-0.8142095728682943,-0.7582356629597492,-0.6727249704447029,-0.5340217194470935,-0.32684703927938125,-0.07101881493504832,0.16453140184970497,0.3203738230754532,0.3871697528099122,0.3938132654544348,0.38390097074834884,0.3915836173614136,0.4300189696153559,0.4926792112527322,0.565939560216708,0.6410171526146397,0.7115314654946437,0.7709111454087059,0.8178039570388419,0.8524875952159593,0.8723528823257787,0.8743066116388097,0.8513883032755183,0.8131515626585947,0.797596051949411,0.8344408281878616,0.8955241323649269,0.9457248477624536,0.9634704041879554,0.9346754861362023,0.8199265059812993,0.5281173507380523,0.08568924787019483,-0.2285668341188899,-0.33014498690228083,-0.25272544195192614,-0.0028626542801496267,0.3030400317454379,0.5008397429796326,0.5933974544377421,0.6224531080710222,0.6114966990934723,0.5728663129941077,0.5329686626961324,0.5133540237146154,0.5025194400546831,0.48784972833756163,0.48889886955707046,0.5345952591536824,0.6288267989444133,0.7311103227623028,0.8022052043625355,0.8372086436560963,0.8497275544057697,0.8510258856472689,0.8460471279223591,0.8294798164931605,0.7837792489076052,0.6610449322546905,0.31443312834731635,-0.37142527488964805,-0.7976559557496433,-0.9265034733179903,-0.9662840486390744,-0.972969331192028,-0.9390133844760825,-0.778746187889072,-0.31139965961320853,0.22756094690475778,0.4813921832400047,0.5358763595315563,0.43530557608307247,0.08737872108625765,-0.47156696800319114,-0.7749894741017487,-0.8646252566805503,-0.8773506932370074,-0.8341539448927624,-0.6606900873687445,-0.16659291861460046,0.4100690333745098,0.6543307456021261,0.6896669232883524,0.5269128874223888,-0.12120858078829512,-0.7579555701325819,-0.9151659217082947,-0.9523431040551976,-0.9622717798802433,-0.9631181239029076,-0.9587657521077227,-0.9510001283552569,-0.942765284710069,-0.9364540292780273,-0.932187405940234,-0.9280081015537318,-0.9209057545007872,-0.9027628319787179,-0.8491661638342431,-0.710828923425513,-0.4622161315893413,-0.12001816755058348,0.3652638679531287,0.7503000215155927,0.8842452044117234,0.9287305084210136,0.9485545503783415,0.960014534386474,0.966830046951604,0.9693917794127991,0.9683145282656579,0.9645067362135422,0.9588972864721644,0.953076280307222,0.9490238547585313,0.9462763350605028,0.9412567992603802,0.9280456454288445,0.8988220966918765,0.8464885689500535,0.7780114635708894,0.7164010587096021,0.6778303331166697,0.66349004089458,0.668151632281399,0.6859782155343059,0.7140025046916569,0.7462242803917024,0.7788192186943352,0.808476513160887,0.8308299006625246,0.8409211060959026,0.8350947749675015,0.804503631291177,0.7109143712676481,0.420475542901068,-0.21973772516582882,-0.670891887964814,-0.826671939637836,-0.8867883625433786,-0.9163650537129567,-0.9284179360658336,-0.9229399226045875,-0.8806741898912611,-0.6646866664863725,0.1834029731339398,0.7265011201897729,0.8634478339474098,0.911631638282056,0.928830247002479,0.9156099115611228,0.7864569869903084,0.04778154558280578,-0.6414587777363805,-0.8157916170538827,-0.8767831421584144,-0.9065997529686255,-0.9236198257454157,-0.9336692249373602,-0.9400431229182182,-0.9436442536687287,-0.9429077344913434,-0.9369968992458342,-0.9279619158663981,-0.9177700692660459,-0.9051732741689033,-0.8819940001859206,-0.8335470072274536,-0.7531141977367458,-0.6365392984706836,-0.42206812644655073,0.05607531582299116,0.6096733947257645,0.8259509937576418,0.8721148745746636,0.8537950857271627,0.8045193731537684,0.7723666776343213,0.7825307092260255,0.8023639195664196,0.7884882029350835,0.6455051718714702,-0.24586277650178506,-0.899319494475266,-0.9444876491538786,-0.9190733101819348,-0.8472926954627312,-0.7469287484578153,-0.7237869183517243,-0.7801948484868451,-0.8268539492577001,-0.8323723363822557,-0.7651839023727661,-0.43452881603860233,0.3724883376158264,0.7305774574442053,0.80101449989655,0.7779082694380797,0.6603597150120314,0.38822185579967317,-0.008797272784609135,-0.31686780055024916,-0.44157057700621105,-0.353051773768436,0.1343409497929668,0.6613288639839349,0.8005484523378622,0.82604596481809,0.8355823170138804,0.8512950756272941,0.8706976356635078,0.8884283892469941,0.9044197159087178,0.9189097949752515,0.9307859521264584,0.9399715614382983,0.9463284738236345,0.9489160857185553,0.94814277545482,0.9439582938534911,0.9344397002842271,0.9110053705000892,0.8287934888671414,0.13941034074206862,-0.90216921418852,-0.9628322100261661,-0.9581923343274332,-0.9117088187647661,-0.4143405623335639,0.6545025376663307,0.8168525571508122,0.8348018522334958,0.8074785879180225,0.733563362917444,0.5800163605987471,0.34058817717671946,0.10379665511993605,-0.03664422678758068,-0.06382369478718715,0.022532414105520666,0.2028906057315114,0.3831720557001224,0.45094306401774864,0.32185267104989407,-0.1586479929915735,-0.6882509173026577,-0.8751932022086718,-0.9291644248652249,-0.9466463248487208,-0.9505169737218818,-0.948151636024907,-0.9425106950309717,-0.9318427411312971,-0.9095426511532462,-0.8689117515574094,-0.8200664654039971,-0.8014261473512438,-0.8369830657373958,-0.8906779657071485,-0.9255631345473989,-0.9380827523014627,-0.933057105610351,-0.9023281586129892,-0.7885733554621657,-0.4785485784440946,-0.16880891194993988,-0.08682156706283037,-0.15871648341358613,-0.2835065043880717
