0.12321986392042729,-0.10272422488721637,-0.3330937727357698,-0.4994607008496639,-0.5765715974532123,-0.5564984862491553,-0.5033754563043661,-0.5026312624573054,-0.5829404585525765,-0.7156766736943188,-0.8180503916324195,-0.8546290069599418,-0.8439992478607559,-0.800419649951723,-0.726621055552312,-0.619462325458467,-0.48465045377450533,-0.3496494189034304,-0.24410061256150783,-0.16051452851921302,-0.06253103648006468,0.07454502904740236,0.22901651819168914,0.34942035404379257,0.42563292595836066,0.5053588192274502,0.6297441076807514,0.776642261219661,0.8873962665042011,0.9325445916591866,0.9000490842525919,0.7654952672299873,0.5074282714246141,0.15046552332901825,-0.217330636535177,-0.4888301704523802,-0.6340459817571538,-0.6912970120755535,-0.6973679284182348,-0.6659409096458695,-0.597492579588658,-0.4717552880242198,-0.2562462785298042,0.06036338235516704,0.39900517188770995,0.6399408862672686,0.7588628518981166,0.7834410705115199,0.7078978642646155,0.4132340886125193,-0.15162643849362212,-0.46387755547468024,-0.4255056790407097,-0.0656604694257639,0.408828888204392,0.6638446203659614,0.7680761421151173,0.8146439862558276,0.837906185675059,0.8487300754496961,0.8482686229766169,0.8349193174978539,0.8051017939367291,0.7543898571517099,0.6748929092789379,0.5582696588898427,0.42838528407904614,0.3555267003054126,0.3663327824157293,0.3950615800479179,0.3568253471085192,0.1590295238735189,-0.26504304668402073,-0.6906754354313017,-0.8868312775692906,-0.9525974703010384,-0.9709804256009045,-0.9694640175134004,-0.9563198376613747,-0.9325540260578447,-0.8937802299789782,-0.8339668175278334,-0.7556429944121008,-0.670407768543998,-0.5765145736687726,-0.4602486406295873,-0.33853498636583784,-0.25407203561756453,-0.22309159589568206,-0.22576989141257042,-0.2031459479340237,-0.09765020958519213,0.12365973150568692,0.4214912624807556,0.6644671531339147,0.7914018860604732,0.8424998373857692,0.858870703450971,0.8617392440083018,0.8668542978686704,0.8803824252265899,0.9006130926972001,0.9183213405633607,0.9259508989455328,0.926816190574186,0.9261650153106495,0.924067523906178,0.9150311636262657,0.8866491924528137,0.8001984202920739,0.5025469363762027,-0.16843596918882872,-0.6053724474312799,-0.7411800064111088,-0.7672466167664537,-0.7364497882722605,-0.6652810464692784,-0.5735727634024438,-0.5126162531673867,-0.53285199881161,-0.6364150385725905,-0.741701769881729,-0.8008648641302856,-0.8279732810865241,-0.8337482507580671,-0.8034461913829217,-0.6839658985529035,-0.36557238000966724,0.08860798206451384,0.38677358874923956,0.5080102515350666,0.5105348130083863,0.3833406553835585,0.055490759760311516,-0.4316301244093323,-0.7549573115870231,-0.8830064685004584,-0.9303020593416456,-0.9449269146431041,-0.9391894740774683,-0.8990547176293388,-0.7091410399516482,0.046269305835521975,0.5880849238176811,0.6839169052065779,0.6435285459083225,0.5031356114272717,0.12406197212183195,-0.5579272050680828,-0.8792920108206184,-0.9454265942608482,-0.9458490144416042,-0.9062643400765432,-0.7606720842694872,-0.18897246559657527,0.567467285073599,0.8086353675590554,0.8810045658392484,0.912635978972128,0.9320907785372679,0.9454956869862771,0.9523710157089152,0.9493226210908334,0.9269203857583046,0.8584971603271879,0.648004563193423,0.12238068869981537,-0.41025052768662096,-0.6729846380654763,-0.8213864519154039,-0.9293556164690258,-0.9496205561669703,-0.8653712294575434,-0.6817208954505911,-0.37716734283069636,-0.04889222929761961,0.1394007117379754,0.15845730170645553,0.054348925798944694,-0.08512704280439753,-0.17894772196135533,-0.2055572307795576,-0.1715413596188533,-0.08335916015898327,0.044299114841034215,0.15431404337474108,0.10149151966142167,-0.3483925995788818,-0.7798001993918839,-0.8986399623713777,-0.9172505356694775,-0.8893002986063657,-0.801255351437685,-0.6084249743354204,-0.30783723460038387,-0.00899531879138169,0.15306745645480488,0.03733484306192257,-0.4593874095054769,-0.8238198734189305,-0.9284941704793682,-0.9564741701766231,-0.9609458421451219,-0.9495584292531007,-0.9127866954119134,-0.8198283343728265,-0.61290518350249,-0.27516873905459655,0.07496841287269165,0.32885381669592934,0.49392602378629025,0.6094452481120489,0.6983498217748891,0.7664964772714739,0.8110377871307708,0.8242185483031262,0.7915065316604534,0.6809659408155516,0.45078972422257374,0.15038219330783723,-0.05740325233102184,-0.08424884534538184,0.13213697789623588,0.5594684815350172,0.8376980131282563,0.9312550352019056,0.9576477141697205,0.9633705417561683,0.9571405691848914,0.928211810090047,0.8502875801606105,0.7155085860365018,0.5653997506260832,0.4296868692352885,0.2563577781725324,-0.06589689103931645,-0.4424688530084817,-0.5832095475305815,-0.44244639636333594,-0.00649861491758559,0.45510584767760315,0.7213245184806039,0.8537749913445732,0.905862061524462,0.9052169576398761,0.8187180608219,0.3524580075603548,-0.39742386876350505,-0.4882592856235173,-0.052572276772585004,0.5405523230073817,0.744994621126394,0.7497692849517652,0.5310736334971046,-0.19300910362556517,-0.6654937172836273,-0.7446357369346579,-0.6828649768209645,-0.520897514000469,-0.31602993720111766,-0.16689572038176592,-0.1098784925570437,-0.11876207028320204,-0.13744757548810999,-0.10931035365829318,-0.043334285329365306,0.04245442642599044,0.14698389635623246,0.27482884500938026,0.41213388020556213,0.49738128729028463,0.4086529948435178,0.08954792091442551,-0.24845255882896608,-0.43107788978354694,-0.46870213406128236,-0.3672707494030875,-0.0929633494475602,0.2925610855989918,0.5778159763806442,0.7227539941116652,0.7857122587206297,0.7822601430308752,0.6652163662996023,0.43476039522154175,0.2782529332402797,0.2583822296392588,0.3159165266836616,0.39936641896977454,0.46954778382808127,0.4908303737850668,0.4154746157272907,0.16594286828375518,-0.22877465510408426,-0.49827821690815777,-0.5682696683870817,-0.4632758777133112,-0.13452615802217066,0.31846431003658626,0.6179399474422306,0.7731288943711966,0.8654000971112259,0.910511328490536,0.8704974475178926,0.7745939119084835,0.724358528077641,0.7305541048573685,0.7468842330452774,0.7114592417604146,0.49095352047021823,-0.06616831628308023,-0.4926257354815402,-0.6672406992535077,-0.7432590935925509,-0.7801958832387844,-0.7982812404779374,-0.80182203228336,-0.8062114962377018,-0.8433183055032859,-0.8903595320941081,-0.9168162285431277,-0.9266506624629475,-0.9262469099128926,-0.9188916889911016,-0.90596966176999,-0.8873657755138101,-0.8622244582832009,-0.8336820797990042,-0.810614028453461,-0.7911194541125123,-0.7445590373689212,-0.5967801965587062,-0.22341383356625785,0.2623348651355694,0.5445871957195512,0.6553289419015442,0.6885473400414955,0.6857924025203597,0.6542579438619591,0.5764702002205873,0.41899264595801416,0.19338729346794511,0.006401624371611711,-0.04584111492982581,0.04218717517386802,0.22239882092726926,0.41522537162238315,0.5813209916720332,0.7112749710972401,0.7997983321465868,0.8485803319802419,0.8660391287850393,0.8601518098609092,0.8356134138808171,0.7981061736841065,0.7566681390275073,0.7217037029789357,0.6964431315445853,0.6741947516121709,0.6432462091027272,0.5862309625498147,0.4745274126572424,0.25357595572255814,-0.08946784045289134,-0.39421203560575563,-0.5589769565900814,-0.6262579589422886,-0.6316327048009612,-0.5677975003288812,-0.36297072738329367,0.017895143155530552,0.2726472251018129,0.11347762531255284,-0.5071208591610509,-0.8475291639218244,-0.9318370191148468,-0.9539452910861119,-0.9526293027914582,-0.9249969093948134,-0.8265924267253251,-0.5072990018129275,0.06084483477697904,0.4333234707385598,0.5873767330173232,0.6608609115505458,0.7316921079443668,0.8247317830413822,0.9018796283133963,0.9299213026608728,0.9288042475807596,0.9157733485859305,0.8883775700657289,0.8343961492937236,0.7604969862364911,0.6979733295146785,0.6569356448411292,0.6228727812063469,0.5814234971814418,0.5387052036610631,0.5233213481160003,0.5397546652073877,0.5558577937657082,0.5574619341908812,0.5459046088713948,0.5223371217097681,0.4632545773320587,0.2956727227986945,-0.02179985830563832,-0.3578396124750533,-0.5557384210651368,-0.6290201483290482,-0.6135533677833812,-0.49856535554984655,-0.24282886017110816,0.10405000610190959,0.341258398773751,0.41733445910108874,0.3798714747132506,0.31361755764723726,0.3213158223910491,0.42085430213026415,0.5630419717040681,0.6992762147834183,0.79992937534224,0.8656834526463314,0.9066819804826008,0.9309993199724498,0.9422693833883736,0.9371649759683818,0.8606672539068404,-0.27874785864936685,-0.8797432316548208,-0.9201630655845852,-0.900284968582305,-0.7765633121197336,-0.09007144931925823,0.7715984296170377,0.9266064178356497,0.9347391584109844,0.8883434270428558,0.7808937865950922,0.5494165780894298,0.04253622791313886,-0.5622303287255125,-0.8281389245058944,-0.9076168628298368,-0.9312602088319997,-0.9343681221101277,-0.9251928830302608,-0.902484847042741,-0.8570364553426806,-0.7862323121718224,-0.700365279987441,-0.6119202141456572,-0.5281779672538638,-0.4483858259740612,-0.3819030583670624,-0.3445482629515648,-0.3076179187804268,-0.21445423831478064,-0.04536804379537144,0.16157756368357554,0.32512323226153,0.37997356700424645,0.2618423614738482,-0.015202724770217032,-0.29559251636338507,-0.49157273115705574,-0.6078837909394139,-0.6578164974025142,-0.6437761716727117,-0.592296214005152,-0.5389356746703867,-0.5062549160683103,-0.4883147210191821,-0.4645266116284217,-0.4108160265524606,-0.3075122411824113,-0.14646675465971165,0.0719335794810706,0.3044429799186195,0.47299227927518595,0.5609818952308209,0.5962498294059779,0.6012879359084473,0.586400100215694,0.5492233525959384,0.48232686348364406,0.37412646770475555,0.2330596193483608,0.09520652500931585,0.001301665643601356,-0.030889243994383992,-0.00635488059484476,0.061613620172728395,0.16086503376581798,0.28645740919790547,0.411484530311174,0.47964975493170303,0.4017948837735054,-0.06215135235153021,-0.7244326496623368,-0.9178675571473642,-0.9588916216718065,-0.9671199987543669,-0.9589861566907208,-0.9126915751646054,-0.4635341152179548,0.7970415201909343,0.9382125013277799,0.9631599840089552,0.9714766728432459,0.9731937970548286,0.961871642876366,0.8404838525881194,-0.5863875590891356,-0.8953621959138574,-0.9033948456675431,-0.8122931276991051,-0.35640470819868536,0.45884039083694006,0.7545724669356098,0.8392989222315433,0.866348514174931,0.8652517809099972,0.8268360273746388,0.7106367803827361,0.4846294047965287,0.2707905953825515,0.1976243593378017,0.20867316894474372,0.1710959218500412,0.01027017980284755,-0.17337847086549296,-0.22515902254583725,-0.08216551793959334,0.2403539504862226,0.5511094042523571,0.7065607112094067,0.7538854391604007,0.7534338352394082,0.7341505211668862,0.7106377545657442,0.6817377382491663,0.6254552119776069,0.4987902013976314,0.24282621117645214,-0.13866584027442638,-0.48122825941474096,-0.6907737489575698,-0.8119950850383832,-0.8831966426872944,-0.8710899604686062,-0.7181096296980116,-0.518759152745959,-0.3910033062160272,-0.3401312810068148,-0.337672394305677,-0.35509444222924047,-0.3662315175857629,-0.339757545973386,-0.25165525778320946,-0.10728470311317058,0.039863177938661294,0.12402629221578215,0.09318446258435453,-0.07367533127400774,-0.31528739355087093,-0.551352831252635,-0.7236493591486846,-0.8016906729974522,-0.8215663489020918,-0.8231646453212493,-0.8201197022557344,-0.8134826519721801,-0.7946409206146812,-0.7463200746449234,-0.6577699669647862,-0.5649086708888129,-0.5440402202940959,-0.6257150938043493,-0.7425675440794721,-0.764282147330421,-0.6512476785622858,-0.4278371582065808,-0.11351362952560429,0.2279015926873578,0.5104997250736927,0.7013244816053946,0.8144095729729978,0.8786673446884272,0.9181521846599147,0.9453739919115903,0.9619272156779214,0.9685709911312846,0.9674018874973916,0.9596497997295934,0.9416801674449131,0.9059246130656439,0.8568968279936536,0.8248677695322586,0.8206618287054809,0.8158942193693061,0.8001350324569934,0.7747173808613913,0.7394021569607532,0.6960149942597025,0.6438372035167642,0.5778266859097149,0.49735742026029917,0.4135281398621948,0.3365338282856456,0.2711570476785837,0.2155819247672104,0.1599762935794865,0.10103587215398882,0.04888458065621568,0.0364465864755013,0.09156555627401892,0.18730791239638858,0.23947555206055837,0.17243951400566807,-0.05681434428926908,-0.40891429715598615,-0.6934397891527758,-0.8149815383222359,-0.8248569172574933,-0.743783914100679,-0.49674333427697137,0.051502555627296186,0.5884039310442453,0.816127237107655,0.876934852509817,0.8577130284444281,0.7871512760559395,0.6787597806737786,0.5419817769748392,0.35371325898657796,0.05814632032690313,-0.347776470765855,-0.6790126289805288,-0.8472140810386986,-0.915943677636984,-0.9371054649091813,-0.9247443278573472,-0.8646239799715952,-0.7129494885482766,-0.47000703550035766,-0.33114817879698416,-0.4162148707969692,-0.5901142199995831,-0.7102635255097367,-0.7496002614897653,-0.7112609152663271,-0.6037128157815908,-0.5059111740898774,-0.5108311615928638,-0.6153925003759195,-0.7442613210332722,-0.8298201658642701,-0.8455808503140968,-0.7611031219705284,-0.4667098636301831,0.10389194128330469,0.5864529842963937,0.8156461822548466,0.9065212754734736,0.9378954462146174,0.9455891388082408,0.940320465006602,0.9161149459708441,0.8401687262107753,0.5864025554806072,-0.01818885351557649,-0.5216256738106049,-0.7403870649374377,-0.8458254539946652,-0.9072986353122733,-0.9403494215364008,-0.941807661027426,-0.8922904932370622,-0.7693241960062951,-0.6176261063452174,-0.5338799811022235,-0.5314215638398886,-0.5668007173682331,-0.596603973404966,-0.604021453980201,-0.5944594340118322,-0.5707231917312205,-0.5301852787850547,-0.4837743813375068,-0.44906974448779885,-0.4302268206660234,-0.4104251931189264,-0.3512551641645965,-0.1933567526613168,0.14602993773316147,0.5730553724715719,0.817560256038741,0.9020826231941015,0.9202794963431274,0.9002898954210004,0.8227633049048674,0.6247253282279648,0.3053597068241863,0.1023172927576451,0.23295312882646074,0.6141589753355882,0.8480614959361095,0.9302300135157088,0.9596058728467524,0.9703911130121252,0.9723239412733505,0.9690007610478132,0.9616985163270421,0.9489384477649626,0.9257955273667079,0.886725662178542,0.8303039835918855,0.7668311060168579,0.7049720203534476,0.6292254080905437,0.4836441652438781,0.14694427698174206,-0.3079724493177123,-0.5637810886038279,-0.6509904189979384,-0.6614331675402582,-0.6157290280692722,-0.49527763124978336,-0.2722561700332282,0.022845045391173047,0.28602472674976037,0.4612959655527203,0.5576902017387023,0.594353232632116,0.5654260600382645,0.4325157151871261,0.1263353848850897,-0.30412063272686984,-0.6049104801729321,-0.7274069483999498,-0.722795174428151,-0.5896440226293779,-0.35290525165075715,-0.11719323619631286,0.02812473141781374,0.034044731161867334,-0.12637659123721948,-0.37489607773543215,-0.5916067075402089,-0.7338813516008867,-0.8320085936374528,-0.9069109818334935,-0.9531690878025196,-0.9670182116357744,-0.9530454139263904,-0.8997958498135705,-0.7433484283383189,-0.33380747318729165,0.18156796584267967,0.4338333358877789,0.5090433071319885,0.5026900592863432,0.4409114035372359,0.3190988468902954,0.1343115388465572,-0.08164418807152102,-0.26568470498614916,-0.3890964659042566,-0.4572004312257646,-0.47584429932454964,-0.4493467057579343,-0.3977374724773933,-0.3702761862043955,-0.42636823273594604,-0.5620290045910233,-0.6685020853181745,-0.7064237364917454,-0.7044825294846498,-0.6825341508491909,-0.6334557347646506,-0.5039394584779517,-0.27581446674894977,-0.09985080767352099,-0.03350745861543131,-0.037692018177312686,-0.08855397138035942,-0.17373982593714962,-0.2754872544299376,-0.3809230880473382,-0.4815486641078794,-0.5436102211535155,-0.521808210402916,-0.3749071059916301,-0.09771483291060994,0.2127747144086354,0.4487938785002854,0.6097463453034958,0.7341277930852669,0.8341864980481257,0.8985511169965473,0.9274510513046059,0.9398785047683087,0.9459456333863024,0.9413766368166926,0.911984736641805,0.7886041511788656,0.24966073678896367,-0.45073088756429003,-0.6484221613220708,-0.6478727451887957,-0.5322933308818592,-0.2624553919441816,0.17635476786729282,0.5960977257461412,0.8296115100265171,0.9235034249922593,0.9550043392399249,0.9644288221423022,0.9666345401309093,0.9657407660183632,0.9616874326706302,0.953464212553539,0.9420804823555644,0.9267928770901337,0.906401909367767,0.8782709959624379,0.8410062637365743,0.7902664396094708,0.712016712278602,0.5794899320901015,0.3028840932889416,-0.2999181713255561,-0.7877523753014274,-0.9232320087492931,-0.9582740815343933,-0.9695675159201265,-0.9731818855573281,-0.9722112214802133,-0.9663387322111407,-0.9518577098193016,-0.9115412838946649,-0.7471037648060209,0.08578598860410569,0.7709556826700519,0.8883083079669779,0.8933938451108975,0.8067546882397792,0.2990346617594485,-0.5490345304710346,-0.7714710254193842,-0.8097195718893245,-0.7862789518474187,-0.697260722908674,-0.4929568279200141,-0.18243086854891227,0.04246548770988476,0.07845180683360704,-0.009914228519057369,-0.15105207044377505,-0.2861812264730027,-0.3391770914974302,-0.2662924394245284,-0.09546766863940956,0.10136007789904068,0.27036203745740794,0.38944670327998454,0.461296732765971,0.49921171516299095,0.4982104997836456,0.4213762046190454,0.2632875281985685,0.1477792746224867,0.160594931124212,0.318073542353163,0.6284718795346068,0.7768214333424662,0.6905910016262505,0.6641725601075124,0.6985886354433207,0.7657115071455481,0.8406761105195936,0.8864628368265417,0.8373969449046632,0.5833123756570322,0.12592501516250146,-0.2745689379133022,-0.490243054452188,-0.5689078608601807,-0.5564949646423718,-0.47240101634763604,-0.3334780060407883,-0.1922659283469818,-0.10560664516097189,-0.08234171185131374,-0.10196527178887546,-0.1387225086173175,-0.17442470800833032,-0.22392519512619724,-0.33344817397256826,-0.5177514089451681,-0.6841051928852461,-0.7447512736513182,-0.6865501736825749,-0.4574905145607915,-0.05667012076069001,0.30557469156994765,0.5281479603091008,0.6591695930851342,0.7314869929810863,0.7420461322061763,0.6525866737163477,0.326928450046678,-0.31210777936239575,-0.7215968555477215,-0.8497231427330404,-0.8674784055066658,-0.8010969569180896,-0.5504074989621882,0.011327364450341545,0.4885967546603808,0.6936740870640975,0.7711563326750605,0.7938677718942524,0.7788267611686654,0.7239412820599027,0.611796093974898,0.3790318787741578,-0.05488146925142531,-0.4788050517379052,-0.6889796790682722,-0.7695139175739248,-0.7876182124016908,-0.7514672921254834,-0.5935899623718115,-0.1838169906599849,0.22658979117159844,0.3088707723679291,0.029350013712337242,-0.49526568443097035,-0.7788268634352868,-0.8638321807888311,-0.8789995319221179,-0.8617437050096679,-0.8273467682195638,-0.7922567328838809,-0.7681035382595547,-0.7552062157202363,-0.7427593331869843,-0.7152388907002272,-0.6575463015135106,-0.5704211244464974,-0.47830051983775174,-0.405696422031668,-0.36310825216095544,-0.31886573089648845,-0.18327202449484406,0.127229431602849,0.5077104312413696,0.7579375081576856,0.8763349658705505,0.9279353036644206,0.9490788962214907,0.9560784080690111,0.9563315645752282,0.9517661602469574,0.942156597038705,0.9290613573096137,0.9159762414485982,0.9068517153706663,0.9016625890977775,0.8947615619527275,0.8755109372033935,0.8181153093392726,0.6541905587692483,0.26777191347292145,-0.22391621078694018,-0.5355693791331028,-0.6884866963185202,-0.7647695405122461,-0.8071760517441344,-0.8327203918087669,-0.8381109483231074,-0.831484176242673,-0.8469933537581195,-0.8817597417364473,-0.8950748608230154,-0.8910786371174934,-0.8883956263441594,-0.8915742220733998,-0.9036501121674927,-0.9271794300953964,-0.9568223477565785,-0.963471726503152,-0.8881114102402106,-0.6836868570416843,-0.42785202515139986,-0.249083672600554,-0.15747153606822079,-0.12018557646496913,-0.16148054397936865,-0.2928114267467575,-0.44917482628010447,-0.5527168059843567,-0.5997476254563959,-0.6122859436655894,-0.6137531176535671,-0.6300617243678922,-0.6664374291763473,-0.6732748621720187,-0.5738102813902789,-0.2585666252791877,0.23109937299168484,0.5636331445466426,0.7153719499715622,0.7888105753839445,0.8345231705052183,0.8609895391069384,0.862800010611756,0.8183094613055595,0.6159260863379309,-0.12614109595241438,-0.7198947911318129,-0.8502245160031413,-0.852463219905621,-0.768094454881476,-0.5374349193585627,-0.17375083583850168,0.11842698229463351,0.2839933107344345,0.4152183554584146,0.5761569673106403,0.7190266857773822,0.7953348184614939,0.8239560396904897,0.8248665538734199,0.8022450624190501,0.7500106479092825,0.6392876151031647,0.41231166852516005,0.058800774194156594,-0.28534754784282285,-0.49451251665115925,-0.5748343890780364,-0.5592971326874623,-0.44858561008230086,-0.22030297683718167,0.07709464935658862,0.2709421972236287,0.20419455934755248,-0.19639973528890006,-0.5454584923755265,-0.6588224060847709,-0.6255846866986401,-0.3727444880236143,0.19003619077299289,0.5413999153228242,0.6438394402488571,0.6292296537360293,0.49933565968143606,0.17994263916346634,-0.27714544484289033,-0.5683495353629731,-0.6545865047252192,-0.5390205482328497,0.013382681694831007,0.6310936960647906,0.806511876770592,0.8714139462276911,0.9140993799328124,0.9432629143241471,0.9556881972505052,0.9519209016776158,0.9268802765717039,0.8499866226811591,0.5899716801106009,-0.014473277126102366,-0.44364588683131406,-0.5716348740528028,-0.5798126139693761,-0.5430074727686924,-0.4879697246474457,-0.43196989029248944,-0.37435857650453963,-0.28015177646241024,-0.09650199522143904,0.14443699869040463,0.31491834589594175,0.4085365246805817,0.49442784652177496,0.591860332194291,0.6556605248855636,0.5819004366052642,0.08361219714854322,-0.641971440124093,-0.8610949482826904,-0.9156184315806358,-0.9314880942634659,-0.933178942012332,-0.9226024105940215,-0.8546414920305173,-0.18499110555619547,0.35466661996759735,0.12252570004349707,-0.46049127656192995,-0.8031867060864479,-0.9100541979626761,-0.945225328338521,-0.9598553681048015,-0.9686819447692828,-0.9745696019263339,-0.976932502913193,-0.9748941738855975,-0.9630753635017661,-0.9042677420626625,-0.3379065859965752,0.7294423112618605,0.8786116853486892,0.9057735206994733,0.914426493611956,0.921234592243325,0.9276235364989829,0.9259136379471398,0.9085005929736378,0.8688851123765408,0.8027795998497718,0.7121861857184738,0.6134688131597466,0.5342316526895537,0.49334429416772885,0.4927285906206835,0.5195571409766874,0.5567357953934483,0.5965622566817532,0.629325217300916,0.6406617610719142,0.6199279117854144,0.5581240118997983,0.42961537330816096,0.2156965100863133,-0.01229884556592321,-0.1788344681207583,-0.2876161507719529,-0.35427154860026205,-0.3763766228224991,-0.3294993494145256,-0.20322346205957184,-0.022051389804904658,0.15936423744569028,0.2920229255792108,0.36483474492575996,0.3928107301252946,0.4340973299826101,0.5369512898792065,0.6478451805404599,0.7239089083394739,0.7550861191346705,0.7435438966886958,0.6935310861139072,0.6225188435914967,0.5547303015558509,0.5186278472326833,0.5160276721607009,0.5272323277732889,0.5296598772521316,0.5139034927340179,0.47743787765868145,0.41984474514235626,0.34298817818133664,0.25059244335089015,0.15490344377707085,0.0744179754537195,0.021222164788151174,-0.006115664220155823,-0.03565799341416022,-0.09026975809766914,-0.17131173114486203,-0.27086101597737505,-0.37866847967415546,-0.4576258290800273,-0.46277319090379476,-0.425982776431508,-0.3980205983473156,-0.3900195547257132,-0.38693782646484104,-0.3693421459415527,-0.3297671232387787,-0.28118416556797915,-0.24312221830290198,-0.21321019236721256,-0.1519957549933337,0.029354535489651678,0.4085599101370904,0.7516157457004725,0.8682386704405505,0.8851971863285306,0.8664865205483033,0.8166390923615748,0.7075982120337904,0.48828280535604995,0.16784992063206763,-0.12196360056817934,-0.2972136054859782,-0.39082866129887683,-0.4413177255645113,-0.4706822526984579,-0.5014828283154124,-0.5682849679058435,-0.7149275381896094,-0.8807195633515679,-0.9521373588095734,-0.9598826260703769,-0.9455502155170437,-0.915380772044544,-0.8546214826121623,-0.7230833775426215,-0.4693506843203324,-0.1671942253721267,0.022628543041046903,0.06833941607769406,-0.013538881187137764,-0.2220942575370071,-0.5081264996081034,-0.7423523521195399,-0.8726386967792022,-0.9374251546584491,-0.9689478299041077,-0.9637855177635546,-0.856492009651459,-0.5057090542218444,-0.043292788664801296,0.23086158406812343,0.33331378901443554,0.3325116949584893,0.2648777505060658,0.17445448982678116,0.11143458881726612,0.11073351056432718,0.17874432812578867,0.31078318365953345,0.47287120234840613,0.623404366239348,0.7348976342719508,0.8057814150233215,0.8432566391431374,0.8609448331152956,0.8722088094837794,0.8875709451254202,0.9061641870450606,0.9203578320885135,0.9233877151098554,0.904135126093447,0.822231458559363,0.4998290194630096,-0.23941669664475956,-0.6676956922860081,-0.8000767957546829,-0.8352275377392872,-0.8237412269215563,-0.7727218187703438,-0.6585044001583807,-0.41701605356863675,-0.011176487981462232,0.3819286104757035,0.6159661984663436,0.745590794320441,0.8296602399260469,0.8778416044144357,0.8856185880303454,0.8724850149547276,0.8630632775248709,0.8644692080826943,0.8726788849976977,0.8814949921527216,0.8819359762545543,0.8576734178957478,0.7884716548986576,0.6669821639775562,0.5294642942980838,0.42986725076097837,0.3945510435624999,0.42898642457059366,0.5133099521231475,0.5713779795992229,0.4771597671688574,0.21002928872256024,0.0655321102577459,0.11402186637429525,0.21445891019915014,0.22320655276255738,0.05791275500807227,-0.2835809122944948,-0.5955206907608658,-0.7426197726460616,-0.7786966774278987,-0.7390102172250618,-0.6213260655183408,-0.43867318201046956,-0.25601546558518795,-0.1424766915081402,-0.13327475627810087,-0.25988518485475604,-0.5115991560859737,-0.7513708024832537,-0.8843168753174653,-0.9430415254654013,-0.9663482544305702,-0.9714651088053128,-0.9609067254787753,-0.9199114539556074,-0.7777447686811207,-0.3991708747217324,0.030704797387378545,0.2640913215858171,0.3815913583677415,0.46180813228570106,0.5281822343823036,0.5813929241066337,0.6180654950155766,0.6496547029492156,0.6989859893738978,0.7645962726344474,0.8177758507404644,0.8398313249568765,0.8279540693218733,0.7734436183616998,0.6536250104921671,0.46122726902166655,0.272137597161962,0.17491789097682026,0.16582115396658914,0.19493761964186695,0.2201596931858357,0.2230704525916849,0.20434162566726027,0.17568858751687783,0.15489752315784633,0.15255246013327736,0.1654943150966916,0.18414319489595285,0.19258661133746727,0.18133518786303196,0.15349998694466757,0.10449656490385081,0.015866254536952774,-0.10175787973822635,-0.1313229361444723,-0.061037817098287435,0.014186979869085613,0.056459513888162095,0.04579661241354756,-0.010474442903433695,-0.08069407455581026,-0.14689575647372272,-0.1964508958846095,-0.21807827941812397,-0.21087279868354378,-0.1733687209362174,-0.10797246250449753,-0.02903474714764153,0.027052906758842022,0.01663350538939882,-0.0759812699563562,-0.22302924535527008,-0.3770401679177611,-0.501397599554024,-0.5903982712585945,-0.6555827079383689,-0.7130607192413225,-0.7698601854506598,-0.8179196337850964,-0.846351322720709,-0.8529689273821176,-0.8280243069424734,-0.7376637444348916,-0.5006303818573957,-0.07490631513443029,0.3132412622049161,0.4214610271112426,0.23864045806009718,-0.07649554239562631,-0.3457087035803043,-0.4963317830483306,-0.5113117650520186,-0.3368007321218925,0.0919898442809168,0.4807477933710915,0.6617811828931117,0.7402695613160364,0.7764688472965153,0.790705686328607,0.7857300578045171,0.7629646177948257,0.7325699385945136,0.7204428543684246,0.7512603957419203,0.8090156728704591,0.8574272892693139,0.8862607936998819,0.8970425736912577,0.8932780951702389,0.871738416950218,0.8146450254334228,0.6665393892388227,0.24228228218131576,-0.42925740385413347,-0.7508714116411097,-0.8517991936868151,-0.8892464609349525,-0.906226897611197,-0.9110004260140961,-0.8979471153882552,-0.8258374228664253,-0.503269872737967,0.17148406353864346,0.5873984162122501,0.7495137699406581,0.8054892249812934,0.7942430057827922,0.7082460652616365,0.5613955385028419,0.435047875867277,0.3567583667375518,0.2783342272816365,0.1323120595690771,-0.1270920584046161,-0.43171181016860793,-0.6377234470580798,-0.7324955635023103,-0.7764759562080407,-0.8217914437864607,-0.8791509929481994,-0.9238678610922183,-0.9484100773153354,-0.9595082380182606,-0.9623739727554521,-0.9578488455349763,-0.9430677502984516,-0.9093567986322879,-0.8465879588858182,-0.7639173603304323,-0.7208982821953563,-0.7590181891252804,-0.8193789185547118,-0.8464806412611935,-0.818974622965793,-0.6383112628507025,0.13321442754803467,0.7786212480913588,0.9124588917662275,0.9464886532062485,0.9568483979786934,0.9588399886247814,0.9569248599900044,0.9526171399566096,0.9471816868513999,0.940251345084991,0.9316567790598759,0.9212667006409054,0.9098893786879634,0.8990281415308031,0.8889720007250265,0.8799212478604655,0.8722866064720601,0.8658601166017619,0.8622223227351086,0.8509607358460354,0.8005160695061189,0.6852498118172019,0.4985612749331275,0.2533782109028805,0.012249488472627306,-0.14745143790386372,-0.22776798276472315,-0.25840849982021846,-0.25374917285880644,-0.2028699785781129,-0.06424810280006893,0.18364672149145322,0.4410191434779558,0.5945135551170843,0.6628827338854232,0.6890782469957399,0.690699271751046,0.6767549699779302,0.660933783960048,0.6522874036914973,0.6377516827064175,0.5909017647000494,0.4894840297719669,0.3364677825139785,0.18648567797210425,0.10115907205383552,0.0892284152593787,0.1176914598983663,0.1387496263823489,0.12151094372142875,0.09412615720307423,0.09083105018751486,0.09571624304382988,0.07302993224151746,-0.008424155644980714,-0.15412799374108502,-0.33986952140054544,-0.510315164275864,-0.634919521705616,-0.7256530618716116,-0.8001596823578587,-0.8546251068765341,-0.876842113125063,-0.8825419494994111,-0.8807189717142254,-0.862383744305793,-0.8083750770168701,-0.7131821019373225,-0.6683866445273637,-0.7451947100958651,-0.8376348422230004,-0.8898924368743447,-0.9139038205559179,-0.9179203133974313,-0.8806909998430951,-0.6718561005305277,-0.13216385903959352,0.24357907338574508,0.3558408089605398,0.36845176798801177,0.3650673400249358,0.377928380454534,0.41316839098423835,0.46816211839634425,0.5356331716390416,0.6025896484413662,0.6584137040188934,0.6976457898877549,0.7145219822069868,0.7128229325424932,0.704120798499037,0.6957288165417927,0.6923072795411529,0.6960429012090822,0.713871645819352,0.7459075813903804,0.786797780565144,0.8309742332070438,0.8712339291653116,0.8934217092704585,0.8931504839870646,0.8559141133184092,0.7382032931668495,0.4469211087403752,0.0418847632256549,-0.2883236252242014,-0.5448888001673622,-0.7255030376710547,-0.8158249785754194,-0.8524522241759014,-0.8625628081828189,-0.8552741170604808,-0.829146372664784,-0.7847905228361546,-0.7316170566115264,-0.6846338857786479,-0.6495942694586786,-0.6204383519539993,-0.5854402659078477,-0.530843113860713,-0.4445101741971558,-0.31857368011866605,-0.14029618452191528,0.09427121237291262,0.34200772104747884,0.5379358598827862,0.6608938959053945,0.7278506137981201,0.760398850470778,0.7755714036443305,0.7821674043213728,0.7830694366865993,0.7712778474081472,0.7361095552595082,0.6605526967785617,0.5086968422487957,0.21942665170527914,-0.16839503962879318,-0.46313316874146493,-0.6524229308541464,-0.7898387063240297,-0.8751592827029405,-0.8977508896334576,-0.8643925242917261,-0.7731158117851159,-0.5913510635269834,-0.2391478921774841,0.2768105522266922,0.6455082350296123,0.7846334545527714,0.7899291409252985,0.6435453918637338,0.3255190582456887,0.12692226094129277,0.02115470196536395,-0.23417320199730965,-0.6178268559486566,-0.8387958035318871,-0.9177143398601145,-0.9445758918701247,-0.951172855901429,-0.944935083753027,-0.9240552437635007,-0.8818061068439521,-0.7757022579302925,-0.12372652510201601,0.7212079255239563,0.8530039313078018,0.8835779706693145,0.8949205560021065,0.9022530031812664,0.9085996714230662,0.9143751022106261,0.9198797505758641,0.9203905023713385,0.8949461076818768,0.8119849302548207,0.7082044663030184,0.6551847726614541,0.6345347321496231,0.5899013630724352,0.4782887697239743,0.24502910609846307,-0.1478077014438719,-0.5422866034328646,-0.7541289370210829,-0.815448632083447,-0.7615173371888353,-0.5190572727544686,-0.026586694825221656,0.3682224441282386,0.5241573740222185,0.5432818582374224,0.4796991655705803,0.35559299333428585,0.17474068825684055,-0.042920387300709,-0.24371832456999823,-0.3579286623535996,-0.3510737037334479,-0.23029909108311172,-0.05309906478128732,0.09162854546854295,0.14748665513243686,0.13165247041339845,0.072666731825025,-0.011450355692926963,-0.10863741501826038,-0.19399599774059903,-0.24278618663327803,-0.24891421219990253,-0.23460903594701576,-0.21665774735183627,-0.19818524079537775,-0.19299006610869987,-0.21299847798722915,-0.26650888199052497,-0.3526310199213457,-0.42964185088560997,-0.44455441715447025,-0.35150883291343926,-0.13171373082452204,0.12920051409275116,0.29246903696668786,0.34141967745557894,0.28438693470774246,0.14873405190814204,-0.02247715495028498,-0.18718591663190098,-0.3376971290559099,-0.47191518083469863,-0.5790628853572721,-0.6565982154979554,-0.696096562082314,-0.7008892388413434,-0.6857843125975889,-0.6797412992878971,-0.7042445046168466,-0.7477957066551391,-0.7835173951994526,-0.7960429277072268,-0.7680166381792118,-0.6717282791528404,-0.46551746632402663,-0.18015580823158578,0.02574081021636711,0.07106698088341476,-0.015599881398872487,-0.1813501410005431,-0.3502001020732295,-0.468378922376349,-0.5166014996824596,-0.4821617656271974,-0.34627718839491717,-0.07622248859980806,0.33741995427859034,0.7394043642659329,0.9227980356065688,0.952943081689646,0.9469412948522281,0.946874521318762,0.9555609635277794,0.9642664275621415,0.968300866731511,0.9663944972900511,0.9590221457939956,0.9479138316344212,0.933572724314371,0.9141392023318289,0.8826338564564626,0.8293333418429063,0.7412688914703298,0.6031720141533128,0.3944551717794169,0.09245538883560661,-0.2647899387593766,-0.5488128451312945,-0.7066707646557493,-0.779246411416807,-0.8148211517745108,-0.8451151992120072,-0.8791193727737724,-0.909845802490548,-0.9290169042800585,-0.9329868831624707,-0.916563427438523,-0.8603265550446085,-0.7016599313721487,-0.2928811012805866,0.2943670827491999,0.6449791396555191,0.7769708889023217,0.801789539841082,0.7538053521682873,0.6175906122900624,0.379343959423156,0.12309772416465485,-0.024156560703440463,-0.05975683582789328,-0.03659158378320223,0.0059046896489786845,0.04028616691980307,0.0598309765231158,0.07115774990839437,0.0889622856884387,0.12273679575313798,0.18112486868920782,0.2624275384780381,0.3503678095575507,0.43139357290035296,0.5069937191629864,0.5815969401300425,0.6464868112846914,0.6927798644163417,0.7130645950719725,0.7098846139780403,0.6949638618349331,0.6853475908475161,0.6860293692574392,0.6769427690585698,0.6008384789294346,0.302636585029339,-0.3518882746982047,-0.7612675197973162,-0.88887308033375,-0.9337305905139746,-0.9525471189471912,-0.9597683026603043,-0.9521099626740214,-0.8671607125509743,-0.19082561045732688,0.5866462571858331,0.7542239913651076,0.7899689333284159,0.7855077776825788,0.7493304223299014,0.6724708133654733,0.5407185184958558,0.32287164744097147,-0.05529126594319499,-0.5461329321347356,-0.8158176288430354,-0.8934838969338587,-0.9056431447976282,-0.8906957514151426,-0.8594554508142511,-0.8368589990132334,-0.8487325591304739,-0.8702193539606057,-0.8522150249601711,-0.6782178820987664,0.07471777988021998,0.6665534564693214,0.7807536615601941,0.722052172111609,0.379669973951965,-0.34090686035127016,-0.7028997536716799,-0.7958471243910878,-0.801983652444656,-0.749862192056751,-0.6115653730635592,-0.3407311095860079,0.004871768465456738,0.251068780289279,0.35519745239601763,0.365487623980876,0.33093022174295456,0.28595794340477215,0.2501196934049432,0.23906672668139095,0.2626868853119241,0.3289988724777602,0.4486139707086684,0.6091774986135905,0.7551114898370694,0.835477788490269,0.8582856868257359,0.8517361175185536,0.8255703137547157,0.7544065680806206,0.5473991558036118,0.11277869606356968,-0.2534163887286081,-0.3735872807331411,-0.3574942865369571,-0.27686782973623636,-0.16152929263779717,-0.02236925873611275,0.15895294272900798,0.4103940745937143,0.6576141554203543,0.8008343123178214,0.8585639539651753,0.8777898319695832,0.8797469453746228,0.8726151896033143,0.8600896309719984,0.8456914761249267,0.8338319640216258,0.829543881506036,0.833637819534608,0.8210653578051158,0.7314137616639976,0.5386251224708732,0.3166054217900711,0.12891820042644006,-0.021097679685478547,-0.14640375404537395,-0.2535644497926408,-0.34525880116431285,-0.4243066452717316,-0.49355689395940966,-0.5523439627263391,-0.6008329874758143,-0.6373569985588422,-0.6656427706731283,-0.6913911683340427,-0.7213127460470132,-0.7555300900336409,-0.7911258055185912,-0.803247190374622,-0.7072507298582684,-0.4196993153261494,-0.1460701564812219,-0.059255583230885145,-0.10866172117920016,-0.2080931150962472,-0.2960544315173812,-0.3558550420343584,-0.39560631724444684,-0.4256052296256746,-0.4394222057028861,-0.41784435978558565,-0.33713716501159,-0.19129665185987804,0.01239389317879415,0.25242970749700505,0.4705287901034291,0.6180362750089656,0.6836948074267376,0.668883511666355,0.5330063272175478,0.13841410151748557,-0.4295341324673328,-0.7172088674057221,-0.8006934266104603,-0.7867749222360253,-0.6820363872617647,-0.5228469654254463,-0.4051669413753602,-0.35834101115199773,-0.37745377950899184,-0.4554462580980285,-0.5798996973740262,-0.7212996405180395,-0.8352958478347129,-0.8832218821209643,-0.8468290572990794,-0.7443561013398694,-0.6392598189974752,-0.5905830286370348,-0.5755118283591742,-0.4631523973841509,-0.18098276124496324,0.05449400981719345,0.14990817570016665,0.14221640709132455,0.07722541392758327,0.009417511604000093,-0.03605476876769057,-0.05389536975095086,-0.05339737472481696,-0.03608266298263813,-0.004961751332343645,0.059093498483625155,0.16689644118196692,0.2902642214666587,0.3716790840158731,0.4040933296756572,0.4405177345468666,0.5205307328235799,0.606975626114251,0.6652992746147376,0.6940035839984324,0.7007743075529997,0.6912407789022238,0.6672907177480982,0.6281563747872245,0.5770528144547737,0.5215922112517151,0.49278860128176316,0.5007347959233472,0.5105554183975932,0.4813665011561877,0.40238663987487316,0.28859240103174455,0.16328175664402375,0.03822481504789867,-0.09624417984736555,-0.26783749499464377,-0.4533235717487656,-0.5800273199293912,-0.6080363996497489,-0.5570866897920516,-0.4907210970539362,-0.44726288384066704,-0.4230957714967958,-0.39153949719224757,-0.34379502492723124,-0.28081120247393043,-0.20456710172130518,-0.10758967426510178,0.005288846725439143,0.1349408693462256,0.28351386311634086,0.4611598090984742,0.640860133942438,0.7782496693362987,0.8560245792610887,0.886789058622903,0.876896875977903,0.795656337696527,0.4734385946254171,-0.2188535713094395,-0.5908728644186912,-0.6741078388707338,-0.6092651184808694,-0.34353848123215475,0.1681933161977917,0.5744030372494425,0.7569892521792412,0.8341054373281162,0.8638579835105109,0.8642979393603423,0.8129508370377625,0.545130175942819,-0.2444519821435076,-0.615730123207852,-0.6310690720870117,-0.3594415444437766,0.40077311734255516,0.7664472605003251,0.7701145994408056,0.3953090012193924,-0.6268574440559913,-0.8665126161068317,-0.8587423309166016,-0.6721483511030995,-0.06964427011403983,0.4806706856300145,0.6572808328074287,0.6587968898441939,0.49169361713182563,0.020089496436288972,-0.46486732203954767,-0.6039986543876011,-0.5894292711200855,-0.5038991542013035,-0.35246739248624676,-0.1360324935903884,0.09402082069141504,0.23766787366523767,0.252061046965812,0.17642240316268357,0.07409879865098584,-0.01536832190660237,-0.0888532369929868,-0.20639230864153665,-0.42016205411546653,-0.6317045836490485,-0.7528808493927934,-0.8037170915908529,-0.8079446794583344,-0.7643559591392619,-0.6440344968325009,-0.39909671375351774,-0.043147532929291285,0.2742206834639607,0.4629355560387696,0.5299299004555477,0.456132082773136,0.11283049471145025,-0.5166969441439861,-0.839636315502537,-0.9166536177063462,-0.9184098652452408,-0.8456829615180831,-0.4423726766693865,0.43034806800008923,0.7409137531519677,0.8094303738912773,0.8088816283535235,0.7694116029446397,0.6983364370501386,0.6018800883102038,0.499700062924523,0.41281302325702385,0.3554274583498269,0.34634581809453924,0.3990561581956166,0.50687208691917,0.6392209649036807,0.7637017158311297,0.8560799203691235,0.9099091755829284,0.927802136377854,0.9130332391314537,0.8677868289802244,0.7905423242088981,0.6713638773669047,0.4695193897797217,0.09074231685713299,-0.40178621904398365,-0.6962276754333604,-0.7986817865112064,-0.8090736313509774,-0.7691238718998394,-0.6997452508746681,-0.6215834700471307,-0.5757391316521993,-0.6041638143451076,-0.6605278863088928,-0.676182440105477,-0.630368087417426,-0.5162101542330457,-0.3420888191939896,-0.15689874765610706,-0.09791876470044625,-0.3041541110848651,-0.6341832474360699,-0.8043066873541457,-0.8514186429876808,-0.8410174256564047,-0.7982804186181474,-0.7410868087168249,-0.6893951368816444,-0.6513482897936907,-0.615574392925566,-0.5716508512882108,-0.514746330105299,-0.42311082414154966,-0.23302205689636074,0.15429191156000985,0.6124546785823443,0.849812641631058,0.925950516561004,0.944343311225406,0.9377220846686738,0.9044429380302487,0.8303057728360931,0.7170286937145056,0.6065657139729229,0.5363210432240842,0.497866450718563,0.44425656227967164,0.33826100143414445,0.1738659075458932,0.012725347525194585,-0.06897724305031408,-0.06838223751843857,-0.027426377578434906,0.013164225482314017,0.030050132824563994,0.015269135288067288,-0.026762539506638,-0.07163806604856376,-0.10311449453503088,-0.1167651005452783,-0.10514353583400529,-0.06410992764388744,-0.00389169344748052,0.04605727930944198,0.0652600254612544,0.06139848275966761,0.04278913733395956,0.012163312615595457,-0.03130129918325876,-0.0879775828110158,-0.1484180722731261,-0.20077787725406435,-0.2283672928372226,-0.20664905265342268,-0.10915765555214951,0.0486854177362916,0.1525849067385173,0.12482013525715197,-0.00023198443840422554,-0.14248868877015658,-0.2075257632338676,-0.17095444066811283,-0.08241430328881434,0.0009442880337140464,0.04249700851859876,0.03921744471795987,0.029761422177667845,0.0336718468270311,0.047485352246334975,0.05762200899069992,0.052035850965831465,0.033917113024221617,0.0053531315342408466,-0.037631641940969796,-0.11586613660144064,-0.23924876434197564,-0.36311166717138965,-0.4049523342705126,-0.3023816186596362,-0.05398616534618142,0.2472173470778382,0.47694964416639124,0.6053416576680822,0.6481533316307693,0.60778229732455,0.4325435191642051,0.04794032782583498,-0.38152213791895806,-0.6114677846134955,-0.6926944116771547,-0.7006592723337695,-0.6695502058313338,-0.6199868719180675,-0.5797514918375142,-0.5639780402848691,-0.5661729441839215,-0.5874853897430734,-0.6365123223253439,-0.6991252441298874,-0.7401936138057351,-0.7297738672652154,-0.6118059597052082,-0.20512718807159622,0.42083386102429626,0.7288622007532073,0.839116314263953,0.8877670319378748,0.9108940091294766,0.9198612612150718,0.9146420849906504,0.8675245906558832,0.44635343585822834,-0.3534633519333097,-0.030891054819752056,0.6570861983045426,0.853071727699363,0.8973934215351608,0.8989292922148359,0.8737305446716755,0.8233105804974984,0.7519260382531511,0.6727299299224111,0.5970743690003533,0.5210615270980382,0.42866743604045027,0.3069474951313335,0.15954577064372374,0.019559109329608314,-0.08599837787575998,-0.1441833547231835,-0.16166739639172514,-0.1567518092996977,-0.15121362451108578,-0.16203496709211782,-0.20041651665825522,-0.2546204431162695,-0.29545337382101156,-0.29579700193026864,-0.24354562457922718,-0.1421233400231459,-0.006173878736063102,0.1310804660173986,0.2446285752049275,0.3386027518487361,0.4487995892069567,0.5983472612994108,0.7588915036042805,0.8671299132313036,0.891766133603055,0.8282498196724533,0.6700478041050852,0.4761815597774591,0.32002396400345184,0.21780434018256145,0.14854075231873165,0.10245372648363833,0.07253451024530237,0.061353821926938334,0.07943719588131286,0.12968420460850233,0.21007622860977476,0.28115416975735574,0.27431625675839905,0.15611577621830938,-0.0211580126502356,-0.2001984279494037,-0.34593246954987833,-0.44876745208439794,-0.5303942332760287,-0.6018860824580899,-0.6623501047372145,-0.7027489979027837,-0.7078690543229167,-0.6497378133636962,-0.46198532368831885,-0.05538457991347514,0.40763404736996456,0.6735610169639911,0.7773776550664077,0.8056917614996277,0.7856209792234551,0.6915502937382846,0.4303310424736092,-0.05986882762155617,-0.49638755018717506,-0.7167122608031957,-0.8091844866342942,-0.8394209573367445,-0.8317764825603582,-0.7927511580170186,-0.7268112034870688,-0.6582405543405475,-0.6552591219240606,-0.7558838899881952,-0.8778158197266045,-0.9454153462515985,-0.9515955138344453,-0.8948834584434052,-0.7674715653089312,-0.6121507357544356,-0.5001758474881276,-0.4496873483007987,-0.41758627968322876,-0.337894181494393,-0.13290254584192285,0.19372462625230596,0.4598386307913302,0.5775974141460357,0.5879521103051722,0.5122217317370157,0.3407437652166227,0.11011697172382069,-0.02921732918538799,0.09327260630140609,0.5043992096274948,0.7554848581925817,0.8230155443766313,0.8372275682887187,0.8359331184374044,0.8310097798353389,0.8289271410303591,0.8390320071251786,0.8625220310282339,0.8877594898162521,0.9073057919304083,0.9197331018887003,0.9232993534963195,0.9151813085385878,0.8823099987222341,0.7508216622888066,0.04288918325929482,-0.749503637114065,-0.9007271664526807,-0.9371865436826374,-0.9309055064098799,-0.8657727019775197,-0.7275174056027086,-0.536644017890616,-0.3136909504263434,-0.03349608336780139,0.3284645456533732,0.6704361326542209,0.8547332215900711,0.9110981981716203,0.8984143033650432,0.8127657563670889,0.5703379323585162,0.058594914761560354,-0.454231584497375,-0.6992269498528018,-0.7810930904354437,-0.7864565508243654,-0.7287089599071273,-0.5826533058816434,-0.3524615617203796,-0.13708401682589316,-0.019317516788892892,0.017835254968541048,0.0322661484914029,0.06835132635503312,0.0885492257723311,-0.03275930190461877,-0.3724524672069762,-0.7101392152698339,-0.8692303062886785,-0.9289765499998276,-0.9513330475028703,-0.9570040462457549,-0.9361221903343249,-0.6669067612806574,0.6692734952606737,0.8970246904727257,0.9278040372089451,0.9174467942968819,0.8664607792020262,0.7630888959865492,0.6261875803201653,0.4586262320060217,0.20601931141042554,-0.16748027947718727,-0.4921721793688496,-0.6424164771648965,-0.6735645764388365,-0.6294191551798988,-0.5115116864664506,-0.30423614086209755,-0.025918201628914554,0.2415684700749237,0.4164834271763756,0.5024247447288255,0.5424533258250234,0.56253682911085,0.5672317144128963,0.5422792185345489,0.47462376677887425,0.37751185434753554,0.3101083951604152,0.3393489572985286,0.47704801429422494,0.6471527545408682,0.7721941051346707,0.8429930292613783,0.8769488213438298,0.8839507674110891,0.8577892246467492,0.7363643155570534,0.04217167758940452,-0.8022154808992024,-0.9263484157338875,-0.9477547520807929,-0.9477336440811595,-0.9302461913115689,-0.8649570814791229,-0.4750220277445922,0.5494276830873489,0.7767999030700568,0.7932554601895097,0.7754679706892464,0.759524381109084,0.7523083813511618,0.7460813453137001,0.7315176780970811,0.7032566308748389,0.6588384966607423,0.6043952599043758,0.5476358095220121,0.4915298582997495,0.4248919482666634,0.3329754149984072,0.20529362743248136,0.05417950449120407,-0.07400683294414169,-0.1506217390948237,-0.1990568167432667,-0.25193981391692977,-0.33449835377128506,-0.44030015405899814,-0.5448287850503433,-0.6342895005960829,-0.7124972104691983,-0.7740521049458792,-0.8123012746872027,-0.8331558168389018,-0.8433924809767955,-0.8452409475270366,-0.8363919347507593,-0.8091722555560142,-0.7434143342033627,-0.6266329356481062,-0.5059143314551883,-0.433601086196553,-0.4054744626323647,-0.38934523229735785,-0.3488040357628406,-0.2695580720902108,-0.1911586037357288,-0.17132948842531454,-0.18775772715376268,-0.19584690162242088,-0.16543734550435202,-0.07399887887237021,0.0927041450118239,0.29671919107949785,0.46051778096366913,0.5323413549684721,0.5073653077566912,0.37982065971517065,0.16061794242290237,-0.10407116016542357,-0.35605334685599166,-0.5607953040789031,-0.7039566172637151,-0.7876838914571983,-0.8297834520947388,-0.8419719353230757,-0.8226508819577835,-0.7507939582790846,-0.5937788435997469,-0.3634807227833826,-0.12930688438891375,0.1348832245916899,0.4664348160380927,0.7265364964176882,0.827525476707327,0.802019396109104,0.5728571959365719,-0.020099119198287278,-0.448661608089961,-0.5430360947661108,-0.47520675930398615,-0.27830879342059167,0.08137650911045044,0.5419122155780554,0.767044814877764,0.7674564519658068,0.7192662294898456,0.6769451360665154,0.6380063846536249,0.5929003788911997,0.5312529031900348,0.4466217825006097,0.33511319765733877,0.19966157478202617,0.05452449690008808,-0.06743108078719309,-0.1330779501336411,-0.14266496255652023,-0.1423754227490942,-0.18076359786851062,-0.2733483252982295,-0.38679589714033813,-0.4676222590179425,-0.476321869070335,-0.38915124995461947,-0.17744346931251018,0.12286589690814446,0.37930294991732083,0.5249165547470144,0.5854334591373269,0.5986127555344691,0.5989316182044739,0.6114705050561008,0.6414221343526746,0.674486938002622,0.6988334483362658,0.7120882376881096,0.7144705237984943,0.701591956918295,0.6623672090970668,0.5788916453785599,0.4282486117556038,0.1973783581404816,-0.08307096397650034,-0.34604308041210896,-0.5595898877626393,-0.712548628910023,-0.7940913964377565,-0.8168467979306929,-0.8205203988837341,-0.8297301310958551,-0.845170645450389,-0.8586735560277013,-0.8645445064648156,-0.857575731824188,-0.8279272738458544,-0.7513859314973033,-0.5655740661821648,-0.1933261319600279,0.22818618601173662,0.4897000508828734,0.6231269985048967,0.6977279817943677,0.746011001470679,0.7864903539736865,0.8238426812280385,0.8424008642781081,0.8118897333759324,0.6265370235076355,-0.05040854623299084,-0.644145659422687,-0.7943605896511167,-0.8064194775703044,-0.7341802045275708,-0.5157661345792728,-0.06411313839641784,0.39980194858419904,0.6420502180179112,0.7442200735621739,0.7831977737920685,0.7922030878471439,0.784188705919342,0.7652410572561003,0.7424590699370632,0.7265698642209902,0.7280991407602037,0.7480286774438384,0.7793841548846979,0.8070735501246937,0.7734421345293774,0.21752565976863714,-0.6186337738692209,-0.8150754079138576,-0.8738500916345452,-0.8908934235217788,-0.8774619398771073,-0.8231180922436525,-0.6906237229052091,-0.4068275884597911,0.007953606965518029,0.35227361608966257,0.5611219904030637,0.6822529742805173,0.7559228601067607,0.8044165337493248,0.8403926136240794,0.8672985801730209,0.8867636734017069,0.8998641394483751,0.9095734426370864,0.9167670474918288,0.9164264647558437,0.8898886191277489,0.7047912446287969,-0.46037429194271007,-0.8876737136842484,-0.9389240356772327,-0.9440320178069777,-0.9253285153648484,-0.871858807276439,-0.7509264570886109,-0.5162589980610334,-0.212345249944697,-0.038598154612228874,-0.11744668584078463,-0.3666696905203989,-0.5724089525160736,-0.67389442636148,-0.6134190488079838,0.17936644261115567,0.7206559964663168,0.829625944180709,0.8617532052270552,0.8644759304335788,0.8384976354141825,0.7577781097118784,0.5602120178246244,0.19037130573148936,-0.1946423229555565,-0.43136183526462535,-0.5705248015516411,-0.6747758679791466,-0.7642589081724219,-0.8333592669057002,-0.8746960301732378,-0.8827326140346986,-0.8390220185557936,-0.6467392101384171,0.047835732889604035,0.708431874766858,0.8806407950520224,0.9212343329851714,0.904627745196347,0.7282776129176828,-0.1003700872720104,-0.6556554524984565,-0.7782592293143856,-0.8017332466722292,-0.7882745965552737,-0.7567448175005844,-0.728869538698095,-0.7276738050305086,-0.7557706903634942,-0.7957579560534012,-0.8251553776368076,-0.8302767050802481,-0.7981438629285837,-0.7052652714184393,-0.5056156632311262,-0.20395113623663275,0.05082767957176229,0.2291216625147382,0.39709720337164633,0.5716812037672788,0.7239773978587796,0.8222372663057064,0.8652681901961254,0.8705276947875067,0.8579985461015727,0.8405318930437544,0.82119284543159,0.7987257243724872,0.7676861481484956,0.7146819546360389,0.614448086584213,0.4272228278626367,0.15690870999634307,-0.08367210516780409,-0.22084684039859737,-0.2712577547284262,-0.2582307015124985,-0.16229258021078086,0.05407228985839312,0.3108058680901588,0.4497219751167456,0.4761322705013843,0.42553923798115584,0.2743797900348918,-0.024162606787501203,-0.38483433570446574,-0.6273640797387035,-0.7606500381410818,-0.8392108450160476,-0.885676106749508,-0.9079303717244113,-0.90814627951068,-0.8606183656559917,-0.502294320331367,0.6547148732014566,0.8973190903684735,0.9321192747443802,0.9302911143872721,0.9040570452557284,0.8417571717055925,0.7300837850018771,0.5791493098057536,0.4174830972593491,0.2165995532081321,-0.1125097483076456,-0.514738227773196,-0.7493115824584038,-0.8487709359459135,-0.8947399007548513,-0.9167733209635499,-0.9256025144776538,-0.9247832697383641,-0.9104330361005399,-0.864133496114838,-0.7410858003970685,-0.5449276511354445,-0.43451424206115924,-0.4548703165908629,-0.4853482928326913,-0.4205562156804466,-0.18401603731887006,0.2200930192943209,0.5701587277217205,0.7432756474268083,0.8044707062430071,0.8000520733172025,0.7144538991403437,0.5607142640080016,0.48159317423678977,0.5417370776604357,0.6993836262014189,0.8590215079838132,0.9348333106884102,0.9136358444910554,0.8386915541713539,0.7527259016480704,0.6740628102923599,0.5978300949753889,0.5167080871122379,0.44231455837245176,0.3947203191652354,0.3702697614165168,0.3298569576151331,0.21570135144994812,-0.009623696595660727,-0.29669265273442397,-0.5253329767130965,-0.6453626120169501,-0.6701845341109895,-0.5918489707598589,-0.39122001119660627,-0.18385532746078245,-0.1690784236097644,-0.3396433952044127,-0.5379377329749868,-0.6645477527476478,-0.7205065539757372,-0.724627729171856,-0.6812528382930435,-0.5884782549346845,-0.462573341182513,-0.34299814180208826,-0.25571558204625255,-0.19331082920368642,-0.13218434959237582,-0.05680352623079342,0.043292357996182015,0.16579447061668084,0.30397173975113206,0.43596409592720464,0.5410237834090238,0.604870226788115,0.6261024120372534,0.6103753339160509,0.5650686927335373,0.4997608818139553,0.4250283397186251,0.33591185726002254,0.21454340904989685,0.04742482374090632,-0.14589040692906674,-0.3094907112195707,-0.41723871187056466,-0.49397551249077776,-0.5915020904182571,-0.7134138336783916,-0.7914122912220646,-0.8008819406616592,-0.7388761669848205,-0.5534193122678704,-0.15881610074333666,0.23202134875512645,0.32791001435940903,0.17174777936544883,-0.04238944801103667,-0.13733110893442566,-0.08456331182928799,0.09870987034248936,0.36203145321783564,0.6054041237358961,0.7619166610475,0.8451993734104719,0.8893550098024595,0.9177765719336688,0.9362902290832466,0.9189278000776243,0.7624040772533311,0.34958478142569804,-0.04994943448469225,-0.2562821546301323,-0.346732911119058,-0.4027251350501745,-0.47668228635099863,-0.5815269066983815,-0.6816567356974247,-0.7403518769391045,-0.7471067664502562,-0.7098632624861714,-0.6442243825555952,-0.5734050991714195,-0.5199351526849213,-0.4913454491929072,-0.48108891117902575,-0.4673981170612217,-0.3984534202472447,-0.15253044663226922,0.34216932261396443,0.6836572604745956,0.796800358437657,0.825921905439529,0.8277847551454763,0.8225644176025301,0.8141559348587145,0.7998187088424702,0.7785184991492995,0.7489314177335477,0.7089106941410067,0.6469580186487736,0.5190663939103741,0.25031124476362854,-0.17028699003366615,-0.5420362749646165,-0.742117596803698,-0.8228119624733224,-0.8416951212799985,-0.8155578891495845,-0.7240307064600751,-0.48550183680977516,0.05813683276784653,0.6449296320638945,0.8684894838531249,0.896645453098991,0.8423740152391275,0.7400305038798249,0.6411751098836862,0.5906402158281182,0.5948789555532408,0.6286665732404897,0.6682928882398191,0.6924360307545855,0.6980818235900557,0.688181086202148,0.6701543230477256,0.6488612689414177,0.621569612155191,0.5719764719782875,0.48950249786353334,0.39077695396255324,0.31105120256956137,0.29314004469348437,0.3550775730229516,0.46723672305797553,0.528993689707019,0.3918204028418155,0.0333266046451451,-0.2722335999095569,-0.4060159986829308,-0.4128825214447692,-0.28365066259496385,0.05343699756057869,0.4573917117118095,0.6061146880532503,0.5345236023380093,0.26211525496917387,-0.18294528061639534,-0.5330438909953221,-0.6435296730556593,-0.5712920639245403,-0.31327045022325345,0.12629974093470211,0.5606595289754434,0.8035525435488958,0.8986937327272262,0.911112564718008,0.8570454225217321,0.6753536392524455,0.09898870634077857,-0.6250142682765367,-0.8617504393121758,-0.9252500449358826,-0.9459073296462492,-0.9516323025253447,-0.9467892261556368,-0.9269766475886063,-0.8765558845974832,-0.7420172315248023,-0.37952235311037513,0.17083379193428033,0.4772715025392646,0.5668889106436736,0.5924584705199928,0.6538396623348299,0.7457729429341486,0.8166368127558117,0.8455398116371722,0.8286514816780864,0.7466619905225422,0.6241759842675204,0.613957464336388,0.7141623429302515,0.7811522556420505,0.7779212754601886,0.7158065282398048,0.6195596429442184,0.5355721050690028,0.515305074802212,0.6048583527055243,0.7579014660158336,0.8415654520256383,0.8266032572492403,0.7098326499960016,0.4323920897344705,-0.05751650025994637,-0.502210595996941,-0.7192001971658762,-0.7985117251544014,-0.8233994760427468,-0.8269081402460716,-0.8191541976928398,-0.8061661885387816,-0.7809481304898701,-0.7152234286262269,-0.5334502241691289,-0.11942105424484353,0.3533903602212203,0.6100704216516769,0.7250532875567653,0.7835422719798467,0.8198954090674428,0.8471332079438773,0.8695848947054295,0.8872538349231506,0.8992031559273616,0.9047752841475781,0.9044298469428835,0.8923440410591844,0.8300763985365823,0.5194499472928785,-0.13516758713947793,-0.48146567684586583,-0.5960744246065489,-0.6210381526893963,-0.5779937672767864,-0.3880025098893656,0.1400208257701851,0.471044441996756,0.31892570808133064,-0.2831534063941877,-0.7901001098613765,-0.926246802445287,-0.9623570384578182,-0.9755713750513759,-0.978864392173881,-0.9677164096199972,-0.9188219622528352,-0.7681633661278705,-0.47694058145043994,-0.22375114190536793,-0.1563934580619134,-0.22797294144149507,-0.34606201643540024,-0.44217015262872605,-0.49982825551756904,-0.5230047364437025,-0.5101699480342322,-0.4390405843011422,-0.2552205836366264,0.07987856077005565,0.4200729948759403,0.6113819882655334,0.6837072222018742,0.6967271963239051,0.6958884082542828,0.7152233879954806,0.748495406042973,0.7722066274792809,0.779771652455175,0.7833875521687984,0.7951580252106468,0.8228632932801964,0.8656960891397772,0.909375297878367,0.938510787814425,0.9470274461869358,0.9151433259810411,0.4627711758950741,-0.8316852992515336,-0.9441488727342714,-0.9564772155957948,-0.9422275775663659,-0.8742094163265977,-0.612250479598964,-0.024013290801017165,0.38173780490036996,0.4967774489677218,0.46912684066941174,0.3774293782045929,0.27838745155264527,0.19862173674956587,0.12273968043742504,0.00832033379625295,-0.18464462367914491,-0.4206173979070606,-0.5807015949668077,-0.6494885929479178,-0.6980614500967979,-0.7632830263579595,-0.8345156418221295,-0.8856498387127227,-0.9088601892084363,-0.9029232782149258,-0.836076953361429,-0.4253875212896634,0.662286914078183,0.9111200149338248,0.9534074295896281,0.9620716039551143,0.9605103637296522,0.9545391196911188,0.9465711000836033,0.9319108610715605,0.887928403616708,0.6875766186909477,-0.17828322356996734,-0.7494197983389014,-0.8539318881899408,-0.8538543305660636,-0.7804028796178479,-0.576036984880086,-0.30315477567052296,-0.3492594415184316,-0.7057988404616328,-0.8962858120337822,-0.9452179842498928,-0.950079235019426,-0.9299002464419287,-0.8795928385675656,-0.7985689444827475,-0.7220225904563189,-0.6996150081789471,-0.7035984009829919,-0.6822983719159511,-0.6432826695684,-0.5921511447515196,-0.5165476549356062,-0.40300545667518145,-0.22570070325943864,0.03579997762790029,0.33130853716359426,0.5564822400383753,0.6807345849333745,0.7459434619599149,0.7939067261254742,0.839117710114678,0.875357029217452,0.8978930032203931,0.9070437846824124,0.9037053070515243,0.8862279263968503,0.8506742133041613,0.7897202610991435,0.6883324095847504,0.5115358149810536,0.19245692603658182,-0.25639035784868924,-0.6222676061957542,-0.82581585104958,-0.91927104989629,-0.9376351364502011,-0.9229425194190182,-0.9006950050345646,-0.8754550837596731,-0.8447920971730613,-0.8180271865461368,-0.8244773651744576,-0.8575688360787491,-0.8754616524751522,-0.8627185862291127,-0.8023486126111006,-0.6278794448380197,-0.19545880289433312,0.364465727438969,0.6850627780575245,0.8156134121760711,0.8671422401432625,0.8913261183424488,0.9050691180663308,0.9081649876426371,0.8963542603571633,0.8654493458846267,0.8148483791989176,0.7402507105883996,0.6467177512644283,0.5635757249378957,0.5257346465755678,0.5605553745998889,0.6537598479947692,0.7481388931078591,0.7958160199979661,0.7938933613438859,0.7505172513789032,0.6737638063127619,0.5689966923292518,0.4316845187639978,0.25235295777416494,0.10658426931455237,0.065749816473814,0.08846252450132741,0.1380359290897706,0.18346119330077568,0.21374264177739924,0.22797410789792819,0.23362771618308287,0.24455554069766694,0.2769458780250432,0.3262339662031363,0.3668577867095403,0.3722802727300632,0.3188735419488329,0.19199877244423033,0.005910257092272529,-0.17233020759165832,-0.2824346164010944,-0.3298714641432443,-0.3542491699508628,-0.39276915045230254,-0.45671302419037463,-0.516195418074651,-0.5058950190160685,-0.38254035717927326,-0.1877031882406019,-0.04029029974071623,-0.04267924112792726,-0.21524240927569194,-0.4543095595584195,-0.6181348066532845,-0.6739801263005802,-0.6302987214107517,-0.46106519343163777,-0.1426447932604624,0.1649954989707723,0.3042630577253227,0.344984768259925,0.38991972029691807,0.4721320600586348,0.5708491539895256,0.6453613769155042,0.6569613959272133,0.5487095025877403,0.2134764058820488,-0.2637792950319354,-0.5439568356303286,-0.621267205802584,-0.5292957952397375,-0.17650729408587304,0.28404044419183916,0.4641226329935653,0.4037712057571982,0.1709547969656673,-0.1371287673038442,-0.4890929150192624,-0.8042729909253019,-0.9293590291081086,-0.9622289397182698,-0.9706296540194926,-0.9698564411971247,-0.961229850917043,-0.9378666824502219,-0.8703979506902343,-0.6495580941855664,-0.11404793427119823,0.36169811097469934,0.5809323099618541,0.6925836961413094,0.7623950390615707,0.8003378198677414,0.802205939289392,0.7546216845535703,0.6119433312177504,0.2868591065619855,-0.19128860408268095,-0.535105968305003,-0.6783360124854876,-0.711045417852535,-0.6876115819851739,-0.6501828757674557,-0.6579925790916066,-0.7411214805195396,-0.8193468800802554,-0.8599430356776144,-0.8778389073760438,-0.8784926628210605,-0.8592881853361416,-0.81133699068409,-0.7191062450684671,-0.5736307910915612,-0.38135663138114745,-0.15110698493675107,0.12583031721726579,0.4366281954541046,0.6859127259349043,0.823267756365035,0.885870440620112,0.9126243381906137,0.9216289205170735,0.9217441915526445,0.9193204420073922,0.9143118805188771,0.8950379337120034,0.8647107468112993,0.8430232172905712,0.8444168921296458,0.868938895602882,0.9049343950752037,0.935629615847186,0.9524917825077397,0.9549477537092247,0.9431927341621883,0.901333395312986,0.7409491163621235,0.13857771378836586,-0.5443189880477196,-0.7657666693680717,-0.8026726380333907,-0.7209804032227392,-0.45043830936852436,-0.019438176688700667,0.23803663515734239,0.25388191487485345,0.13708977725582697,-0.02485202482274793,-0.15859417349139776,-0.22460258048319418,-0.22137631748142933,-0.16618204823283456,-0.0898274739282757,-0.035151424676599624,-0.03646600971310631,-0.10590286775197906,-0.24502963234597358,-0.4232035930385571,-0.569827521343547,-0.6330813578048858,-0.6358200012439591,-0.6032707807512945,-0.5432062837415843,-0.4744291610455728,-0.42770869312763654,-0.411402979229895,-0.3853073086476884,-0.2771305712537623,0.025258149779395445,0.4935304916625845,0.7401789400307666,0.7561223542256857,0.6370169677349117,0.34144538170505256,-0.13004261022535324,-0.4797054128013586,-0.5905391874703859,-0.47059833919636984,0.1362490692054622,0.75878533072803,0.9041350441679976,0.923849343397895,0.8962068489372903,0.8113666812855997,0.6131724803303091,0.24814020056835462,-0.15609477610265254,-0.34746092000129136,-0.2560377475176973,-0.10887036242560817,-0.016427819189360038,0.03864278581749438,0.08127002487593385,0.1224732436570603,0.15026110902094858,0.1286298587412984,0.013647643775659198,-0.21839669181119206,-0.5261140820394927,-0.6399834240277547,-0.3873092708715258,-0.21387819410591782,-0.18510194889990259,-0.22611940852489365,-0.2842550667058123,-0.3322036955765862,-0.3624045093692879,-0.37760923706279426,-0.3864975720355745,-0.40471250500132155,-0.4499316453456238,-0.5133259642887131,-0.5624855115689938,-0.5641558858027804,-0.43765070279226737,0.08881314894889822,0.6340909837937001,0.7828062659303611,0.8174947332299604,0.8203249542430272,0.8061868048767373,0.7707532963336745,0.689622428010496,0.4871944455662403,0.006266522724670561,-0.5621136673574638,-0.8111262126293312,-0.8865211253667855,-0.9012744004823786,-0.8754753231325797,-0.7622944875926136,-0.3875316108150726,0.17306207277579122,0.3870447960473966,0.2797455389504983,-0.07511733569273533,-0.47366875300944306,-0.7042020659365079,-0.8088900334027138,-0.857607495135738,-0.8794452405680578,-0.8869779932483484,-0.8860216358792721,-0.8572421645200257,-0.6783248116396121,0.06628853168111958,0.6750191869976029,0.8379606136418913,0.8881335165785207,0.9023279169712795,0.8944115715561022,0.8648991738432616,0.8203170501161003,0.7725378700787938,0.717394024765655,0.6064430088857767,0.28458006915783957,-0.34233957058937403,-0.6997536007556306,-0.7893411026581395,-0.7820936651005831,-0.7194099049279445,-0.5938941221944745,-0.35021746646117274,0.02728832602560503,0.37222449060813645,0.6031458574047791,0.7435213716169274,0.8332612690633984,0.889022963798664,0.9210390085568401,0.9344053265288426,0.9313856695522716,0.90895054828589,0.852617235784621,0.7216618011712633,0.42656851261396983,-0.10186856570247127,-0.577774394597792,-0.7952429220236553,-0.8728858761815441,-0.8904159687179429,-0.8633015295295128,-0.7626333518095384,-0.5126682361591609,-0.13647020892463707,0.10726368947749887,0.10535487675724288,-0.12244774098077127,-0.4277247785924047,-0.5729788316822602,-0.5072051837814309,-0.1611987751607091,0.3719663715407722,0.692543446903604,0.8227352455930871,0.8777961072192636,0.9021260385312105,0.9124306656648834,0.9194260781300786,0.9317090169400006,0.9495529566918282,0.9622439862116351,0.9535696029996831,0.8995319042948232,0.7565324318159594,0.5099986947710643,0.2665344740813446,0.13454954574519104,0.13116277330514522,0.25624715526412806,0.4641950359861554,0.6354409086535932,0.6785829826594644,0.48327935240355097,-0.11428966102056617,-0.5801112007958952,-0.746117276789806,-0.7953607046664963,-0.7742646399017394,-0.6637648508935496,-0.4259226486612195,-0.09553232565100138,0.1955612985393718,0.3844598366566186,0.4982747941782907,0.5790867315047171,0.652930525516657,0.7151444696431427,0.7519409875193527,0.7688915397036817,0.7765767573947723,0.7805716616366452,0.7858781904295618,0.7974105241418538,0.8131950225152609,0.8231970240840921,0.8108864112041232,0.7574184244176116,0.6293280613559281,0.3436452738774636,-0.336630174446483,-0.8310067781369778,-0.8742646950012809,-0.8725438884990602,-0.8649528900759893,-0.8463388945512119,-0.8099326675603119,-0.7571894041993041,-0.7214071536222152,-0.7566291875982869,-0.844642490711578,-0.9122308626201514,-0.9441005190199079,-0.95284348000879,-0.9399959805843362,-0.8754017449549966,-0.6568295345545249,-0.3066301357473604,-0.11005470132614745,-0.07030368831352173,-0.08021581063494015,-0.08240918471430367,-0.05982319328412673,-0.0219334582778852,0.0075156020977325206,-0.006223196345785384,-0.09059859056709611,-0.23412482674231652,-0.3750051148387946,-0.47200479395273404,-0.5280108687151985,-0.5581039367274616,-0.5732760778913543,-0.5762962765837901,-0.5719310243111642,-0.5664834438763675,-0.5501416380319528,-0.4942895473484487,-0.31767960641468285,0.09552927172969564,0.5134494663777994,0.7013082909969838,0.7610393224730903,0.7638275088714981,0.724597592666297,0.6262175412186101,0.4469336653796002,0.2927162528501989,0.28140966843639004,0.3723134409845181,0.4901095111187878,0.5979302372479314,0.6841262282815728,0.7401885733635504,0.7357743060579324,0.6540980043714669,0.5496457317555031,0.4724968800762659,0.43390352258162607,0.4289115903097717,0.45413116604803877,0.5085037801446451,0.5776413675603049,0.6366408530920814,0.6716476836762434,0.6835441405453866,0.6783039771386505,0.6571689485999005,0.6200442565435917,0.5672564949032425,0.5079697266000873,0.46872712916890974,0.4788470317471174,0.5315825428999376,0.5943786761856363,0.6337461064679306,0.6254861739501436,0.5371714318366416,0.34235830725146693,0.12044548260308502,0.011252226152688298,0.07442789938575005,0.3220899730626633,0.635864273900567,0.8021761132538087,0.8293502926229362,0.7636310862986035,0.5112652554211708,-0.2106103745329899,-0.7690244844857879,-0.9135599247217201,-0.948200312987018,-0.9472264219775991,-0.9198586914779174,-0.8571875130736898,-0.7590908709577427,-0.6889989581917111,-0.7165617211884207,-0.7963761672434585,-0.8527168375384493,-0.8752347682259785,-0.8765142872445212,-0.8694803439812333,-0.8622367625262636,-0.8563655423504202,-0.8434579073750329,-0.81017613009166,-0.7337446290738574,-0.5717590595519463,-0.2779889940857693,0.07197375034520047,0.32296778475297006,0.449930198001078,0.48911015249893197,0.485308385424479,0.4909839056728018,0.5235166676638531,0.5636011627060388,0.5835230863802308,0.5783947603730899,0.5534919526554384,0.5158346980535302,0.47106289960218983,0.4253963616588715,0.37562069738985865,0.32269910760338916,0.2755614038913684,0.24615279810901824,0.24306281382537945,0.2561590366749387,0.2682257641931664,0.2598621068648194,0.2140668725932011,0.10113401145335085,-0.08427326881837058,-0.27072292951748467,-0.3807149433493444,-0.38544208004193836,-0.25965020395004745,0.00657824481538415,0.2950356727213373,0.48795318111974717,0.5866291081557273,0.6319492873979998,0.6498129254444386,0.6515399904446965,0.6311803018632889,0.5874562382809282,0.5432229582502773,0.5251802316798845,0.5476283647233846,0.6079903569173869,0.6814743863922362,0.7349236230200575,0.7517125861828566,0.7382247242080432,0.7101615481815572,0.6794646135346075,0.6477338550833258,0.6075611951670646,0.5352215104750764,0.396982781337649,0.1475582123022505,-0.18320332599221328,-0.4355126991032386,-0.5478980950722484,-0.5608950524689781,-0.486740485984344,-0.2760936571620138,0.05156641315890216,0.210989339015568,0.1000598668536999,-0.2089301441980303,-0.5138432474862847,-0.6951890327181903,-0.789878099931675,-0.8427617965620269,-0.8747219458555641,-0.8934413389249882,-0.9013677589713636,-0.9011081964027204,-0.8929402453787562,-0.8721350643247355,-0.829293092857304,-0.7398759897465015,-0.5528075378606334,-0.20792295097670743,0.2274500633794433,0.5613880241875244,0.7516344512803741,0.8524708699896983,0.9050777451850034,0.9302365023789964,0.9371949293362258,0.9316435317306156,0.9197787597107948,0.9100156144029959,0.9070732986319208,0.9076934288785095,0.9016436191157625,0.862931359285936,0.6206193410967261,-0.5776188619845245,-0.929330283024959,-0.973110108417954,-0.9801384091833906,-0.9754455840613947,-0.9597630976267479,-0.9213096798717612,-0.7892944754486093,-0.15360683157370306,0.5168565693700519,0.6580165502814633,0.6394911363877889,0.4208396698817412,-0.3179140133191019,-0.7496805677966297,-0.8182945626195792,-0.8052569329644793,-0.736290230697283,-0.574173663644252,-0.28713141308593165,-0.003924215107176755,0.1432596974800337,0.1764285914197101,0.1528074321127471,0.12696010901909416,0.13907505125089623,0.1999208126404584,0.28788710939745654,0.36797043784585604,0.4217852444298099,0.4507777892001858,0.45169776768324177,0.4153740385282024,0.3420239797014257,0.2494046646368087,0.15915699857353333,0.08112506400433826,0.0045133521976433435,-0.07925387478096586,-0.1961096706632251,-0.3981288400275799,-0.6920358666390414,-0.8615502470994991,-0.8854410165502823,-0.8848208974173097,-0.8865102891878134,-0.8872984125102319,-0.8798763899879983,-0.8481145238148485,-0.7551485261205775,-0.5455913150190199,-0.24229255766353175,0.009505630493232992,0.16399841853769992,0.2739538611995913,0.37449134381606036,0.4799497791214689,0.5867987485593097,0.6723540205194022,0.7226821325930651,0.7336847761233656,0.6995984422662909,0.6074189078494554,0.47139974636775056,0.3863353342712411,0.47618542656756985,0.6934038592485419,0.7270655015822516,0.6812811737029402,0.6310621413173603,0.5781380356795959,0.5288804428115873,0.5096391023308473,0.5582009391900218,0.6575805880824018,0.7235013595454883,0.7439732506179482,0.7383859112086579,0.7159363395251915,0.6832215175586368,0.6436684503797849,0.5998111040239495,0.5502789066509831,0.4853404224860583,0.39695230974063955,0.2799077268386306,0.13617027978367763,-0.03036584998265624,-0.21619018231243997,-0.38313603623174186,-0.46486895114608257,-0.46593537309551536,-0.43523399677300056,-0.39820979254998845,-0.3532814723449349,-0.29011987383104015,-0.1965943503244231,-0.0646760228169383,0.10757206358763409,0.3129237987035592,0.5192911856573922,0.6834413185610634,0.7874401162105188,0.8374747381680225,0.8426533383711537,0.7974453821583881,0.6473049982337777,0.22385792907157057,-0.42695441092340025,-0.7711334951798948,-0.8869744447770367,-0.9291646377196942,-0.9455253035948764,-0.950519773117765,-0.9504096383730577,-0.9468775711992701,-0.9390179506639277,-0.9151139897548612,-0.8118612011653084,-0.22434552188402604,0.6268006922345944,0.7954534206473869,0.7547470808413056,0.38042964260981327,-0.5273659924782903,-0.8328691785055296,-0.8835662599711421,-0.8595933094802396,-0.726148080630982,-0.2386304318197702,0.4571854518491443,0.7140659337330688,0.7824555406422672,0.8083477196586305,0.8336033366847568,0.8676685375330631,0.9031743446212551,0.9276552040872571,0.9312771912552834,0.8819504115845989,0.40997414428274304,-0.7525786398726115,-0.9280318241825087,-0.9605584221349367,-0.9692818572869192,-0.9665238812645482,-0.9435460735863762,-0.8088596923340877,0.27279296546746035,0.8764762609475946,0.9517114527563152,0.9675813193208747,0.9647460098256998,0.9442431477644527,0.8796890681070052,0.6155900432975321,-0.1792340573598168,-0.6128606912398628,-0.6637028677906306,-0.6055761926348838,-0.5560942549244795,-0.5628884243946208,-0.5891896946105284,-0.5902046456061926,-0.5404912784124289,-0.4072317889227334,-0.13201022306601454,0.22652747135551113,0.4589151995629086,0.5629872809328517,0.6210208096125966,0.670814767522986,0.7254404821629402,0.7819227828807878,0.8305529394606483,0.8646625731397778,0.8884924055394471,0.9095743767666465,0.928623459017771,0.9426773020252867,0.950134435876717,0.9476211266483349,0.9298360338893921,0.8858797929769661,0.7927768038862257,0.6003408040643193,0.30367621256301885,0.06873815321590239,0.023147803838859986,0.129438684054944,0.2821483878044083,0.37536082922017777,0.36696978624790705,0.26095055659307964,0.08903486344629749,-0.08974192548983732,-0.2218190531249844,-0.3017241598908098,-0.35827584543706564,-0.419398948160762,-0.5064241890654799,-0.6229341564299526,-0.7354496593101043,-0.7111334271955242,-0.4226189851730474,-0.1054719338006701,0.10624646149968206,0.2595275763092213,0.3782176629525427,0.4634611965590067,0.5072897196685807,0.5032657541032124,0.4393287968494322,0.2982900155299053,0.05758961748159758,-0.24977818038451263,-0.49836673465660314,-0.663027899552891,-0.7883143344071729,-0.8721580731518952,-0.9184238077080846,-0.9425121563230224,-0.9524658032550334,-0.9439224347025716,-0.8958617334481932,-0.7815479549172433,-0.6415134115440864,-0.5898025754542617,-0.6672620962319995,-0.7782009444869372,-0.8133091858321334,-0.7637671813283016,-0.6167104294847542,-0.3107588494540569,0.06513920866499144,0.24552178795366933,0.22235883737588205,0.13602929272851413,0.14764935323895192,0.3408969022488875,0.607404120735258,0.7722659343031814,0.8310862654397331,0.8223094077550308,0.747604913139802,0.5716599247357346,0.2983523520510982,0.08451771363963109,0.05832324471065205,0.2051472295956602,0.39192331877576364,0.5037030260253865,0.5370725529220749,0.5008484759668682,0.366760081962825,0.04142968617303287,-0.4457090591152028,-0.7495583104388254,-0.8502118196964876,-0.8618720763207243,-0.8198686798893584,-0.7474352129470202,-0.6955055638403927,-0.6826703109893967,-0.6592367794059218,-0.5630263649214078,-0.309542761159636,0.0757280776095444,0.30308280497821616,0.24978181105798597,-0.0640695843160526,-0.4095932370532566,-0.5611772210428704,-0.5133373907283527,-0.1428290033146276,0.44397797933458705,0.7064892659579972,0.7800246992344596,0.7955586065156377,0.800049512993136,0.7916399389896891,0.7032292321010647,0.59276641361073,0.5373229783892445,0.5275550481005705,0.5432869981538762,0.5672474098513182,0.580980100454816,0.5652193293888369,0.5058864218773782,0.40306773322251066,0.2888632711381885,0.2073188073626885,0.19046704186157212,0.23785341106498717,0.31675516578804686,0.3775205874214452,0.38146006072672084,0.2969421986580803,0.1409492177952248,0.013660685890209658,-0.02179888699469531,0.05061427893927699,0.2356367407334647,0.46274576944342277,0.6323095489112569,0.7287417051482706,0.7794150491197347,0.8071172745907232,0.8216353027409583,0.8261645471369806,0.8184908652685198,0.7934748188838446,0.7290792820525092,0.5560724585536864,0.13762409225350605,-0.3979919577235149,-0.6939763931786146,-0.8183591303002762,-0.878186569118075,-0.9116446649988076,-0.9228328140515709,-0.8746019847048295,-0.6035983626537359,0.028070154991378802,0.3623307744385334,0.2945087926042505,-0.14851782931047922,-0.6283945785326956,-0.8273213797393891,-0.8966598318381304,-0.9229465090846949,-0.9306291012749461,-0.9272959828449646,-0.9170797456412652,-0.9036480855024547,-0.8858699821279663,-0.8532733440305285,-0.7765841828863217,-0.5531959291126259,0.0891210545016896,0.6935764503366462,0.8609645074529011,0.8905114306943134,0.8687291807716779,0.804947013529995,0.6596144072664806,0.37936482916363745,0.1396412344354553,0.049788310974614614,0.022279472726001844,-0.0074291065404890584,-0.07731982866592774,-0.1788096640042899,-0.24892826161407622,-0.26018207049287223,-0.23916033167237963,-0.23731976087315196,-0.2860944828248162,-0.37100621519779037,-0.4413635991644936,-0.44028106251953214,-0.3024920554286483,-0.007323529843743104,0.20380213688545806,0.23730428904701398,0.18505109762365923,0.13580873690608133,0.17886489938670783,0.37616938499060554,0.6389892091810617,0.8103594612898344,0.890256921182205
