-0.6838660096401766,-0.6892819089503215,-0.6648962595765813,-0.6408367321020378,-0.6750644127934802,-0.7924020341323514,-0.9041375347904321,-0.9370203370705075,-0.9148802152671764,-0.8543238123725111,-0.7100544926410465,-0.36493886089015914,0.10279512908869463,0.3381972242176024,0.35184486884891575,0.25133789840656023,0.12535449229877527,0.057097060178257296,0.10112170743243949,0.25887842388575716,0.46393511763312467,0.6232960816705932,0.711264014858567,0.7544005140072793,0.778164730081593,0.7990568564296481,0.821727270417664,0.8453837790893721,0.8668585093967255,0.8815834417096571,0.8759736161441319,0.6775049954581229,-0.6534262380092166,-0.9040179402888551,-0.94187553258001,-0.9391783287971949,-0.8761779409756127,-0.6472291741467039,-0.17899176072670397,0.17914463035561035,0.27644077341703993,0.1332253976006411,-0.3293517544860529,-0.5068150329070271,-0.5117363836539957,-0.5011574995345026,-0.4871855246655792,-0.46169191121125885,-0.41369897617321116,-0.33095419797858916,-0.1959833736675237,0.0037811453883156085,0.23192025220446358,0.4094049182782351,0.5017460406588644,0.5460340929910041,0.5980428631125446,0.6695219121698661,0.7303226209385815,0.76087910411306,0.7594573145896333,0.7192087954871362,0.5997323731591746,0.4004245415236161,0.27960661448009594,0.2779593721754502,0.3330793532005594,0.4017730073942678,0.46185884180239944,0.5047334748352804,0.5212419751079774,0.5006416079122129,0.4374132471730561,0.32732371643782315,0.16129217313981106,-0.08926851876816952,-0.37799376633919746,-0.5365279279776275,-0.5194423549309357,-0.4526182331492194,-0.4473480196754694,-0.5363937223033556,-0.6803459784708621,-0.815183878093485,-0.9018343883482778,-0.9447285307218197,-0.9629490443053562,-0.9689896754533726,-0.9676879307785841,-0.957469677258836,-0.9254136543008381,-0.7865858974735774,-0.002873612006317016,0.7346898914634135,0.8767685309101534,0.9151427548183311,0.9325684978765172,0.9448935933747503,0.9541457746027902,0.9562942530214519,0.9495455771208928,0.9350388683304182,0.904775618627626,0.8202646809608573,0.4885445014588108,-0.3216094020898384,-0.7224611757167249,-0.8172125162622652,-0.8182612760098726,-0.7391408862940247,-0.4661197854906825,0.09023743700213241,0.3748670630746489,0.20566489848448968,-0.2896663794551035,-0.6407354168660067,-0.7833749212068496,-0.8478123412901901,-0.8867131691273827,-0.9112223298376916,-0.9209681013802432,-0.9072212375501807,-0.8099940890934496,-0.1159665100549946,0.7413772358492693,0.8853387350638261,0.9161747247739309,0.9215174687835316,0.9160266109669563,0.8995514035201911,0.8631547207048851,0.7744183980484596,0.5490572185027259,0.15277203865017414,-0.15443540877328127,-0.27817810660202974,-0.31892530887474524,-0.34974902088480436,-0.4033923120516465,-0.4729812798325141,-0.5357216650287893,-0.5757848299741476,-0.6078293604338966,-0.6576429190137592,-0.7259216589719978,-0.792160609225218,-0.8409988926634352,-0.8806217299168252,-0.9148875829910463,-0.9408732409414391,-0.954955294113999,-0.9524715174119831,-0.9176820808913371,-0.7833894186793126,-0.3566642666305983,0.2655399803760057,0.5953119597488348,0.7199806199760139,0.7636479998807896,0.7766882773239083,0.7806781043051191,0.7890395579104188,0.7822678243236187,0.7206167794283207,0.6452384262919004,0.625249959479155,0.6557057597956213,0.7029453496463188,0.7459180283393478,0.7795017670698147,0.797412962577771,0.7773848344012074,0.685949324185529,0.5973137982177346,0.6272168458222798,0.7256222056638432,0.8107178090324407,0.857495512326878,0.8630361169113122,0.8182016835523988,0.6938435679582657,0.510320383657343,0.42127078267722057,0.47672881236390946,0.5841201344180604,0.6665916795784421,0.6871098792215438,0.5855433904294202,0.3346387059451738,0.042053840810277715,-0.19848387056160005,-0.3830627582854661,-0.5127631259183911,-0.5966639316091973,-0.6499776854215137,-0.6939028653525304,-0.7434578576298441,-0.7947043298447083,-0.8322981773357799,-0.8454309380936061,-0.8368776083973941,-0.8129383673229532,-0.7796766873937172,-0.7461203396727135,-0.7236810321403497,-0.721164871450827,-0.7362118099207932,-0.7586389033587175,-0.7757379302193299,-0.766740334157221,-0.6756992034180809,-0.4735195482176513,-0.28343412122435646,-0.1830949167247984,-0.15715293097293978,-0.18125020917829263,-0.23898095164831276,-0.31362877961885166,-0.36661578537510703,-0.2906007759375563,0.09391139849891599,0.5297338284458372,0.7516987100128081,0.8528860175144817,0.8893729963295376,0.8845874595952463,0.8635265746948231,0.8550757018050085,0.8717137238253104,0.8975620479761026,0.9189768884942636,0.9340058321062824,0.9448117519266872,0.9520217335599248,0.9527603433706868,0.9386410049269484,0.8996615742251348,0.836039332709296,0.7490662252751332,0.49154649981309895,-0.45046708034170185,-0.8565898653040046,-0.9299687375117942,-0.9511142382409546,-0.9558581668850871,-0.9517449198555625,-0.9405107598927244,-0.919886026187336,-0.8803141483929953,-0.7984882031353608,-0.6357588097959787,-0.41393346484150967,-0.23625728870612633,-0.14299429799043986,-0.07133401112638281,0.0725686893336023,0.33696527664846393,0.6262869308131286,0.8094045530061345,0.8881036162177621,0.9148995836169046,0.920864940435167,0.9191104808206781,0.9111246821925363,0.8883909777704099,0.7769799904485691,-0.29128241826357776,-0.9080221400173724,-0.9632384192565063,-0.9801703541958258,-0.9893445409223844,-0.9919008401037906,-0.9795887264586018,-0.9277402466979676,-0.773397683630655,-0.44871119387198105,-0.03824326265059657,0.3010030679206957,0.5280186456500199,0.6483634456135909,0.676539137510521,0.5866345821085691,0.3023034911831056,-0.1005503083472939,-0.3871863675444934,-0.5458793878589765,-0.6362988326117963,-0.683566888351638,-0.6912698512315609,-0.6601369138720334,-0.6080026735146173,-0.5446592447119553,-0.4414311162766157,-0.2558722550492576,0.027088270049186715,0.35814415081993717,0.6263031284111521,0.7856225171755111,0.8648049412785819,0.898175257888305,0.9060218185474684,0.8943738465170589,0.8610036180400572,0.8022487351787678,0.7271956620975343,0.6670196474334996,0.6588505385881773,0.7115639146277396,0.7919336609736594,0.8561186066419945,0.8871937281877934,0.8859831868931471,0.85740611263603,0.8187962873473992,0.7615664701526462,0.626113053400904,0.24904731746319828,-0.4337690087672126,-0.8043096734970373,-0.9085478228564778,-0.9389369609820128,-0.9459766705699687,-0.9398387780511076,-0.9146861346336859,-0.8374694857586243,-0.5896116624924581,-0.03193958399197904,0.4284495849721943,0.6012035029689584,0.6001034183378037,0.3968060687661807,-0.04736852309081918,-0.35630172714237596,-0.3542093192015094,-0.05388333698828559,0.43586772583739236,0.7358842763281322,0.8421755056302603,0.8724369584489879,0.8685048493885343,0.8446378863180234,0.8165488117283596,0.8118173385125494,0.8376245446938664,0.8734087696955604,0.8987375512742664,0.910146390958828,0.9102201980504223,0.9005439625566918,0.8780888479302656,0.8338754001270292,0.7505650841945029,0.603482721943052,0.3533234872334761,-0.07470204080484795,-0.6500347157272583,-0.9228726124455083,-0.9588604713760225,-0.9552292277884,-0.9533169379866354,-0.9579346594561509,-0.9652430433230362,-0.9717960365266621,-0.9760010302746652,-0.9774380087262325,-0.9740719335333075,-0.9591582074851767,-0.9066972181421558,-0.7132965777686227,-0.18027702920678298,0.32969915702205554,0.5313685568555462,0.5932633986410607,0.6238718143034141,0.6726858162053304,0.7473176310548669,0.819221350477553,0.8699854741253749,0.9010463676958268,0.9177431016570112,0.9228107883594363,0.9177167199091314,0.900639457735741,0.8665951340038633,0.8032249868706585,0.6933729177178413,0.5439556556103987,0.40966274173328626,0.3291103049462802,0.28355810757098404,0.23843454751529117,0.17632832560306105,0.10193584518891684,0.04755983815163433,0.026359092235827494,0.009137931600880372,-0.028525104877538506,-0.09407388867143551,-0.1885617158888308,-0.3234117711933743,-0.46238051029824356,-0.5618072132790235,-0.6090933591376416,-0.6086375012782101,-0.5816929639803785,-0.5600550164434879,-0.5876413124663119,-0.6730718878490872,-0.7681406815046519,-0.8197043942519457,-0.824943492234129,-0.7985749123772308,-0.7581517979558942,-0.7196802552097766,-0.6920012915207412,-0.6772474042271701,-0.6781754035305392,-0.6897654969894327,-0.6874766266006419,-0.6349971291480423,-0.5026766988975186,-0.2692693824345507,0.04257042586135296,0.36115822273249004,0.6173681003244839,0.7798526981785184,0.8612530627218914,0.8935260217749714,0.8894554120986187,0.8334546906409119,0.5881925300574231,-0.15130489904397224,-0.6189067317600125,-0.7204182459002847,-0.7208377660975542,-0.6953938569455878,-0.6951852826556869,-0.7478465692294469,-0.8311399513071008,-0.89805161496682,-0.9355582450534728,-0.9519401889784345,-0.9533996308905566,-0.9374430620907429,-0.8864288465214073,-0.7584898220218225,-0.565520430963225,-0.4472758350801012,-0.44016077317315183,-0.4880884568409055,-0.5567965227930047,-0.6271521640766095,-0.6677914956130092,-0.6144610165256222,-0.37141440320617464,0.10843319514067193,0.606920024530087,0.8521883874225228,0.9370408975062616,0.961352918433268,0.961014474326963,0.9504225525746621,0.9387927902421523,0.9329147016236781,0.9339531315821401,0.9400962202436376,0.9474014223004378,0.9543139574497678,0.9611881334485792,0.9652169188750161,0.9617975009191202,0.9474361454521393,0.9236967894860318,0.8964092551349504,0.8672628095322875,0.8372576477733075,0.8026809902002673,0.7629754867165429,0.7277826116138785,0.7037359544099546,0.6749936668381442,0.6019323498591204,0.39040271270254634,-0.0813300488024724,-0.5742596812585038,-0.7879406257021934,-0.8464170493973873,-0.8417029869517035,-0.8123295650877912,-0.7799527367930832,-0.7548971878044956,-0.7441443122574393,-0.7439582599063772,-0.7490030408499165,-0.7541294561585404,-0.7546939063268086,-0.7460363205580955,-0.7229552080032333,-0.6819104643326438,-0.6028185776006518,-0.44093828124120543,-0.1291360878798484,0.3208237400936461,0.6537926008930153,0.7980513378956783,0.8578186756958818,0.8882697549860723,0.9171195803691817,0.9502218005871508,0.9753045501269159,0.9784713988750834,0.9628049233355865,0.9372662858360561,0.9030328769936289,0.8476073700993586,0.7522243587599571,0.6113880657543106,0.4428608706636302,0.2845835052483101,0.1436486197718759,0.0234409139278626,-0.05907390533928716,-0.05877418294868056,0.03688472886700427,0.18764609666072024,0.3589616653385707,0.5270275940870663,0.6290698909008621,0.5937246369775184,0.1992618149911736,-0.5630466534336246,-0.8122346995482654,-0.8574884502259905,-0.8545936111391578,-0.8260957273945881,-0.765876264310266,-0.6335003611921789,-0.3279116866965216,0.18234362157724293,0.606128909409297,0.8116589076043085,0.8948463796287328,0.9232516885860649,0.921313283729091,0.8785985625339777,0.6495140477266078,-0.594089675779612,-0.9714435606037493,-0.9961447285254333,-0.9909142892995496,-0.9792338162168075,-0.9635889029020618,-0.9418821506196307,-0.9120058693475481,-0.872955599712221,-0.8280554417600954,-0.7737994331861634,-0.6574313607060406,-0.4093986724442547,-0.20802583468523989,-0.15540635176680637,-0.1058844757885793,0.013602312007433151,0.1764232465568131,0.3137820414764814,0.38511821688889514,0.3824364709126893,0.30795119345762395,0.14288128165465389,-0.12500582122702697,-0.41110635057950307,-0.5922643522505233,-0.6508423626702892,-0.57800287834339,-0.245842087407364,0.33533495120156775,0.6813079067848551,0.8104235774446945,0.8573938210071049,0.8600300760584075,0.8205072784334891,0.70886326494112,0.4746865867906021,0.1522257276024834,-0.19377280871575522,-0.6050647812227925,-0.9172637327745408,-0.9934511794018356,-0.9944595146206596,-0.9890994512736488,-0.9832131681630033,-0.9699636651784264,-0.9237271122256838,-0.6947295563299108,0.12327326640414216,0.6260046110569175,0.7566212821564895,0.7951983531525098,0.8013328094794137,0.7942544799524269,0.7802119815308192,0.7665062751014806,0.7572468193513673,0.7527881613754912,0.7573726772616662,0.7713919205093799,0.7733472063672235,0.7422382346835036,0.6607953826842907,0.4946004811860646,0.21138773920552703,-0.11161949417182704,-0.3301476117520054,-0.44144131065434694,-0.49632787090806263,-0.520219295289229,-0.5164639259576423,-0.4861916997829809,-0.4369177739322366,-0.38149111718242706,-0.35537399113070567,-0.4261269596578347,-0.6203316812508647,-0.7967646307165492,-0.8570535832634492,-0.8437007892771027,-0.770123723220829,-0.6074662201386661,-0.3281761381265202,0.04381252638872886,0.41398660240941854,0.6862582757899283,0.845604076521367,0.9246143757490612,0.9553843343967136,0.9612808991474681,0.9555897635653336,0.9438631749736979,0.9306173469505779,0.9221202751510001,0.9206243858853305,0.9225926651672469,0.924642709304741,0.9281173040233879,0.9324964722094428,0.9354385069775869,0.9304761454620274,0.9105515462998095,0.8703386247710312,0.8039009274259413,0.6888665307764757,0.5059108288741412,0.26847746627082025,0.025018057154660423,-0.1649590543268176,-0.2704982532541362,-0.30339873660041955,-0.2789295500922384,-0.2259179535315322,-0.20011022760920164,-0.25052636932464356,-0.39362593108243893,-0.5832464248216553,-0.7370173116045728,-0.8215996646257934,-0.8578863573631919,-0.875483850072788,-0.8938011406454015,-0.9053054152519185,-0.8811899652706091,-0.7971128243840139,-0.6833160929255278,-0.607604534877534,-0.591004364557723,-0.6160386103593365,-0.661090300558117,-0.7163719464194079,-0.7827586958952315,-0.8353396427894884,-0.8529455338315926,-0.8314247783900658,-0.7416129381731331,-0.43504519801244335,0.2789809183965445,0.676570516940381,0.7446927425862273,0.7128272892232091,0.6409118794857627,0.5499030277834339,0.4484534070298334,0.34322606135895595,0.2404218859334005,0.15011792685471834,0.06674204823594303,-0.034279392081748905,-0.17778242722834417,-0.3546456922116112,-0.5191101364025453,-0.623426611801214,-0.6536980806108376,-0.612237317619394,-0.5230525586718608,-0.44200966739932074,-0.43251976961810285,-0.5100889263346782,-0.6456556655219049,-0.7781907629588282,-0.8698800513275468,-0.9164853458540262,-0.9303571601943528,-0.9213039494128243,-0.8915613124710542,-0.8426206562670394,-0.7761059423586594,-0.6936376873296902,-0.5793820176046148,-0.37184289354646194,-0.014218192429821322,0.37363811886378984,0.63104083046836,0.7737217721586442,0.8508325006764198,0.8961319488007441,0.9308388677117089,0.9571013398005058,0.9717321832303477,0.9756060339960031,0.972090690185295,0.9646046713296244,0.9539592695122882,0.9347621629136463,0.8777794419180764,0.6210560849011749,-0.22993748380791723,-0.7272265298393525,-0.8597361489224501,-0.9081060329118174,-0.9292329919561614,-0.9369367886791152,-0.9368858542023376,-0.9356878561892129,-0.9372236521818703,-0.9392405983220647,-0.9362201435913043,-0.926339169832288,-0.9145602787202272,-0.9113078519160326,-0.9250936588247564,-0.9482275913404574,-0.9673972275518251,-0.9772713723799489,-0.9799468472503873,-0.977786207050334,-0.9702954557578047,-0.954055794016718,-0.9218579603515547,-0.8563946230945365,-0.723460926372742,-0.5069154677036264,-0.2627044781601793,0.004910081436881835,0.3314912844253203,0.6009765989992164,0.7476976716872474,0.8176106744578835,0.8458212329765155,0.8451667158101772,0.8161423351246474,0.7470144227488079,0.635927402714774,0.5462991196728034,0.5597647084276293,0.6597863102699123,0.7688261478544931,0.8425313581236191,0.8774379120876753,0.8886012672246736,0.8884038079250451,0.8851531357757497,0.8832477451709912,0.8851497031869956,0.8893816585233973,0.891818682514939,0.8889954522264993,0.8826390301675666,0.8680378359721723,0.8156250086241053,0.6568983399118783,0.3940636619816277,0.18401135970244167,0.1181393315786958,0.2015488418448798,0.39681319431017587,0.6000893725183962,0.7046380120855359,0.747080146550619,0.7636268282038686,0.7797688819428578,0.794466132025744,0.792337275203951,0.7556727118153097,0.7104440936776704,0.7003912623004558,0.7133947715433061,0.7264824910059273,0.7291517888620637,0.7175977200957032,0.6867488425980941,0.6481622887642051,0.6229403267126604,0.6122946770446588,0.5989672991976247,0.5870356967641666,0.5943673180791642,0.627060257058587,0.662668027804501,0.6868330152186654,0.6957119747925535,0.6922489155884968,0.6754504200681748,0.6454698997992541,0.5970701011644476,0.5352034644851333,0.4867959779018314,0.4614758455553853,0.43584558174107174,0.3657036702724014,0.22658003136663674,0.019049939344500694,-0.20889475474254202,-0.4536968061479932,-0.6887730782984111,-0.857032290005783,-0.9355273962942572,-0.962434007894308,-0.9688739974962987,-0.9668165325563294,-0.9611644598976865,-0.9544892909887329,-0.9447409056557894,-0.9259633664851596,-0.8871548543854063,-0.8176756369020823,-0.7212304110180177,-0.6249276639088089,-0.545809467858201,-0.47365866214805286,-0.37473378827740217,-0.22517515621398437,-0.02481918943000392,0.20230626052377965,0.41615298148983926,0.5933372404018508,0.7247680656828389,0.8123035403935095,0.8632441027264092,0.8834297781381608,0.8693805601011331,0.8118894571072637,0.6890877375179253,0.48545712265306884,0.23562671997517912,0.007177830799343531,-0.17000670419045488,-0.2716466651730852,-0.2706763094907876,-0.25936459397369693,-0.28461473509453034,-0.29070019463444924,-0.22207949433155524,-0.1174771019868292,-0.1117130126544731,-0.3236676645885066,-0.6644759145375708,-0.8377775117809579,-0.9039803130482398,-0.9406702227883205,-0.9620840595014153,-0.973649478520013,-0.9791784943562766,-0.9783978795037325,-0.9667483739187678,-0.9381352617152658,-0.896959258187036,-0.8625419252155518,-0.8441762672247369,-0.8344648305140108,-0.8149075142927473,-0.7539449350511183,-0.5892625713910198,-0.21999770121516288,0.28377031390863355,0.6211838135245529,0.7740284087226387,0.8349674559346575,0.8585100795133606,0.8663967760440402,0.872105442945713,0.8858998234858494,0.9100600962866887,0.935884882211922,0.9540892542825137,0.964718154746501,0.9738830042645968,0.9826620935328787,0.9885627332771099,0.9906491251168208,0.9895265902735702,0.9865537086783253,0.9825646981004895,0.9784455771365018,0.9741889429460477,0.9683195313657186,0.9524156156379604,0.8779573877364921,0.3441950575382956,-0.6249554552937729,-0.8369746327040207,-0.8932871450858524,-0.9219659480997435,-0.9409059522634764,-0.9524684232667863,-0.9579217937561882,-0.9581273077065541,-0.9536780566775197,-0.9461064527298068,-0.9364091690685536,-0.9250188653999339,-0.9103818345413544,-0.8928386629915804,-0.8909092166205436,-0.9176218899519534,-0.9487823544947551,-0.9637144958888355,-0.9652704107626837,-0.9551160439919354,-0.9181836683193995,-0.7667010230499567,-0.13360267629264222,0.5904761803182687,0.8123852027341195,0.8817650106824731,0.9073833457119882,0.9152191490230869,0.9150341975545391,0.9100193304941346,0.8999803864148728,0.8842646937140751,0.8635513164648987,0.8456447709469137,0.8314801690082997,0.7467069121925296,0.47825728112012006,0.42975611864132207,0.5807462821374102,0.7336135183307677,0.8100606488341312,0.8188875669254437,0.7670122669785303,0.6484206895137489,0.48875366189661384,0.3507422282954654,0.26706835854076927,0.23133979105883745,0.22422360876380898,0.2228006670418063,0.21076265172016712,0.1747856572939766,0.10893959903461237,0.008238428642395157,-0.1309757260705188,-0.28421647090290714,-0.394913505255561,-0.45165183153301636,-0.47817108627579286,-0.469058067540375,-0.4087969522984351,-0.28983844587734586,-0.146223552111271,-0.022044492170894495,0.07077961418383086,0.1403089502207768,0.19588506047915474,0.24673452339046764,0.3085920233481507,0.42013981965802344,0.6112336146488399,0.7997170640842743,0.8953690867860988,0.9297309530583621,0.9327274315592992,0.8842888244907028,0.6567670780015304,0.14295396409984615,-0.24817420021946163,-0.42997282597603964,-0.5078656003368812,-0.518033068990364,-0.4658371537517743,-0.3315722183366371,-0.12704092782851628,0.0894677721007398,0.25898269147164743,0.3627605718137287,0.393921250371,0.35200187704015556,0.24522827745851328,0.09961025710037516,-0.04468059815596567,-0.16762458507684355,-0.26799175823365684,-0.3448061302544608,-0.386846450031943,-0.3739114171875453,-0.3001106020323324,-0.18155449839889148,-0.08216265311115348,-0.03933635413084479,-0.035732358377593886,-0.049133053699176976,-0.07572230980670797,-0.12577422967912352,-0.20738329193526236,-0.3007134887516139,-0.3624011169437226,-0.3770216667158619,-0.3577008018224365,-0.31614921339864444,-0.30234488298758944,-0.39966282907171885,-0.5196812902489353,-0.5941621421810519,-0.6068607040429259,-0.5869148434893444,-0.5314648696123757,-0.36283789787284526,0.09203346861584794,0.5110289885699358,0.6550744322930149,0.7013186664362755,0.7120736613432082,0.6910043473650627,0.5896010878536095,-0.022701655710398463,-0.7683320543770444,-0.8375683862330293,-0.8637753876807052,-0.8971914324382583,-0.9348402181653409,-0.9648834627467748,-0.9771862791409504,-0.9719604636153015,-0.95619889120276,-0.9361146707878968,-0.9109405259516429,-0.8734048025014662,-0.8047603005934617,-0.6455545264941634,-0.2582400148053878,0.29674844799282296,0.6577456563551817,0.8232163505738628,0.8965663548465789,0.92797866564317,0.9425266428723456,0.9479324766229306,0.9452101881422166,0.9396446634243247,0.9398794670933047,0.9484855182261046,0.961891820990453,0.9733030132426014,0.9792851925734737,0.9820107211068215,0.9836332827107953,0.9830249186464045,0.9740234918038656,0.9489939081659073,0.9055950337388056,0.8375115598097826,0.7146355031188862,0.45037679747787596,-0.07444127545368517,-0.5839628170020308,-0.8085651781641551,-0.883846468809921,-0.9040193477001969,-0.8982600061415357,-0.8697621311872612,-0.8063162809434881,-0.6783068130776161,-0.4659369356318169,-0.2469910204079803,-0.11471000402679951,-0.09253011608431323,-0.17350071338297082,-0.3172563396601601,-0.43677165517137945,-0.47165273491678505,-0.42218049186570844,-0.3033592995040101,-0.1481043634076822,-0.03623504439662083,-0.0045887736869957944,-0.021633315901731478,-0.04871719985128981,-0.06682175857602543,-0.06707485098432739,-0.0334019828698747,0.11156757909201033,0.39802571484007476,0.6161061790235562,0.6293018639005438,0.45474458443778765,0.08229889347640021,-0.2954496164678264,-0.5078459564636594,-0.5922916328580359,-0.617985730806781,-0.6306672619097085,-0.6525237200015007,-0.682570902943923,-0.7183170305744594,-0.7501185188977318,-0.7600512123147214,-0.7479020401205803,-0.7455469554637492,-0.7602078698431145,-0.7782633448998053,-0.785825473426054,-0.768073013191497,-0.6887131889442466,-0.4224652138739561,0.052464996460760464,0.3356674946172796,0.41493521856139776,0.40187204779259655,0.3414331783238121,0.2606442778211507,0.1886514512745231,0.16892317615999367,0.24799293295790484,0.428700653673459,0.6216304943513582,0.7459484584463039,0.8131363534783226,0.8548846752670967,0.8862536153123572,0.9099070715198161,0.9152944469270563,0.8452268819577162,0.29839459377347866,-0.49994160334271914,-0.6888927891945777,-0.6946146602073178,-0.6241946458432784,-0.4900109051699397,-0.2560639870491581,0.16099939678587394,0.6059042140379983,0.8041979573465412,0.848032302500098,0.8218071851950356,0.7339633514774297,0.5844887032113957,0.43056880824786053,0.35351461079430013,0.3640615473644278,0.3884122796627419,0.3546652125979466,0.16815842116571364,-0.19702668423671083,-0.5212521650643975,-0.6778240144658279,-0.722467164517115,-0.6992753147476185,-0.6130743162845212,-0.4464259584387837,-0.1955925995897612,0.08242037741452726,0.3157707015648198,0.47121059578707575,0.545077398989725,0.5486495594625491,0.4688786212546903,0.2916952785545088,0.06179354015025715,-0.14120217675305063,-0.2691507779666288,-0.29803180428173237,-0.15172108961106373,0.3829788057311304,0.8515485696079633,0.9483718495545644,0.9666552432128697,0.9730877782355214,0.9752517226483921,0.9697932764910128,0.9376577305509284,0.8286794962989986,0.5828320944316124,0.28771912938621697,0.1310306503840788,0.16719056436178553,0.37869255162844095,0.6388270650973189,0.804307647295865,0.8675479539686045,0.8524313651062843,0.6989715424488299,0.06359973962595349,-0.6473749795691387,-0.8462280378192986,-0.9001549178713967,-0.9131518108698976,-0.8985672112237124,-0.8201505929664487,-0.4798369021877343,0.26739041704267086,0.6187872135382239,0.6829486860641282,0.6365353472595662,0.5733257579720118,0.6102781293410754,0.73462581093219,0.847237106078802,0.9133235728145307,0.9473346367437543,0.9625876144569047,0.9542845006806379,0.11811440030818737,-0.9205993411251413,-0.95975468818174,-0.9690355994711343,-0.9720664633112904,-0.9713761686163612,-0.9671451254991951,-0.9580259892807547,-0.9406931916188148,-0.9089707055634179,-0.8508239797571905,-0.7416688979055975,-0.5298855904701237,-0.1753993290306566,0.19862173966439778,0.4656565198437232,0.6384558142464763,0.7505643123961906,0.8173854107488177,0.8517737157223016,0.8704551105223362,0.8868975857714632,0.9059274731967881,0.9253607017230965,0.9403045468623246,0.9473227965150655,0.945307450582817,0.9324701383849819,0.9015465395996711,0.8307190083888792,0.6936483316611978,0.5323872256196598,0.44889732344472805,0.4681136050925439,0.5394172093126465,0.5988885189602676,0.6018779994712096,0.49965644440447776,0.15458019846053875,-0.4829672040284075,-0.8148569787674714,-0.9056915107111541,-0.9385500722082128,-0.9381547736616993,-0.8692160072172147,-0.7171976159564174,-0.5701696346166849,-0.4769885820149486,-0.41192675979489485,-0.3374654066188313,-0.22198660258953315,-0.03340546610213303,0.2033063381189402,0.3550604991789326,0.37242650419316337,0.3106979275491896,0.19588082351970865,0.048518860745958736,-0.1019047833013402,-0.24361881092047913,-0.36822272201555734,-0.48475391232846543,-0.5926553019860941,-0.672803147884685,-0.7073625216815778,-0.6899721444042541,-0.6068417505001039,-0.42429222646564774,-0.14910754835951961,0.023380777005785548,-0.1827751920034329,-0.6168630435761724,-0.8174495549974781,-0.8715398422293924,-0.8773040616877888,-0.8639701640728242,-0.8452586780541966,-0.8314753778084828,-0.8195861265462956,-0.7854949331898422,-0.6599603815631233,-0.3258098931032229,0.12152138439199023,0.4537741408017731,0.6633116689786208,0.7473335939934199,0.6770610554764105,0.1994672326695337,-0.633523975097861,-0.871432139415975,-0.9109672979717182,-0.8979920067326906,-0.8384389343826705,-0.6925621419788047,-0.41094676176169703,-0.04184030686711225,0.29713059001351333,0.5521501972320971,0.7192210015803832,0.8127980085628428,0.8493756237081282,0.8419960449729585,0.7950117218738999,0.703762854978905,0.5743727840213577,0.4629160973424897,0.4509443069992494,0.5343912949460289,0.6522485530824432,0.7535296427505901,0.8241690211973701,0.8705770061786698,0.9037803150264185,0.9292420516777815,0.947962391172808,0.9603470390646105,0.9682263353898115,0.9744262160593722,0.9797665328004505,0.9838113144098605,0.9808526034579824,0.9550755766186925,0.8881315109642623,0.7679130763629883,0.5339317136324736,0.08263073486472895,-0.30377576637393544,-0.49122950824158634,-0.6043628875898186,-0.6929594429768575,-0.7676315539310454,-0.8252719235630949,-0.8670629599457355,-0.8929901065552127,-0.901124210964965,-0.8874776817437053,-0.8562108614268531,-0.8213534683859007,-0.7931008028399292,-0.7665052606467889,-0.7305935222402247,-0.6743383694712461,-0.592234007254178,-0.47118497812378085,-0.2722635550444987,-0.00494364187930536,0.2612644249452142,0.5131408666019524,0.7357688386604652,0.8819850424428023,0.9438003584968806,0.9638694954027054,0.9728937702905799,0.9791458510798349,0.9842035566144629,0.9883207367376725,0.9907891864917842,0.9906928373007416,0.9870686689706363,0.9765653141825237,0.946764335744707,0.8526974219387023,0.6347968889727873,0.38103663729285114,-0.03991955686812859,-0.6413349619598633,-0.8802614312243173,-0.9343055806796917,-0.9440984355263982,-0.9418380314515,-0.9365971471566691,-0.9310585891510553,-0.9223267865689012,-0.9057941453501623,-0.8755234538555677,-0.8405262511113017,-0.8302911150863831,-0.8515828053532267,-0.8635162058423151,-0.835569603260193,-0.7111252749652814,-0.24048460857230938,0.5392630364141218,0.8225342772454509,0.89026135303919,0.9067447673407241,0.9108031695914205,0.9164751128614008,0.927593780659303,0.9375778290608959,0.9325461372997451,0.900256403565784,0.8447847821276584,0.7969001181862,0.7823470527867739,0.7912220209870969,0.7932260112665053,0.762585620159771,0.6743471068002693,0.4719445547371109,0.0674760961324873,-0.4356283724216521,-0.7120946786240397,-0.7683767211214645,-0.7150957521839306,-0.6103269561295865,-0.4978640471631347,-0.442892626049599,-0.5430010188207921,-0.7838027313656857,-0.933417452056608,-0.9743714539985826,-0.9830646835669541,-0.9841443657789443,-0.9817755893780313,-0.9759090317421627,-0.9630309772174303,-0.9303509401146481,-0.8312720098804732,-0.5061214630332496,0.12443563833854605,0.5196777832239543,0.6454652468861849,0.6445730849779991,0.531416494604173,0.2906538297474775,-0.0005911036491677859,-0.27888688310005216,-0.5501040923080116,-0.7759529122846022,-0.9004813916005739,-0.9524935537007214,-0.9735128750723735,-0.9826818168248801,-0.9864873022240408,-0.9862274293082407,-0.9724493065066852,-0.7213421342653933,0.8423794792025969,0.9497662040238263,0.9576469754973707,0.946273430666026,0.9265379690190756,0.9080980527487534,0.8938869093746392,0.8695306443257977,0.8024411479550991,0.7177576459339844,0.6668780756634534,0.6568943150194778,0.674097030390261,0.7013673307580832,0.7200285454967174,0.7168792326027376,0.6993954510197293,0.6809079287744126,0.6944520827724332,0.7989674688690741,0.910833108007052,0.9510913951483441,0.961477789509177,0.9641904961457751,0.9639971410858241,0.9631017345219963,0.9629349486859778,0.963487058254912,0.9629744773156201,0.9539102260915581,0.9142805771058063,0.8271128888469562,0.768631213920231,0.795226362639809,0.8432411052885801,0.8708489408940342,0.877458272222022,0.870220361882564,0.8458478952089347,0.7830286602957793,0.5872219023272154,-0.04233281119093452,-0.6033177417915156,-0.7528507159025506,-0.7955479226444037,-0.8133883798748419,-0.8293381012409553,-0.8527854569488973,-0.8798816634931067,-0.8896365871304466,-0.8536925942269552,-0.7379565174273074,-0.4892254438522997,-0.08981139915673786,0.30433734582522415,0.5465756972917891,0.6397992931869336,0.6339369857440802,0.5754641447273399,0.4988987505772402,0.40026211650552285,0.252726888345011,0.04913650951845954,-0.10932899824120482,-0.1612438335231739,-0.13853984324642865,-0.07091832295084385,0.02667233399311364,0.1251808403222928,0.15982521791851906,0.05374737019283377,-0.17436614797704794,-0.3909583932494602,-0.5318973246218324,-0.627975913553786,-0.7039420291112869,-0.7705563750783303,-0.8268700269168222,-0.8659853987416722,-0.8826396747123744,-0.8727170500851793,-0.8270830718131071,-0.7263587568728919,-0.5185168234182937,-0.17468820070198593,-0.0028984091216091865,0.0039768256891159585,-0.006234960499258153,0.07071514024344483,0.283874423953104,0.49290549054790606,0.5946876271148335,0.6271309817618534,0.6200072946053853,0.569916991991702,0.4486523969679606,0.21237705335487234,-0.13597382996877658,-0.43026370512530615,-0.5681906395884981,-0.6062053318821092,-0.5922707231277143,-0.5436292581479286,-0.5045144980984256,-0.5151576405454261,-0.5620285914428649,-0.6116036074898951,-0.6369981953662136,-0.6274869849987023,-0.5767876131007462,-0.47821032466303137,-0.330989326494509,-0.1555137089589333,-0.003244719544914545,0.06379313368646207,-0.0002106696795281938,-0.15796326735407298,-0.2832474710727297,-0.34705472859202174,-0.36004747171431845,-0.3204544444157211,-0.21322705883954043,0.005329948968349259,0.3442606603219959,0.6236525995417207,0.7224376915526981,0.6882555500531691,0.576122611368206,0.4380879425664462,0.307763250022332,0.18634442698511192,0.047079322495531414,-0.15565720175589112,-0.44730544724962457,-0.7166746134437422,-0.8257095396132744,-0.7572466177591792,-0.5041543075963479,-0.15434750311174975,0.15697427519638912,0.3931484245778089,0.5593484102648227,0.6661573794077357,0.7330998390576453,0.7760496188412999,0.8066035958279896,0.8260793094431517,0.8305631860022071,0.8137954794204931,0.7556103674944821,0.5875043280712433,0.15996739647080552,-0.31382926382876675,-0.4391853701857549,-0.30411104216489215,-0.041222409519043685,0.20984279857285087,0.39465069224074245,0.526988833456328,0.6228025310179052,0.5992569705085214,0.36974931839020697,0.18050832526155447,0.22674996103335207,0.4692046534853504,0.7068422488235058,0.838032346757157,0.8924626624087397,0.8938770172159184,0.7761805334057891,0.15719515955245253,-0.5430666104924242,-0.74947176918611,-0.8183772981125342,-0.8502084231703512,-0.8706426373159855,-0.8895245740089421,-0.9095871275940371,-0.9238043403387995,-0.9262333685541955,-0.9154423688427957,-0.8895407887685328,-0.8472349477377675,-0.7939444821696152,-0.7456981332912492,-0.7151866226560397,-0.6976224689593509,-0.6721865709250684,-0.6011201218015233,-0.4107048041524185,-0.00925622672408275,0.4370868767672111,0.6747850454897759,0.7734976460326379,0.8227511107983367,0.8642337130904408,0.9178021098030718,0.9657396373821093,0.9754459495278235,0.9599469526230212,0.9467046694903434,0.9414359963584932,0.9402370455607342,0.9393946262043813,0.936303580606432,0.9305056184237838,0.9217472799190282,0.9115303205619014,0.9022808670365806,0.8962636813309993,0.8946045903021209,0.8885105835565673,0.8488411991061244,0.7388492764572754,0.5811523882514429,0.48238102859918913,0.5016438812274711,0.5711188814212658,0.6155587863775625,0.5902227562930964,0.4321480954027993,-0.02107115336591448,-0.6310956360973444,-0.8743310456357577,-0.9295188312272233,-0.9353841970697493,-0.9296931159989981,-0.9292928184330962,-0.9362884106702237,-0.9315281163191864,-0.8959142001014311,-0.8340992938814518,-0.7657406305920846,-0.6962437951941609,-0.6009525406341478,-0.40137539351930007,0.04755300592256753,0.595769840518965,0.8644822915316757,0.950071767718236,0.974693750880957,0.9820773659675995,0.9863870833682927,0.9882763694943332,0.9843236850735892,0.9731021585132149,0.9545540623413031,0.9258491357878386,0.8760579041712321,0.7770414686832071,0.5722866693447746,0.22492635966721286,-0.1672661569130486,-0.43247093259842057,-0.5545277052172598,-0.6469085148634863,-0.7500414429929113,-0.8381497162030984,-0.8937008889040176,-0.9223795177012105,-0.9328641615626942,-0.9264007497620772,-0.8992197081160577,-0.8475058817446701,-0.7852011704535197,-0.7553149495101106,-0.7795687595529049,-0.8284992629799101,-0.8672132030980493,-0.8837865503495463,-0.8810757262136701,-0.8690606046443171,-0.8576667073027323,-0.8513836732951161,-0.8452602130855081,-0.82541127775286,-0.7798701287843697,-0.6933362444287251,-0.554290260963035,-0.38583561655785853,-0.23721519366757288,-0.12482596925741694,-0.02676646907212977,0.12986715238091268,0.40284543295036107,0.6504002386497423,0.8184299714191775,0.9086297772951787,0.9529702579351683,0.974869441141576,0.985317827377998,0.9874062360110447,0.9820583980595257,0.9700078451740317,0.9498821666948507,0.9155633253112608,0.8503740827866951,0.7277978203018407,0.557000189514105,0.4306988116530702,0.4201020563194963,0.49602079874215116,0.5944863796848155,0.6661070226788021,0.6947096130057517,0.6629267180520352,0.5257495917814787,0.3037080103390695,0.1492656450568632,0.09899965999826771,0.0898465669939163,0.04359526718841574,-0.08217586654101204,-0.2872728195278593,-0.500747146152722,-0.6383997733120369,-0.6921699194317429,-0.6954795547706766,-0.6857417525393662,-0.7064822856946626,-0.781642719816757,-0.8783133869338351,-0.9169679543955355,-0.872051095176106,-0.7568158856764832,-0.5503041059214726,-0.22136123154039458,0.12103708039624046,0.2760206267058004,0.24135505379471037,0.08371622738141224,-0.13084308446957804,-0.3452636008926798,-0.5433528273259547,-0.7314962109892487,-0.8717199988535926,-0.9403188544362064,-0.9663159407309067,-0.9753370428991918,-0.9779457860638221,-0.9764027369190837,-0.9684795024950793,-0.9437331460813905,-0.8568904538255574,-0.5102620500942964,0.2562249853659404,0.6721581912191115,0.8045897068118283,0.8532905325324628,0.8678236172654311,0.8575952707857973,0.8307328069270674,0.8143905021812297,0.8386778353849828,0.8949757543074268,0.9415216407353795,0.9641074091487464,0.9731559467466129,0.9766001606656751,0.9783281316980006,0.9797715566705166,0.9818066545279321,0.9776603796280168,0.8717514166309258,-0.7390558399661016,-0.9440944850388804,-0.9690038402703667,-0.9765231344577987,-0.979494341025476,-0.9806542288995852,-0.9804509663848671,-0.9783097328107209,-0.9734180870754745,-0.9664669119523429,-0.9598006364897426,-0.9541614390500234,-0.9474431621284749,-0.9362521991701961,-0.9085361764234268,-0.8088995144166774,-0.40155943195715227,0.36231692711946345,0.7179961770125493,0.8356941219287807,0.8895706079259316,0.9215136962270153,0.9363694674207085,0.927741190905063,0.9000079806806234,0.8716374371342372,0.8544258426859355,0.8484553456626635,0.8523336186827412,0.8665972186244234,0.8933806615882227,0.9240466427296645,0.9455344153981924,0.955338224031117,0.9581987247632289,0.9580906495861,0.9558187559428896,0.9503410112561249,0.9383271615000446,0.9153650322377987,0.8752780176199334,0.815224091453009,0.75820473413528,0.7765688114283053,0.88986083356221,0.8793330025194828,0.7945869301084793,0.7405191883924167,0.6972114973549753,0.6338969272283421,0.49726369794477043,0.17312378912614335,-0.3223503333920313,-0.6447019006129462,-0.7645593112720529,-0.803156898082071,-0.8112854649734768,-0.8039771392398027,-0.786821912530714,-0.7667882668333823,-0.7566900016894725,-0.7689929776276946,-0.8055236334437078,-0.8552507557846165,-0.9028829125673006,-0.9342898167629834,-0.9365648439370745,-0.8970388328478555,-0.8276400473379086,-0.7876086470120005,-0.7995095230001704,-0.8144141181861018,-0.7936630327454164,-0.7100421919290923,-0.4776656772714023,0.11006469707733876,0.7230190017479371,0.9107379853264672,0.9347167430018355,0.9214403654963043,0.9029022162801963,0.8785340937195596,0.831437872621596,0.735302252023843,0.5800300974395317,0.43770978146473916,0.4040019406822026,0.4800959346121877,0.5886707841197828,0.6657326227304735,0.7011879697737112,0.7051772971116018,0.6889638597464904,0.6512651997033252,0.5824594189884161,0.48619700311928,0.3829992200594945,0.30889008822275144,0.2834648092342091,0.30187684379723406,0.33178517893343795,0.3312700426079258,0.27186808450625183,0.12725225285906716,-0.12708714639920718,-0.42223396100486366,-0.5966596370234643,-0.6064770673936724,-0.4198857122336377,0.01004622099135094,0.44047945924170856,0.6568871378779116,0.7221980118055695,0.675031231252687,0.47014393635300555,0.05927461162016183,-0.39067285812800867,-0.6831480558600465,-0.8436421843486313,-0.9291734870113689,-0.9627757873389435,-0.9610872081695242,-0.9412858068114033,-0.9085185084353552,-0.8381021711732034,-0.575437356369367,0.25810266457383246,0.7195325054801067,0.8103994472833186,0.8194484008576449,0.8099862966167202,0.802440623836549,0.796175964371726,0.7636353184419559,0.6645420076020215,0.546403208030909,0.49311888788059066,0.5014626173098905,0.5267587551611252,0.5258152206923979,0.47595134772797615,0.39293436243119834,0.33359864595496075,0.36629615983052133,0.522882001936872,0.728805417756063,0.8537970680005733,0.8977480026564841,0.9160494930070633,0.9330139959939022,0.9537217394527367,0.973997909141876,0.9802224311420609,0.9560637407300941,0.8908773948388828,0.7808405233282506,0.5733319843788202,0.01882024421177274,-0.6950484528722661,-0.9103982098249968,-0.9586848376634517,-0.973625656247087,-0.9798680363267714,-0.9827341636665441,-0.9835271850298328,-0.9825206480747903,-0.9792067714620523,-0.9730809904371989,-0.9633637145217993,-0.9490593278519341,-0.9285161946334752,-0.8970314720282369,-0.8377681237850332,-0.690888407212352,-0.30096870343730886,0.25798413552702293,0.578785173204166,0.718641064001015,0.7845495399999807,0.8112553164443559,0.8231332614672918,0.8434004396002666,0.8731210776133946,0.8986349218158171,0.9097677001104992,0.9012966301861113,0.8617863418285053,0.7562885308718045,0.5237665216785129,0.19652712426085947,-0.006417349663398761,0.03416308229677273,0.28079570567051754,0.5178385397537946,0.630329195468028,0.6559400936206047,0.6286399703300452,0.550676902061534,0.408676717423973,0.19193494233024788,-0.04448844915141186,-0.15396001189893446,0.0591621613163209,0.5851475784258849,0.8522650120449081,0.9245733347425519,0.9368885510170802,0.921487721761838,0.8891182215938732,0.8406392696270742,0.7620900862863705,0.6260085778373394,0.417289404574606,0.17802361462962782,-0.01643722794776124,-0.14583644424027287,-0.2503312429204785,-0.37728626706285323,-0.536310182042325,-0.6853095718423349,-0.7854463243135001,-0.8369177934436248,-0.8527484781599229,-0.8395823946775294,-0.7898513017854878,-0.6519115186018144,-0.1987993388728288,0.6046596140683744,0.8979538074844244,0.9630882917312285,0.98240538003917,0.9888415510772356,0.9906357743264238,0.9901037237232109,0.9880300174889941,0.9836198447135855,0.9760136451781117,0.961967549375453,0.9319729556976962,0.8819861050013461,0.8347255602268773,0.7980238204896086,0.7201434725072301,0.5229186298266418,0.2760212426036909,0.12430795516643284,0.10960196152457509,0.1508397290836038,0.1768586948147707,0.18167745292734236,0.1590956481567166,0.10725914925829547,0.027424089929567422,-0.08040351728395424,-0.20974591338242668,-0.3321731277486498,-0.417646904823103,-0.46569928124187204,-0.5023486574520672,-0.5647693153121728,-0.662398010270812,-0.772728131632754,-0.8630110362325748,-0.9175471887595441,-0.940000680825119,-0.9414091226477322,-0.9330395132698213,-0.9257105065657836,-0.9286833601157336,-0.9404873768673112,-0.9502980512260566,-0.9522119471392462,-0.9470133167706832,-0.9352321181400134,-0.9166738875859463,-0.8859440059576539,-0.8204835911997662,-0.6615373318486665,-0.29212591869493776,0.2330287048158661,0.5846402864888047,0.7411454763297363,0.8034283601494461,0.8354257032691114,0.865192091170362,0.8950306354849062,0.9176758123573151,0.9303895468155683,0.9358464559493541,0.935869883972112,0.93028440651901,0.9158664238768773,0.8804487797792431,0.7802912556671063,0.5555627807886668,0.29948151431801967,0.13638184047860913,0.06345735060781979,0.06661442328327356,0.13122217422664947,0.20287208113845734,0.18753383998109308,0.0280863396466859,-0.26690880578327236,-0.5789548213530863,-0.7773179528343133,-0.8676553379653367,-0.9040000149944972,-0.9137489155900149,-0.903114144027664,-0.8588551934686717,-0.7594746212577489,-0.6904082862499661,-0.7826311997634923,-0.903763797946392,-0.9602415619767616,-0.9799901047232307,-0.9870269055668707,-0.9900465011771257,-0.9904432802366965,-0.9853219014883408,-0.9642929572508301,-0.8959283736495669,-0.6843757918645496,-0.17774411298427154,0.3814322291008884,0.6948724139038368,0.8423218444320758,0.9126752044665136,0.9469139757934394,0.9635522578605372,0.9678621484133232,0.9554512148122554,0.9102917155856455,0.7989692387735283,0.5664099047132881,0.17903657527291197,-0.22021512251719091,-0.46048882477608627,-0.5501201372132511,-0.5479534513950151,-0.46964384960111305,-0.30989531371212803,-0.10374796998050584,0.08983466847526456,0.2285459779695301,0.32008463535998616,0.3941773388931824,0.4692446885219445,0.5366833309768074,0.5644680832985377,0.5007800310022251,0.261248959246075,-0.1012436143157046,-0.361017595067765,-0.5010607633344015,-0.5935690553831993,-0.6777048144093428,-0.762777263077384,-0.8387996298511623,-0.8940691783714937,-0.9240268424333834,-0.9288353018889017,-0.9054633978317598,-0.8197014967271309,-0.5089144651110735,0.2587465901019388,0.7393256273112093,0.8794845426683425,0.9249962872371804,0.9417331710435951,0.945404278668674,0.9387361105248242,0.9123128403710314,0.8358445568859226,0.6574291434991998,0.4954474623313717,0.5097642590987621,0.5868560267065437,0.644512716149869,0.6844661086437845,0.7163796949051928,0.7413473678290362,0.7546990913259652,0.7472050431637061,0.699108274183305,0.5647132334357539,0.26962974496190684,-0.019741595769153308,0.23816773990868634,0.6336209060268331,0.7411555198879071,0.6954557877909456,0.503406737475024,0.13722476725421337,-0.2261483422266408,-0.29947751571691533,-0.08493669303083747,0.1117891358637367,0.1464967296345894,-0.02716848772004782,-0.3668800886659942,-0.4910951618990076,-0.48294682784106097,-0.40349546062690567,-0.21868427405092009,0.09007048727210992,0.32708245087977156,0.31928818027785466,0.10101815042047854,-0.22400006268332054,-0.4780482600963857,-0.6059119825566718,-0.6484940238858847,-0.6393161122812812,-0.587656502249955,-0.5063449307104387,-0.4358108370301389,-0.4252381312556748,-0.4994647498641947,-0.642696063825026,-0.793963157128359,-0.8968215078767335,-0.9495529474290273,-0.9704084496931209,-0.9729534253318691,-0.9626148774801971,-0.9344977324008962,-0.8726988301680971,-0.7701432716301503,-0.6571026827232457,-0.549624855806562,-0.40012458482436625,-0.13067413004098152,0.19831854181081746,0.42347764356673695,0.5457379190193195,0.6296540916564837,0.689658882763875,0.7252484386779647,0.7206618327460322,0.6876077651601101,0.6638141106325108,0.6804673054377655,0.73448585407862,0.7907837455611585,0.8211183415898189,0.8255278277238837,0.8136851577236724,0.7911083975554878,0.7564485055154575,0.7055058470196653,0.6319976010736434,0.5250644346388276,0.37042802970012517,0.1641540467538936,-0.07194879419672028,-0.28887332650442044,-0.4517655503221353,-0.5595019326638868,-0.6071212400305378,-0.591839429330796,-0.49760126709038854,-0.3232403125694101,-0.14239243934505372,-0.02494540168412201,0.03778477472314431,0.06993244085495592,0.08893754716845224,0.1143898162397093,0.16590051480234874,0.24525639166378424,0.33514753662766195,0.41997262588208994,0.4910076262018612,0.5391491306439012,0.5665524503445245,0.5988684558033904,0.6583243974735541,0.7363000730659633,0.7929615127608158,0.7993799319057165,0.7506080914639489,0.6652459433350483,0.5721720376153504,0.49126877684669695,0.4250220786876419,0.36485262089837966,0.28627475287786575,0.15630757012433832,-0.01440433259815302,-0.11562700777504835,-0.1156173958222523,-0.05041945988958598,0.04045896681783474,0.11386065018427617,0.14230300460344564,0.12025434722243761,0.05492465087634087,-0.03759658487849945,-0.1366906705369811,-0.2070741336088291,-0.23091569297734416,-0.23614998619481126,-0.2783382251641002,-0.4007425504683886,-0.5688356323449097,-0.6926361888839156,-0.7422969237267482,-0.7372826873373154,-0.6866964139249407,-0.5802471675121902,-0.4205545706038781,-0.30969962537023094,-0.3507916690701336,-0.4877207734280248,-0.6011542134384052,-0.6411121062625194,-0.600700632149507,-0.4622178176365933,-0.19972353207251806,0.15368761162126282,0.46395532054482286,0.656765687518717,0.7757597361392046,0.860184036759876,0.9154296335681589,0.939326130365693,0.9385811855563367,0.9156221857423672,0.8556695961760443,0.6821261540085797,0.16377486405365133,-0.4341885125111089,-0.6301911769224293,-0.62679055173946,-0.5050095923574814,-0.2935007387611681,-0.10461996293740075,-0.1378205416603831,-0.5029514957271521,-0.8336668738582198,-0.9420765556409285,-0.9721867524393858,-0.9806417654406382,-0.9809840248853907,-0.9761699997647034,-0.9654206658316419,-0.9467098772858932,-0.920202643927883,-0.89333410453164,-0.8762390451202713,-0.8682868441527266,-0.8476206289163166,-0.7697441872280893,-0.6162453804854214,-0.4385381656133175,-0.28646489841266265,-0.13702239382851583,0.06768373990110699,0.324089480845002,0.5591760829057947,0.7312942647793415,0.8503824311277857,0.9169508230043278,0.9430388526647554,0.9429375606090883,0.9193277783539341,0.8702004846998412,0.8012254295827395,0.7337542611798865,0.6939489355413969,0.6967025681085187,0.7313056637248913,0.7729214937392349,0.808991667246704,0.8409567363302513,0.8693641536835148,0.8905564264422949,0.9028325390046484,0.9086884227449397,0.9118279519417164,0.9145011440308815,0.9137879904801487,0.9040408383027786,0.8742990370194718,0.807044760152583,0.6879208767990223,0.555375651248315,0.44864301690502045,0.3509669918063683,0.20442302638625745,-0.0338318559673743,-0.2947912833267524,-0.4674472493460489,-0.5452968716696875,-0.5703820247205585,-0.5689343733054377,-0.5296069038097685,-0.3927945334158381,-0.059727289723793306,0.33451722472775397,0.5748658490614449,0.7004593027121461,0.7670954726526161,0.7933755284431666,0.7723858283085263,0.6947152637749815,0.570523031207455,0.42262675968085656,0.2645008080614027,0.060893393369992,-0.24562342029019185,-0.6048500358121487,-0.8348768415631499,-0.9284285158872976,-0.9617686531270128,-0.9723524890192587,-0.9733019509207289,-0.9663691628127447,-0.9474275797601163,-0.910287327373764,-0.8499702947597827,-0.7611293244085625,-0.6453520641201517,-0.5267392997910343,-0.442096719386563,-0.4374101033141875,-0.5068810713936891,-0.5513457939682213,-0.42566522009914803,0.07155429851488683,0.5788521617822867,0.7789396795971993,0.8670635464478916,0.9184230679284593,0.9516016742170542,0.9693295900147925,0.9666360951895018,0.9425034896699477,0.9065249445365008,0.8728097635863632,0.8558823951135168,0.8605110557441418,0.8234100231249848,0.24125106632617505,-0.24308789625320873,-0.3955633063409101,-0.47031273490711956,-0.5262370970509701,-0.5746321725275297,-0.6085459610685073,-0.6054092649675715,-0.5032978156251797,-0.19960726415631747,0.20061294592458626,0.4491858825925095,0.5630652619097507,0.6011907574360313,0.5774585677241001,0.4928062153899395,0.3507858685055998,0.1449549481612962,-0.12519889895603872,-0.3908539961685075,-0.5697818423884603,-0.6489871129770053,-0.6475965651784366,-0.5416374595015961,-0.2571312801133114,0.19343788392483682,0.5461107654789392,0.7119301646861846,0.7826076768529172,0.813260016253587,0.8310529341319832,0.8529601104149077,0.8814157005250516,0.9055770449207057,0.9190643142533222,0.9220752906771094,0.9178925007567424,0.9091937895513044,0.8945533988872213,0.8618125906750553,0.7569158389777744,0.3458954322920703,-0.3613647197604832,-0.6112915682769374,-0.6510049553419914,-0.677605250528555,-0.740900396191424,-0.8166292609661485,-0.871455606509176,-0.89654706031492,-0.8885698521820483,-0.8216750474510184,-0.6142345172553998,-0.2597946718370744,-0.06199338472682275,-0.11506689748377238,-0.31900979378317507,-0.5317907438628565,-0.66884946913104,-0.738820960718809,-0.7711229295432178,-0.781873378685137,-0.7797299503845249,-0.7642649198786591,-0.7223816129702737,-0.6242296590295717,-0.4906165265267797,-0.4879689073612556,-0.6038392201099889,-0.6702305489384621,-0.6633669292805575,-0.5893265370354095,-0.4095338405774983,-0.14517769603220207,0.05315771654001186,0.09217601824348302,-0.006574505462695665,-0.20827285318302943,-0.4504667543296307,-0.6210363195443015,-0.6232399129508779,-0.20071187479338728,0.5612747930592557,0.8090563981716162,0.8738420014933422,0.8968915341572192,0.9071326856806178,0.9126752798239882,0.914559124609157,0.9068318694952225,0.8711875075114163,0.7335374470858314,0.07789635008970361,-0.7536890286284772,-0.918295506440067,-0.9517789177993407,-0.9584288643857893,-0.954980897019721,-0.9445095773789036,-0.9257891794920156,-0.891938240562507,-0.8246730969351348,-0.6777327662648629,-0.37947553550412433,0.021372319067507525,0.3652426802110913,0.6124638628571889,0.7771232237458942,0.8696256242175529,0.9110866596900222,0.9224155204322871,0.9237775909923507,0.929328640826483,0.946923092021711,0.9747702409544543,0.992745499629728,0.9070196226894182,0.5313604884377277,0.1777753721726,0.06319744772980675,0.042572264820877705,0.00919403382574205,-0.06413355757015987,-0.1225252655079728,-0.11993576323112427,-0.062111319943024754,0.009095552230780613,0.06036267666609918,0.07989096786596525,0.06995098243324205,0.017958974879084433,-0.07991849006530537,-0.21361663917696785,-0.3532426487458185,-0.4686066525362014,-0.531910353158124,-0.513623869658695,-0.4020408634998938,-0.22687234147308877,-0.07724468050105081,-0.003943889502624636,-0.0219284791426009,-0.10138478279779126,-0.1647449461175987,-0.18534036719268,-0.19102598367449394,-0.19959420378745651,-0.2118989052737323,-0.2249731284080867,-0.22766755279337414,-0.2086139672706319,-0.17732333638012457,-0.14932358887277364,-0.12710866427103726,-0.10263296369150199,-0.012932229348095611,0.1356491754374961,0.22535878710515272,0.2678249456085314,0.3001326277218386,0.34239476993733625,0.4141684252794827,0.5216581243520366,0.6513255741169603,0.7694154207799381,0.8521244403081207,0.8982799242788148,0.9122031276228136,0.876487569538204,0.7411091251822245,0.4490882570388113,0.049235468892373964,-0.3054822908092067,-0.5535457363329489,-0.7221201999168201,-0.8388323647299325,-0.9099344597899587,-0.9278083612987602,-0.9002631937753213,-0.8487955936793078,-0.7975088411288133,-0.7667977994928743,-0.766597749488404,-0.7952068984545116,-0.8330483506090658,-0.8620286048527377,-0.8760845459738155,-0.870907187871791,-0.8207063998959305,-0.5883319833615117,0.24443918074920817,0.750052883696741,0.8258710637642387,0.7357667965342316,0.44550742991819503,0.1216983570268336,0.014086330061917497,0.061582617445547376,0.155714336683658,0.25853333858192207,0.37693653515062253,0.5050892197080293,0.6260818689073502,0.7298344274902672,0.8013713269905155,0.8335224180194982,0.838584750720708,0.8328314295703811,0.8271867703800219,0.8179147172334417,0.7900873320106379,0.7245326283968643,0.6106457716750134,0.4419491300224731,0.20040186915082012,-0.12748217058618774,-0.49215918752695215,-0.7453655362177658,-0.8510987269821476,-0.8860556501266271,-0.8998715132888395,-0.9057749422674246,-0.9040116323527341,-0.8865506054233581,-0.8293373003567629,-0.6403840269290505,-0.06318095050837971,0.5473816982714851,0.7781785234837957,0.8769055336519508,0.9235680185687917,0.9211523894000364,0.9040562360690538,0.8884357903376346,0.8699444881990732,0.846563079116353,0.8243201172057515,0.8138478873594124,0.8194581368809948,0.8391237402646595,0.8692828378851349,0.8999458638146987,0.9190184860655312,0.9195777059139392,0.8936263547467637,0.7829624075858806,0.08417282854552527,-0.8239938806713188,-0.9375767301409748,-0.9506134430790699,-0.9450526280369468,-0.9330528572058256,-0.916999631276029,-0.8876047138948953,-0.7951417708057401,-0.32615927863205585,0.4155971636770495,0.6140590019140991,0.5834613158936488,0.36020576326413817,-0.12346376315148108,-0.5676952661877221,-0.7566886714922133,-0.8146440836311,-0.8185779095373121,-0.7952750442148481,-0.7518922421232056,-0.6833334053153093,-0.5708982983973289,-0.3861667818121818,-0.1370229162632741,0.13991974377491315,0.39816077509549563,0.597437123806201,0.7341090376318575,0.8256671634898036,0.8908385223516336,0.9371208802040732,0.9626563828390015,0.9675292444744041,0.9550527200399289,0.9244129551265274,0.8613780667070039,0.722504527453893,0.4570528138891702,0.12554390420986647,-0.14540603064101698,-0.3174706693774384,-0.39965977236842115,-0.42137476534285406,-0.4183081072544493,-0.41187654070795476,-0.41183967371431646,-0.4411381353395181,-0.5251644754909245,-0.6508889882820836,-0.7580123444792278,-0.8082491593191361,-0.8125484999392699,-0.7904829087929423,-0.7589809298424144,-0.7352687282010442,-0.7333836609491063,-0.7613685819366003,-0.8075736862955961,-0.8500101137717565,-0.8785604072689951,-0.8872359885068591,-0.8443412989825624,-0.4176244849797389,0.40942347865902085,0.6132956307185342,0.655790798645909,0.6613174532207539,0.6273922498631633,0.5278675403257626,0.37119566746481425,0.26777414085994433,0.30366105446851915,0.4395492290647524,0.5746763532056506,0.6430814214900243,0.6471987282879791,0.5954769933785071,0.4748086820865746,0.25735496136048147,-0.04381018085498508,-0.32214089768211107,-0.4763907119565095,-0.512884903474537,-0.4644804185439441,-0.32149886969340036,0.005051490768074094,0.5565369624045801,0.8502552335470911,0.8666645110940073,0.8144016631293585,0.7515109118846036,0.6887743977482149,0.6247066521758172,0.5616481741089784,0.5112031266188057,0.49617971859540694,0.5332265980662012,0.5942896613469972,0.6410345081679276,0.6577699389007085,0.6549865750176469,0.6473276208838603,0.6476605491663784,0.672773023684912,0.7269634056645038,0.8064141120233699,0.8732809227871673,0.7525878530994057,0.21605532393123844,-0.29926356437022406,-0.5607358309923854,-0.6757296128386098,-0.710205818863484,-0.6771769822926332,-0.5299879077312333,-0.1531229693656198,0.29433275596139663,0.38264303929155014,0.1367440586592602,-0.2588488558593268,-0.549209307730637,-0.7155353776317416,-0.812964370018692,-0.8654502753745043,-0.8792835509713571,-0.8472976355894647,-0.7318855918713364,-0.44734608519683083,0.02406892135974637,0.4547205628721135,0.7118496010888119,0.8353266415508899,0.8826218801256551,0.8917416542592906,0.8885509567057819,0.8913406555804062,0.9005727089058625,0.9087914874309808,0.9118202887532434,0.9064802409869211,0.8898760406793393,0.8390885136411445,0.589197589371551,-0.6624957667315292,-0.9720175239599775,-0.9939258303774259,-0.9933073686739854,-0.9855630406060543,-0.9692351050248347,-0.9392698812900058,-0.8862803589334743,-0.7893227517275976,-0.6024708018836858,-0.2719664749644803,0.16929305259885485,0.5258850704875823,0.7149839671124127,0.8003415896920228,0.8308989191343652,0.8230682409542605,0.7685857599989072,0.6412767091735653,0.42750871969490056,0.23737656925639394,0.22349799696423536,0.35038924843072616,0.47796351003167714,0.5346600441665837,0.5087959648684699,0.3699355701766478,0.07385926395719854,-0.2797342250141722,-0.5056072146033624,-0.5990626956681752,-0.6162640233116338,-0.5835339135906483,-0.4910047183804722,-0.2972260156941608,0.04891246446547801,0.4736722593234288,0.7051584525475955,0.7760426348480134,0.7945910370262783,0.7833514057729278,0.7266405309593219,0.5468993966585137,0.009777035957148458,-0.6474788141591583,-0.8719750943973417,-0.9282516493497651,-0.9430443054733593,-0.9446548832646423,-0.9405355794862511,-0.9332034101553655,-0.9204733483293596,-0.8977180197484285,-0.8602979967668172,-0.8065944339068182,-0.7471330463573066,-0.7018611363792979,-0.6831811159609203,-0.6890276867352791,-0.7122425040848294,-0.7440993304588043,-0.7699215559544391,-0.7682740294157867,-0.7084965643949463,-0.5157738835036678,-0.08766853871968479,0.37411732354202376,0.613668284292123,0.7130617851709087,0.7625505604724763,0.793665434124438,0.807065522393935,0.8059676829844984,0.8176779871237883,0.8578259178736022,0.9077490523517787,0.9449703261825021,0.9633714095106081,0.966125296180611,0.960422982349728,0.9565674739973421,0.9539087025906647,0.9054515222373052,0.7086669418622651,0.3821992717869008,0.08536450737294397,-0.14576929846651782,-0.3265548481544522,-0.47108507640418923,-0.5737801183434728,-0.6062385172374,-0.5990922226238956,-0.5836871623502021,-0.5667560082454088,-0.5475935539000104,-0.5147390325742961,-0.439663213193081,-0.27613239435982523,-0.010419002200117248,0.27972156098851303,0.5090477435868906,0.665944465582788,0.7677272631511458,0.829965302803902,0.8619127882278343,0.8641936250547276,0.8306214730138447,0.7303989348734972,0.3382063990690158,-0.5706071231617829,-0.7926025642797758,-0.8683361474886587,-0.9216376985215149,-0.957385798712669,-0.9764296457443465,-0.9838769268308556,-0.983865548787378,-0.978868519290076,-0.9679490377114747,-0.9441298496836108,-0.8880279895220509,-0.7376823783490248,-0.3468594017295901,0.22218519054966152,0.5777387199406421,0.7381268462534684,0.8203547676102613,0.8722394707309199,0.9086784424860754,0.9303000738635441,0.9422967495939102,0.9491470003950341,0.9532143795292234,0.9534910538913391,0.950678175081694,0.9448372021212815,0.9324834308186433,0.9091831817413412,0.8619601435230541,0.7299262117350809,0.2678137372701607,-0.4301066627303592,-0.6950403362291174,-0.7457476226937817,-0.6990857624444311,-0.5397488087291143,-0.2433254385401215,0.07813139346998475,0.31058620004615206,0.4730235951649205,0.5906599612275734,0.668996644395719,0.70262061419893,0.6963200905999791,0.6716005158921114,0.660647983801,0.6908778160387906,0.7515365283432385,0.8135207295517208,0.8538812761750421,0.8574964903246622,0.7948980461862036,0.5359435679158184,-0.10339909636059101,-0.6240221205522842,-0.8097771562636036,-0.8690646692001501,-0.8813086044983672,-0.8787020973132981,-0.8871320230981387,-0.9078833679096163,-0.9308349708853527,-0.9496760804246097,-0.9614859358342575,-0.961655622646769,-0.9394181178173346,-0.859310808532685,-0.5694125348606149,0.1234058814738172,0.58799170064809,0.7276936541707089,0.7438135271772484,0.7019122398366071,0.6318664716798447,0.5728108216305897,0.5351033652428159,0.4749242372222295,0.3537860078741429,0.04415652280068113,-0.5373275397035925,-0.8287238914475178,-0.8973241549593567,-0.9182504637942818,-0.929458691991306,-0.9401274341541045,-0.9497380248261874,-0.9548373119772957,-0.950380024161648,-0.9244630940183788,-0.843259525912748,-0.5818794119815021,0.09693065378444032,0.505358469154799,0.5739531974473535,0.5289744976335883,0.39141114878632827,0.10180754636767105,-0.36813683468494457,-0.6510969833829106,-0.6372346386145176,-0.42246983264812543,0.023366306453148588,0.4922572206857211,0.7313036151281711,0.8183612572879152,0.8286542008273938,0.758084799457093,0.4893991484423395,-0.0969223237990576,-0.5140499439337348,-0.6453652365306877,-0.6386526578570698,-0.5201989353013059,-0.28113902464446927,0.008418477977329619,0.22264455302585273,0.3332499036438098,0.3854173348922199,0.44912569999419427,0.5578853771418414,0.6872319511982339,0.7949011771002954,0.8689040190436255,0.9169540864154033,0.9475826177640445,0.9652813249834518,0.9738031016669789,0.9747343295931102,0.9636551105048627,0.898777066239878,0.04288753905082216,-0.8416747619081536,-0.8617921546557108,-0.6639201449281491,0.17900494620228524,0.8071028566616888,0.9321816328653455,0.9635899074405445,0.9745496015751741,0.9790724342771009,0.9807679120294357,0.9804872969235005,0.9784468338692164,0.9724419950183231,0.95637885557912,0.9167607097868303,0.8256383297241314,0.6416527703755751,0.34105287881308993,-0.03019398755676014,-0.351112404100671,-0.5374054572308459,-0.6232764951000228,-0.6696645566911659,-0.7203016001506699,-0.7982421640540868,-0.885669185189746,-0.9357219531144608,-0.9462767815705511,-0.9432435184783984,-0.939179905871035,-0.9354199477644193,-0.9302438264632689,-0.9200059112419052,-0.9000670101289621,-0.8626687582700746,-0.8074070446248228,-0.7622340483881596,-0.772693887007013,-0.8294481556043057,-0.876440871541543,-0.892328468906842,-0.8764769277169523,-0.7829700823733893,-0.377993956022625,0.24727503807325657,0.3369576529402149,0.004796980967262244,-0.396849644323375,-0.5707875090933301,-0.6065012723944447,-0.5355077271887551,-0.27145762408928775,0.35526308246216526,0.7651779266641292,0.8501733886051462,0.8465590038901046,0.7888377038368193,0.652061932159451,0.42865075062369656,0.19827523537298775,0.04804428613279913,-0.04163673832571722,-0.1272692477280362,-0.22439854914266152,-0.32728514564709565,-0.42289998296926157,-0.5198865623266746,-0.6232279853298842,-0.7136315821806579,-0.7761119751525327,-0.8104392368545361,-0.8212705291807527,-0.8082653333694985,-0.7644346215977599,-0.6644214318142387,-0.460061783403263,-0.16397350966482796,0.10132791928393439,0.29621125320840985,0.4506401239107503,0.5886466204746805,0.71216995219743,0.8110754837010214,0.875877977047428,0.9077185210425687,0.9090811807224466,0.8825807004665364,0.8330910900465408,0.7613635537471539,0.6398120732711466,0.396008780246623,-0.0025234408286498706,-0.35053335722924783,-0.5039184579958533,-0.5304835980188046,-0.5051583392441809,-0.4889834514152801,-0.5077625366980831,-0.5510293223337093,-0.5905222752026328,-0.612699167087631,-0.6115424980879416,-0.5812041593509176,-0.5270879661641494,-0.4515993309185261,-0.3631907796143456,-0.2720403119814361,-0.19575334057138039,-0.14658861582123978,-0.12594667321835365,-0.13612781824840364,-0.1413963899822297,-0.09982299293944455,-0.0002229455971696222,0.12227724654197826,0.22231659765441172,0.2833924270458733,0.311984896184699,0.33165986687137256,0.3634376543298116,0.39879365839408326,0.42589343766877974,0.43596183883709894,0.4112386995369116,0.27829536160247226,-0.05712468663176748,-0.276605273735514,-0.2858761686941885,-0.17451902474062544,0.0005822708201043604,0.14955984785415755,0.22562804907487513,0.26464575728701173,0.32060567502970716,0.42645655897430046,0.5437942220206899,0.5832257596021128,0.5229800617062016,0.40002474472567173,0.25009854775092055,0.06824128034755951,-0.10813839212550065,-0.19388554113514228,-0.23701879255695116,-0.2591844423975458,-0.2509535729727057,-0.1938935682844141,-0.06931493869777369,0.13568185222745077,0.4107885046035382,0.6739427090430804,0.833738463276522,0.9073647488518344,0.9378827514202263,0.9457809034902048,0.937963740979214,0.9177696686681551,0.890043515175315,0.860940013438825,0.8223782285645069,0.7250906781178355,0.393813372478,-0.28599981795007867,-0.6588974840827655,-0.7821247463288376,-0.8456236306115985,-0.8864034842397428,-0.9079015097092616,-0.9141393721808367,-0.9120978517760703,-0.9051597295805948,-0.8911507568830452,-0.8635337748686153,-0.8039078895357882,-0.6450151843890108,-0.16397803463211857,0.5479657418625115,0.8436878695505968,0.9341483157395795,0.9678449287508385,0.9810019287044561,0.9858133381020354,0.9880885512409178,0.9897351802052017,0.9885999100955952,0.9805799057587627,0.9567671127182226,0.8778596578150659,0.4894960631476193,-0.5254309755980581,-0.848595531294898,-0.8913557392645778,-0.8819786331183608,-0.8713508857270135,-0.8815343179116816,-0.9062139068265418,-0.9322679776139549,-0.9521866917779244,-0.9652753907175031,-0.9734688214062807,-0.9790472457227984,-0.9835771871514069,-0.9864859976723876,-0.977963258482327,-0.8924966079664103,-0.4594276116020746,0.05050558231246252,0.15653357047260627,0.04959413166436841,-0.14189235432513464,-0.31519822069992365,-0.4094468091856868,-0.424441191356174,-0.40314395042581397,-0.39100552935914806,-0.40270232471176043,-0.4100137964490982,-0.37326092790604604,-0.24868822037592928,0.01774378348262174,0.40490515421602447,0.7014728727221685,0.8293417090408354,0.8712276972619852,0.8841997686321239,0.887261128760564,0.8869348981622744,0.8889827733790392,0.8958599255611522,0.9053413518699268,0.9127605212091261,0.9166624928043718,0.9159681661169835,0.9108682722259903,0.9059666280449015,0.911330851017036,0.9293454757217272,0.9460317098919002,0.9444825743282813,0.892646429372061,0.6935926212978841,0.27732176386802126,-0.11942298758463273,-0.33025747843634673,-0.33986593279923744,-0.1188604219962112,0.1289052730073048,0.3046384289115082,0.4057769802531916,0.4267867085709452,0.34020149758498697,0.0867350191522242,-0.25054872083492435,-0.41699051340203097,-0.3464287975463114,-0.02404372653496993,0.4123775453594195,0.6785151658433145,0.7987656911562397,0.8589822202874035,0.8942221132425039,0.9149670682799224,0.924423019343902,0.9229689742048658,0.9062428424419843,0.8451977232329396,0.6241995981655295,0.19949187130527538,-0.015069964081232148,0.10210662482848558,0.4709846449922002,0.7850985437419546,0.9113486397203948,0.9479571044308276,0.9460904942824191,0.8971801416430207,0.5943863300616914,-0.5591924183759542,-0.8756232422514455,-0.9015541782080428,-0.8805270911817443,-0.8527862403245936,-0.8391148007816119,-0.8435634765056416,-0.8531091217577786,-0.8557433524237618,-0.854085378841209,-0.8569614194143846,-0.8644858064846712,-0.8672307974103369,-0.8583328262661467,-0.8348012998468551,-0.8056583909645533,-0.7987248352076933,-0.8352582678588775,-0.8934330704160452,-0.9361940065748664,-0.9574120518914453,-0.9647855833543117,-0.9623971766417223,-0.9452914085272371,-0.9034598178288025,-0.8367345655735794,-0.7593392036514364,-0.6776980887807538,-0.5692648729218364,-0.36638857223869126,-0.03204566865410649,0.22279097897859151,0.30133539193527104,0.27901889413110437,0.21881109617110092,0.16569113915378186,0.1683859549598121,0.27176638017930116,0.4717025951877684,0.6609903943450444,0.7650088534492305,0.8018139763186648,0.7924945752559469,0.7602799744043641,0.762838854392758,0.8320330543735573,0.9064612656400578,0.9518698480044554,0.9712281951221745,0.9769745171561665,0.9774622404804326,0.9765559735670902,0.974298140934874,0.9689164159526489,0.9620779082593341,0.9582576399865401,0.9586429183206326,0.9600148238416496,0.960933438442873,0.9597599249395927,0.9541533590392787,0.933508111661418,0.873148039061581,0.7244500427913557,0.49204919112967266,0.2723773270160763,0.11054910080102921,0.014303406730999732,-0.009615172985662196,0.021336312797754563,0.08464207180633429,0.1520624585120803,0.2058233434134656,0.23350266326184393,0.22733174633688782,0.1837261801814223,0.07767885184822279,-0.11600399470963817,-0.4077425710812484,-0.7363129836259179,-0.9070578541913304,-0.9340591683341601,-0.9285250845921562,-0.9166854931469565,-0.892533760700559,-0.8522634285415998,-0.7958342958624867,-0.7319093130358826,-0.6833132840248798,-0.6649233038114086,-0.664612353830307,-0.6553260116990882,-0.618699105569272,-0.547122325077977,-0.4997235076592966,-0.5307427244121304,-0.6142538823406695,-0.6997203413682614,-0.7607436554465723,-0.7936497716445776,-0.7920357923710659,-0.7382624073676467,-0.5886884504491542,-0.310792542333357,-0.01929298119511896,0.11058844727006162,0.053625266945871004,-0.12016028199190687,-0.29534923593568413,-0.37073487486692175,-0.27655238495944257,0.10315280950572162,0.5903958131780743,0.8199375808660225,0.889584794072234,0.9009621909228883,0.8752421890695111,0.8110465097489883,0.7273920890236846,0.6745472971716451,0.6681608599261736,0.6472444535691307,0.509741177335405,0.03212656539480146,-0.633179962655989,-0.8779122205687594,-0.9307474973139005,-0.9213414602290698,-0.833561772978689,-0.5765005325137288,-0.21684963915932634,-0.04951037656406371,-0.1112402981592465,-0.3000531598289473,-0.4397507678183779,-0.36107780197596956,0.07462619288078863,0.564667440140449,0.7674624186461523,0.8318017524623634,0.8467407728314413,0.8349660963534461,0.8020547296400681,0.7297838461439751,0.5193897432282651,-0.18511566473514657,-0.7640800783521725,-0.8976564828371957,-0.9454173135045743,-0.9665424308733614,-0.9408538991704756,-0.7963148947261921,-0.4598494017634311,-0.05398489575412118,0.20280372032069033,0.24162213607594135,0.12974501603204824,-0.03779315172029499,-0.19843177502156678,-0.31713573589481775,-0.3713168434105832,-0.3508680157761206,-0.23199094243428983,0.05865674956462105,0.525966614721112,0.8375576283599353,0.862239384010143,0.7560038210773514,0.6332857600631455,0.5569836479206127,0.5433312966641745,0.5801148459343959,0.6302187889819466,0.6768993320312391,0.715510089155033,0.7400247703048192,0.7445498957085637,0.7304266821413578,0.7066521700360596,0.6880826552860492,0.6937202287384074,0.7288641402578588,0.7748537847874101,0.8021632810831336,0.8106504957284937,0.8150996970130239,0.8175914998770618,0.8125038410522787,0.8006622439516436,0.7795875732925759,0.7545418288401885,0.7521962095058523,0.7821473682598978,0.8195095277407558,0.8379707593783552,0.8258673026658453,0.7716220262404971,0.6478801321182279,0.43655668614795634,0.1771058092645361,-0.06657846330026233,-0.2861575596990944,-0.49664895698756584,-0.6862246014936236,-0.7945701534379777,-0.7642659699348429,-0.657645322826252,-0.5352013188526918,-0.3999448595223765,-0.24393810498556712,-0.07440565990200323,0.07961629598552361,0.14029326989783358,-0.09864428797578333,-0.4816960323567335,-0.6290163951983299,-0.6963355468704772,-0.7420772842325521,-0.7842582874876366,-0.8261080429490938,-0.847130271687018,-0.765094877647219,-0.5061156367351302,-0.19935306306788791,0.05817651221753498,0.28275750890638085,0.48969832388532053,0.6548645096457673,0.74896012000666,0.7559229157138057,0.6388505265944041,0.2007835142202,-0.5673101667668675,-0.8706282987969727,-0.9417212353065557,-0.9603914926241801,-0.9631396129058215,-0.9582859673893519,-0.948780102697656,-0.9423057732379442,-0.947844650146405,-0.9613352227022928,-0.9738241764447407,-0.9813322047683789,-0.9801294193358261,-0.9507583360917332,-0.7664859373144493,0.01886371227155004,0.5853248941964515,0.72272749799983,0.7444041393977621,0.7273691626970253,0.7020063604999299,0.6883856156986657,0.6876202186110384,0.6918581681468563,0.6687463006755865,0.5466132065479159,0.21304028630557637,-0.20949873615074086,-0.45239314724940166,-0.5455835294878728,-0.566076035368629,-0.5451132901978554,-0.4860888674739726,-0.38144877440508507,-0.21083314471827447,0.04624403340385368,0.32565316503142394,0.5275536903389157,0.6337437272895695,0.6688243573318479,0.6590615982526168,0.6451817252379266,0.6973550446299753,0.8284260787731252,0.9270690839289817,0.9624211266474259,0.9704164797918198,0.9683762689619213,0.9620643874384589,0.9534339691814054,0.9416595535757815,0.9260247776109648,0.9034200388008514,0.867353566646027,0.812323667768934,0.7345622666819608,0.5971574800797922,0.18847828103177036,-0.6228307958798204,-0.861882798322624,-0.8856895492017135,-0.8737134983863178,-0.8479281732147462,-0.8151860541023886,-0.7951289100334016,-0.8059678017899361,-0.8427841378220937,-0.882507635455639,-0.9111189936050694,-0.9256517651117152,-0.9237372445440025,-0.8859862379085567,-0.7439152541839799,-0.3540312606859894,0.2554969470600079,0.6451034062093417,0.8006703739623977,0.8612681239361272,0.8824359574355392,0.8797622736421249,0.8487779964074635,0.7753170944616892,0.6591320803560051,0.5183831643226797,0.3534181953862138,0.12786159417759124,-0.1685241373566344,-0.4628889759590855,-0.6533739995667124,-0.6593701191941244,-0.4010784969070486,0.03770274307372421,0.3829447168339356,0.5323367384010351,0.5340785920998065,0.4074805322556986,0.1394351242970025,-0.1920153593612019,-0.43644995205951514,-0.5349102116788209,-0.46098451835153936,-0.13806677954928764,0.2585295651214245,0.44822425360837376,0.4693663673524091,0.3497949731196653,0.017805272635942608,-0.4534633742824085,-0.7208918647617126,-0.8085134731686903,-0.8304715468449555,-0.8266210244995257,-0.8108687818413894,-0.776896579607294,-0.7211076438817426,-0.6409839344830339,-0.4984148708703909,-0.18143354028636402,0.30800651206572954,0.6335712370813154,0.7662814150270986,0.8139255786959327,0.8182252170116963,0.7916563507707836,0.7358775469609861,0.6380220228887354,0.4397792470472307,-0.04354975929357062,-0.69289871885356,-0.8974811147465266,-0.9285064639418389,-0.926093549502508,-0.910931502077976,-0.8811603364308167,-0.8273043175408227,-0.7366215971840183,-0.5992785672646286,-0.44384481862358555,-0.4103094543625703,-0.622520552839229,-0.7199986542710666,-0.7769039450050882,-0.8249541926172146,-0.8573953015007584,-0.8699288992382568,-0.8436125000458506,-0.6687357158483335,0.08842061596618019,0.7175888028158778,0.8668304951219302,0.9086761678437322,0.9196765601857987,0.9130006961618548,0.8764263192578517,0.5814128620647382,-0.20593835823670564,-0.3809958158238615,-0.33955126277158687,-0.18194322500431684,0.15131040690395714,0.4640449677055111,0.4693344101256772,0.3627586694519043,0.21847563490059463,0.0826047476751632,0.029362223057592236,0.12318524795776147,0.3550708444796529,0.6144066816957423,0.7792738642403957,0.8590233433835557,0.8970894866972953,0.9177245032666901,0.9314749849332457,0.9409482157105671,0.9441792861445051,0.9382130571322789,0.9199244881209377,0.8849541553683422,0.8153362427273053,0.6424503977399909,0.14829951437332667,-0.5142490787185163,-0.7807901098689115,-0.8381036203714947,-0.8145115813774866,-0.7364356191554261,-0.6134472526942731,-0.4803704964243914,-0.3803929646612644,-0.3145525201777852,-0.24856301954702129,-0.14747492125113604,0.010471425847107562,0.199987655586411,0.36841476520905725,0.4898813069237672,0.5655398254517177,0.593017676867295,0.5571935867149307,0.4305899923049028,0.1572303456535184,-0.27235869944078595,-0.6329060880406133,-0.785688949434422,-0.8001945575540691,-0.6994646147344248,-0.3569897498013526,0.21838403842921014,0.5823421509067389,0.7412078845289638,0.8204049587154507,0.8668978879294023,0.8940820495661134,0.9074117424966968,0.9071592481271684,0.8736685539752377,0.6809948446697602,-0.24068872389601126,-0.7811058446619195,-0.8840414547165586,-0.9159794479506808,-0.9322875168249339,-0.9427638296959067,-0.9442669878632498,-0.9328781918980337,-0.9044783727690541,-0.8613687760726316,-0.8107774009909495,-0.7552706582008601,-0.6974218706402622,-0.6327764091813783,-0.5523864401923878,-0.4614258500110064,-0.3694658696169896,-0.2827361924085462,-0.19600506736777132,-0.09954853052354239,0.020489481731413444,0.16176724698507244,0.3099243796138248,0.43932449467154633,0.5330060790335225,0.5883628968734869,0.629033800251871,0.6739578587902711,0.7033544190269441,0.7032113724783691,0.680964050445614,0.6379263711365244,0.5622542141098149,0.4359075640631752,0.2484407194184224,0.009580012002370688,-0.25274224548104485,-0.4893393832769826,-0.6458681240971847,-0.714610861305425,-0.7180964647246955,-0.6615608530867947,-0.45880793612915827,0.22885443889367535,0.7699810501452586,0.8965770562140433,0.9305994712686133,0.937655401232366,0.9279222748152183,0.8966299711513478,0.8266355607229385,0.6761158641087757,0.3441595275470545,-0.1898069603857481,-0.5836865916556878,-0.7424322714228334,-0.7857034991772486,-0.7656299091797444,-0.6924700630919982,-0.56287719007776,-0.40080104089197444,-0.3050325782656985,-0.4167199895721995,-0.6603938015550023,-0.8114960719707962,-0.8660566170970488,-0.8760680304156949,-0.8606165297853852,-0.8234907259817184,-0.7635471735127383,-0.6830921447372198,-0.6020106766509248,-0.5626615147510958,-0.5759115460811259,-0.5966243387834246,-0.5760437552579113,-0.4927138206133925,-0.3475482293133176,-0.19399665130608346,-0.08324467161040945,-0.009326229803175205,0.06932842050577076,0.18901069684006613,0.33892644982401315,0.4765429707514349,0.5647775561122552,0.5982350825831295,0.5992996328629582,0.6088690695659204,0.6483451636850163,0.6994507096013899,0.7326205598754398,0.7338314740446458,0.7083427420112443,0.6632748379629927,0.601621557468144,0.5320681100945138,0.466186818477734,0.42779467941155797,0.4322764391245083,0.4778946565635982,0.5419121349123903,0.603086881990077,0.6403996326026256,0.6411610543671227,0.6352578587701659,0.6739720495795783,0.758191048698136,0.8449903744116792,0.9033041445757227,0.9310799415353989,0.9370076008643379,0.9290345088431352,0.9136138100306819,0.8956089548781809,0.8799382648897832,0.8730101059747752,0.8790628891027966,0.8419534735525828,0.6739066074863053,0.6109266646122319,0.6406734525479101,0.6753397335480261,0.6857086039393332,0.6524444049905541,0.5517111160981756,0.3815479668089946,0.2489664508439787,0.30255608060966466,0.5181180528469838,0.7140692607297594,0.8287553071112146,0.8884762568355433,0.9183528807728797,0.9299026114291586,0.9261747968144532,0.9030486010704275,0.846326503993388,0.6799083679305467,0.1474661298167495,-0.5165955727424165,-0.7794185586760035,-0.8817914637983634,-0.9306420741025448,-0.9529748423280388,-0.9644794235053719,-0.9761097616324558,-0.9867139475340894,-0.9903330915495332,-0.9845062417411101,-0.972156438312291,-0.9569653963260941,-0.9393675148039302,-0.9131000974953903,-0.8618180263710419,-0.73796563705544,-0.4287444934534918,0.06894969747433022,0.41330461645017774,0.5444789675074733,0.5810528897561793,0.5892751142916456,0.5892132349331342,0.5442370935237784,0.44132991466689997
