0.8998260016435274,0.9104402789226207,0.9076212901115958,0.8900394404130711,0.8476682519457919,0.7683956172276464,0.6435657774495014,0.490036741804064,0.33661683551619587,0.19507118249509423,0.07009861639459401,-0.014855212359693067,0.012528746977276817,0.24300855968005242,0.5348522599699665,0.6976599968041494,0.7713358221186329,0.8018655476848122,0.8042559564504552,0.7787087758200361,0.7204364637241872,0.6306547337837557,0.535627039666063,0.4843195761664445,0.49836159489671095,0.5383000490499114,0.5397909343109631,0.4468287884887641,0.20567252473802344,-0.16321593997122522,-0.47015984944556777,-0.5969895378642973,-0.5610799107039044,-0.3963243786313521,-0.16484523671632348,0.0910615800568315,0.3554692840927804,0.5825851702060215,0.740782234180586,0.841124179131902,0.8851236550545557,0.8319165030854222,0.529848177035418,-0.24693997291227346,-0.7630002845305309,-0.9010365350241888,-0.9380989453462791,-0.9448684758530734,-0.9356411071948827,-0.9101404947010983,-0.8457440052174846,-0.6312361628974315,0.061583718646599256,0.6816154769019384,0.8588206917907962,0.9117409523305549,0.9285580342892839,0.9248205097464168,0.888028312719646,0.7055327125777042,-0.279753885293688,-0.8673588627789027,-0.9531621425474345,-0.9735477284189307,-0.9767551815060511,-0.9652717458756431,-0.9226018541439566,-0.8175706796417754,-0.6875509055089333,-0.6691158931590443,-0.7571335171772887,-0.8199209891077761,-0.805492666604657,-0.6632091817073409,-0.09207830488067013,0.6873711502817568,0.9057031820442543,0.9599804667418245,0.9782667542864745,0.9851871475896317,0.9870728872685789,0.9845478432968009,0.9729067409186153,0.949390249860187,0.9214409080072421,0.8789648798620034,0.7179609453204048,-0.3690055573747686,-0.9335151484707608,-0.9795242347830196,-0.9843727049148329,-0.9752467772664581,-0.9414416078731195,-0.8539282521049426,-0.6901512716178199,-0.46979941280499343,-0.21068345480769432,0.11231325457685461,0.39442584606442604,0.5091506103595024,0.5371594512156825,0.5611250257131385,0.6078718376100954,0.6801613874945862,0.754688286398159,0.8013989865596041,0.8181843444923843,0.8193520745115823,0.8122500955655418,0.7956815638505149,0.7629358149764116,0.7008270462273626,0.5812694967118085,0.3454935887782907,-0.06769705910633961,-0.5006065759211015,-0.7212477937484496,-0.7849123402842682,-0.7578444764629436,-0.6263203857339223,-0.26306039643865753,0.43624866192873357,0.859860124869824,0.918260329456472,0.5872132658707853,-0.4920125456783672,-0.8202697947635644,-0.886593627929644,-0.8942601518572869,-0.8630746034497,-0.7446888470000065,-0.26901090039535164,0.6271284948928224,0.913330213210013,0.9511077920742558,0.8993493514239458,0.7555646488629495,0.5318369679333537,0.2911823261007406,0.08838341458347476,-0.06592366333230529,-0.18381771592849824,-0.29650912374333993,-0.43961427923340185,-0.6031246270708869,-0.7161241837638603,-0.754685457917968,-0.7397476234940327,-0.6848120687121193,-0.594563856167395,-0.4813271884196122,-0.3701094804867269,-0.27003206923009226,-0.17361832819139625,-0.04411747909517039,0.11449592905714313,0.20859467855019745,0.2642151608462008,0.3428556055337575,0.4537584673844542,0.5699128022927368,0.6566189942550971,0.6902447204792583,0.5964083604502944,0.11101788368372412,-0.5463870690153898,-0.7965786109606842,-0.8925321358843075,-0.936663918853078,-0.9534263358953577,-0.9565420550413761,-0.954094964963303,-0.9467299772007469,-0.9318745507633909,-0.9059009984195134,-0.8603709027910024,-0.7688596517138053,-0.6107059522785667,-0.5290632786782873,-0.665541123575073,-0.8134277631142699,-0.860590165189733,-0.8111444175455725,-0.5484412065661005,0.17070608665078307,0.6800895235627039,0.8300485754265967,0.8736837283215786,0.8900471888557464,0.9040102626886349,0.925466639953734,0.9525868229508303,0.9739030234957051,0.9836521973101605,0.983931344534003,0.977727060896417,0.9645397611248294,0.9379186482826616,0.883821954437324,0.7745013362601214,0.5545843503417314,0.17360429717510237,-0.2669840189363008,-0.581021840200533,-0.7484735517416606,-0.8358854044881451,-0.8830233684033402,-0.9021893431312888,-0.9018618852428755,-0.8807028492778962,-0.8157461857776672,-0.639520573110586,-0.2671850573761632,0.14949782108307483,0.38972684459752005,0.4835024961365998,0.4894284889280073,0.38667543499112184,0.03938069994694244,-0.36754153215763785,-0.5255632624659339,-0.5500183665217487,-0.5250210016084451,-0.48910034098151106,-0.4603983294545351,-0.4375037337346201,-0.4052381997581022,-0.3443705847826473,-0.22682819590521827,-0.012440545237226961,0.3012124135992541,0.6016722178385043,0.7793305010147927,0.8572172658984104,0.8869952434096873,0.8959363557361189,0.8935914286278652,0.8791605138596186,0.8397953151991242,0.7271596286490468,0.3600547879936042,-0.31107495985886807,-0.6478668542255641,-0.7335148850949734,-0.7534257935771633,-0.7861321076268679,-0.7942257081081837,-0.6420152666000679,-0.3490147007706691,-0.12622197392014647,-0.0677488486755192,-0.17572567351473672,-0.4426549387018559,-0.7176542424221156,-0.8679759481917255,-0.9315389978259306,-0.9588195120775017,-0.9711183961665691,-0.9741962490655744,-0.9609728326375186,-0.8524149632405313,-0.09148181280410717,0.5748095351287694,0.7052438340953808,0.7225038219163898,0.7112674644270695,0.6977214336854602,0.6919728052542071,0.6925329253032534,0.6850643834101416,0.6557313654352553,0.6123205844419753,0.5791408314940698,0.584449933038583,0.639179728944986,0.7258374559844666,0.8106831958525005,0.8728857915261539,0.9142443092465483,0.9404637347804711,0.9559505578240955,0.9634887773201354,0.9622590523760428,0.9459049215892295,0.8871465476967048,0.698006413106641,0.31585335928628705,0.032896658108554716,0.04774519948358753,0.28488529407576896,0.523393757782409,0.6340470400544594,0.6673671928641872,0.6653403613576141,0.6355099368838623,0.5768053550788367,0.46856384913339844,0.2834288741051232,0.03234509580324164,-0.22167454708992873,-0.4435589359955996,-0.5451887711749055,-0.5117791667087366,-0.45320125215277707,-0.40725305049916377,-0.37026397304354924,-0.3196341401587807,-0.18769083189540636,0.06949004241205692,0.23676434535893293,0.22321694878024004,0.10115005027466746,-0.06764824142199184,-0.21106894166388973,-0.28742924631456773,-0.3014519242192508,-0.26715891421077564,-0.2009465751517411,-0.11494955409335468,-0.02279737225721158,0.04661938972664927,0.05227713013447872,-0.00383754225544995,-0.08425261377072904,-0.16478473443230324,-0.2370364705257525,-0.2873801796300771,-0.29305044430687355,-0.23121832610510734,-0.08033006362450103,0.15813224251656322,0.40089802992184675,0.5402600431222236,0.5604808127012553,0.4826069645149536,0.31540096124846345,0.11892437323474034,-0.00951416031967951,-0.017684227563547046,0.051089900079456525,0.10122517274369194,0.10860109409313451,0.0811962756027759,0.03974692916558343,-0.01610419736491818,-0.10280783159445424,-0.22028830742900712,-0.3513975112210513,-0.4633575016985447,-0.540203278442847,-0.5853600983616125,-0.6035209973768652,-0.6043406930975037,-0.6065365311831803,-0.6175862825998938,-0.6373641773867336,-0.6624304653651362,-0.6864309906756727,-0.6979077813288924,-0.6703127667219587,-0.5420509952081434,-0.15264544894014076,0.4482088479391409,0.7609947467968423,0.8595547895536261,0.8824030620242257,0.8655095717626569,0.7947717154249965,0.5462143789066445,-0.2876200824393346,-0.8264339907640336,-0.9224117476254665,-0.9330639024036056,-0.9032759774024535,-0.7945902674326398,-0.46732050317374446,0.18180886199800822,0.6688758357301151,0.8567038794277506,0.9235237589941081,0.944575027555296,0.9337323527137419,0.7825362444594265,-0.49426766070878825,-0.8883120749847719,-0.9314633507958497,-0.9310619822422159,-0.9026314702115348,-0.8078035715636397,-0.5164606512867047,-0.05140025252086666,0.16135080350305805,0.13579713720609354,0.05792360514506394,0.010141894281219963,-0.10347553235122281,-0.36499013686806103,-0.6515152828777354,-0.8221527772793833,-0.9025742768981657,-0.94145581069537,-0.9547609654346995,-0.8803661717546345,0.014161532560505527,0.7394946916896844,0.8586328019118964,0.8841369064868221,0.8783581775983127,0.8499324832044771,0.7965216360657645,0.7124967608652961,0.5983987380752442,0.47549297569680377,0.40013359960446254,0.4076736961857306,0.4135186939373922,0.11510827229743326,-0.7835043374894008,-0.9670344934888834,-0.9676011071777263,-0.9478544061871838,-0.911105910645988,-0.8488796260783404,-0.765519966821163,-0.697295315926705,-0.6780217782950494,-0.6953391260622835,-0.7115619265615563,-0.6984559021721402,-0.6190391758640594,-0.3944286538908708,0.023469601782244966,0.4276801220542794,0.6679175671543346,0.7896280972999249,0.8487167055058756,0.8756443925557647,0.8840599913603235,0.8768394217498675,0.849433395062703,0.7865962279721276,0.6393349772326227,0.2492962437090236,-0.3448052780580204,-0.5940101893694612,-0.5975717383501805,-0.4580979848263987,-0.13428195776445506,0.34726655895169295,0.7135232154531106,0.8744243518675722,0.9348293487009174,0.9553161830864487,0.9558499250058381,0.9319673091809608,0.8456448616121767,0.6081631153318591,0.30579058876129644,0.287386344393046,0.5625506653175656,0.8012944250937909,0.8919931034424317,0.9180448890210263,0.9200903810464678,0.9102075500981898,0.8918784724549776,0.8636038282059436,0.8205080623608022,0.7325530970065879,0.4352642770834002,-0.3960340422953847,-0.8322923130177267,-0.9267678712553578,-0.9523097268970477,-0.957511303584605,-0.9525770503110402,-0.940293536935238,-0.9213273130486789,-0.8951745971503878,-0.8593416265783431,-0.8080188768286168,-0.7299666032055169,-0.6241575606495534,-0.5078646530277393,-0.38998330823770516,-0.2542961630270318,-0.05876636148620694,0.22557428397759613,0.4919672270043256,0.5749121777650414,0.4762751165182077,0.19347097005901334,-0.1655479112044518,-0.3906482293315662,-0.48305063508907803,-0.5016010818652605,-0.4733682930239342,-0.40545636701165827,-0.29782097655220535,-0.11228613860768408,0.3111913292064198,0.7063279639990968,0.8237115417068105,0.8404233911375731,0.8117571025837065,0.7363693136398896,0.6029180010819433,0.472164164484045,0.49286054523069184,0.6658973502491116,0.8087906597483804,0.8723985587748447,0.8922817905757973,0.8863057044334535,0.8539754215286094,0.7651252420017268,0.46761373926688693,-0.1813841146251739,-0.5331693085801582,-0.643056759777294,-0.7037299436854528,-0.7786900845139763,-0.864613201687549,-0.9255039012104526,-0.9546713304600889,-0.9656671845468059,-0.9672177453588711,-0.9599287616855671,-0.9354985134546717,-0.8628461220524578,-0.6689496923380085,-0.37216883562571274,-0.17591251561502183,-0.09426869958812155,0.0024071579904937873,0.23554852706109633,0.545334850473272,0.7500569882323058,0.8390046162796838,0.864580163922377,0.8419565610830767,0.7421000939224616,0.5047515098858852,0.20488200773443793,0.07322718957390979,0.1250597268303743,0.20815436460387693,0.21758527201455208,0.12423508564051271,-0.03505568542954513,-0.1815322046738366,-0.25453591133516745,-0.2283878704500689,-0.06767048545471051,0.23650385214709194,0.5494357735486486,0.7347313040216765,0.8083710374778041,0.8078870208674502,0.688278830380496,0.13144637587284527,-0.6626131768957606,-0.8801295708561613,-0.9308247094145251,-0.936434171115032,-0.8793104308549754,0.16389831058300913,0.9630264436364273,0.9863385760540961,0.9661161659432985,0.9154113516837908,0.8448821136801874,0.7842827770876992,0.7717479944483215,0.8203589229045734,0.89096132996607,0.9379073743547811,0.9575486693675228,0.9623567686597524,0.9580395616003948,0.9417357859097254,0.9012411869726432,0.8088050194691158,0.6252114232019391,0.38193724156283715,0.19869691864825698,0.10356545685673481,0.057191761506115615,0.04573740957184976,0.0625238429051745,0.0974576037972927,0.1403406762237355,0.17727547719201472,0.14711968480196255,-0.059763404478976184,-0.4536414465634123,-0.7369729240108635,-0.8496337325498576,-0.8893979181841412,-0.89975909381507,-0.8927511156409367,-0.8687370476800843,-0.819655144873836,-0.7298955239647584,-0.596150398842598,-0.4457698645032411,-0.33159579885246426,-0.283054817197556,-0.2648850073279906,-0.24568480149881092,-0.18839604528840062,-0.049109274058257796,0.1403359396637978,0.2683269703603914,0.2930938052841194,0.26767467863658767,0.25993822862498067,0.3028380557589372,0.379306785659566,0.4371677452161378,0.44033109993604613,0.3663419829719372,0.22276931385513044,0.06536840665019289,-0.0368740144523743,-0.07228608396598417,-0.06849628049382978,-0.07194319890473033,-0.11956818200472423,-0.20477164526940553,-0.27803385443343015,-0.2901673085216425,-0.23011959002102567,-0.11414019047516269,0.020419313272299525,0.13584580034176938,0.20015805921822472,0.19499792744353628,0.10512157324339731,-0.0757042613496584,-0.2871833977549203,-0.46827133953216094,-0.6294902334805285,-0.7531695008188625,-0.7999542077696028,-0.8054600670804325,-0.8013444888938134,-0.7873337241703579,-0.7561427342554409,-0.7000982951954289,-0.6001317741828308,-0.40116873025848176,-0.00660166938223392,0.48068655932260623,0.750307780774784,0.8301968154293611,0.7808260763440652,0.18859586285782412,-0.807029468183569,-0.9319719801804907,-0.946928865522644,-0.9241949755745956,-0.6969168930494151,0.6791660300546227,0.9237004644523199,0.9554283865838687,0.961858573829223,0.9575294857854958,0.9380483212242356,0.8740265847348694,0.6264531607510818,-0.14755227346915079,-0.7086358681830862,-0.8695409865902775,-0.9255661066661419,-0.9509831691682077,-0.9644746187826895,-0.9703589980339654,-0.9684537704976298,-0.9536507646569014,-0.9105192757678756,-0.8028425812465094,-0.5841159495416501,-0.3302784575668662,-0.33597893847499566,-0.6613695749863252,-0.8878503677005058,-0.9596013122447536,-0.9824069430299848,-0.9899778274452551,-0.9853742799721933,-0.4869524611011183,0.9476833811160998,0.9737076212861662,0.9751460697215776,0.9696447334720445,0.9568311836479236,0.9287993419506267,0.8694247597843967,0.774486994553046,0.7030879918795879,0.7111523148332304,0.7630118185426729,0.8105887927755855,0.8386281857528285,0.8505723288358238,0.8532379441182532,0.8532913088964859,0.8523915154647347,0.8428045909260116,0.7962163929556129,0.6928412858041368,0.5654759676974829,0.46596418558699154,0.40858100061361263,0.37960782566448,0.3602427848864353,0.345542443267057,0.36378030210100837,0.44587230216196266,0.5469328719414334,0.5815192251636866,0.5367464407769998,0.4106946169991563,0.19581636264664215,-0.08482630255334543,-0.3511019203000815,-0.5289469321574432,-0.6376460151478786,-0.7206999051681015,-0.7954845546586808,-0.851397403853016,-0.8841161767834829,-0.8988306553106649,-0.8956860768062691,-0.8631228366442666,-0.7315709896148963,-0.2867062183654713,0.05809057602313689,-0.13699643770870418,-0.43675858846378907,-0.5735663801082563,-0.5914801354045546,-0.5359098221588817,-0.4271510514319341,-0.26727625493824814,-0.0388482468039935,0.22974698920470893,0.4445360271734153,0.5745626112548201,0.6438175028698891,0.6729502603255996,0.658464112406246,0.5832251547720282,0.43075578832779693,0.21441337629645774,-0.018624760242842885,-0.23063422511138443,-0.4116051097483138,-0.5512733929350702,-0.6466973827015118,-0.6972955172366034,-0.7036445418349897,-0.652715875812119,-0.4857561992000144,-0.07208934280369719,0.42003163617584943,0.6650801362337443,0.7615787586641177,0.7777784882773728,0.6146965846501629,-0.6790067999203516,-0.9223019904624138,-0.914984626510683,-0.8591498552838875,-0.7333095980387117,-0.4992068204839925,-0.1873662621646443,0.06220815856344835,0.12858637975718867,-0.04190561346852017,-0.3951577568979313,-0.6504332393483309,-0.7373031998364511,-0.7151676399584302,-0.5617783366021722,-0.1453034476962981,0.45167615463860966,0.7710266585813221,0.877121481298054,0.9079208337309194,0.9051175102658214,0.8617910014595025,0.7023563394567117,0.2162023740778494,-0.3386248381267361,-0.5535938733322124,-0.589285150512867,-0.5284619019669055,-0.3554026750748516,-0.01640526992901763,0.40018084747489735,0.6657147036180443,0.7673659038974715,0.7707603505408422,0.6650059984297908,0.3420154447633957,-0.09391760696432135,-0.26497387591200966,-0.21395365425930213,-0.04884345018023793,0.15496083589105136,0.3466319828644973,0.4991025743368874,0.5885166878962067,0.553550299510305,0.0252551105940911,-0.656698046402239,-0.8253525502405378,-0.8811010652124183,-0.90490550242653,-0.9092879171074928,-0.8961892198565192,-0.8636627006335812,-0.8023486163430374,-0.6852969749722896,-0.4606453629249106,-0.06619103569409172,0.4343395806706668,0.7652813173207871,0.8977576445136312,0.9463196302026609,0.9660409093570856,0.9739953081360676,0.9750626776654704,0.9697131060187966,0.950411110842261,0.8992080968999022,0.7734410852010672,0.37243353319013384,-0.4410572331027924,-0.8172890986773277,-0.9185716400764238,-0.9539074980178015,-0.9694887956766185,-0.9763931019028964,-0.9779283774950686,-0.9761484826271025,-0.9726766958942628,-0.9686260678200225,-0.964543148299,-0.9608202897730099,-0.9565537080848546,-0.9502762680722091,-0.9405685015918503,-0.9241083033311017,-0.8919790341723886,-0.8198322019916598,-0.6564407238858092,-0.36199463282282074,-0.03721966912010957,0.19318899996202782,0.33422338052931405,0.41989603271308173,0.4773122382813497,0.5395346383872597,0.6316542736087152,0.7456567369827923,0.849749306899342,0.9148490279083602,0.9447095973385405,0.9521606530861426,0.9482841769519424,0.9398442563480236,0.9315763324527259,0.9257880371309577,0.9222828668420487,0.920965709108389,0.921164357503677,0.9210394189781554,0.9177207067031989,0.9055309599860586,0.8752681108127134,0.8201726627059603,0.7640247614598117,0.766950622154245,0.833610972903226,0.9001464870269626,0.9384927016081546,0.95506886926779,0.9588032974776286,0.9546932928638612,0.9419639946937916,0.9080302403536199,0.8100088880792254,0.5367779107002094,0.03876832338507834,-0.35735656707414826,-0.5194181777618421,-0.5395324569489718,-0.4560880580531722,-0.263762681896035,-0.000733533853019058,0.19885655401482455,0.24018157827866113,0.10609555655536267,-0.12609439609333317,-0.3084654566972879,-0.33978476077978537,-0.17006981917335964,0.1527536552702535,0.4258046852713716,0.5838215288582976,0.6728510948666409,0.7196949145715527,0.7240076672951303,0.6432606802386509,0.24613977975756418,-0.6626664708000575,-0.9325702349817785,-0.9744369142661096,-0.9843580868214599,-0.9874065734981239,-0.9854590338177067,-0.9743273914993308,-0.9479590874067142,-0.9044603575531762,-0.8554092651311278,-0.7926101833719154,-0.584232325536882,0.4038379774527626,0.9324782922625172,0.9868496576941315,0.9947545261300499,0.9940247751989728,0.9862488159892616,0.9385911020582672,-0.10191058204774849,-0.9072019699505114,-0.9548636661050439,-0.9573131003304673,-0.9410256441314466,-0.8884588224994896,-0.7023654692680217,-0.0014595482007933782,0.6389871973603887,0.7606796672439017,0.723075843597823,0.5417257524092016,0.028498102617682087,-0.617611258650965,-0.8713516861884119,-0.9455956607296034,-0.9711218305210715,-0.9807862960018771,-0.9839765143970349,-0.983075859258948,-0.9761270581518904,-0.9462894412725666,-0.738204237122624,0.31949921472971005,0.7545897773977578,0.8398066399135138,0.8699995496575712,0.8908899938484313,0.9087147985987073,0.9224368656273799,0.9297159159843856,0.9285627025611215,0.9163907743774635,0.8870577393144857,0.8299018516509898,0.7363727828315749,0.5918218511375016,0.3677605934751523,0.13003213296392227,-0.0008272555683123798,-0.060320215405855415,-0.13573602986218578,-0.2939312618971322,-0.5471775377180212,-0.7683525727646433,-0.871506618715139,-0.8992195600251924,-0.8802547437528055,-0.7785727892860924,-0.3708639499899909,0.4472688703902078,0.7983225365865589,0.8953609640929221,0.93058079785082,0.944159007934695,0.9415657325354629,0.9195395660388734,0.8585050064544482,0.6790393424337636,0.37160285337419874,0.35916072938605176,0.6009252987294784,0.777774357826599,0.8481942035977426,0.8633838973211275,0.8315193923423212,0.7050077326557942,0.33852335939356754,-0.23939924356046308,-0.5980901521792501,-0.7502220942891751,-0.8165457098374694,-0.8422372584730853,-0.8373125046171582,-0.7925047644048241,-0.6890507059148584,-0.555261984667346,-0.5029753743012829,-0.5478695723881514,-0.5877078698357103,-0.5508402080736912,-0.398719699502753,-0.09716144224325805,0.31062700451590985,0.6788309926086883,0.8923030818189,0.9592563957388588,0.954996890235989,0.9302700930373644,0.8999065725445513,0.8634531073162026,0.8153226563074017,0.7463213146742814,0.650375115484415,0.537579270871296,0.442704454603022,0.406902858281301,0.4361456624289015,0.5019095501936823,0.5694212633730577,0.6155438149609196,0.6290956376078061,0.6064204033728536,0.552049741763391,0.47507489345601267,0.40761766906650526,0.3971758478347893,0.4628938791896161,0.5738765188265916,0.6899424558899941,0.7890247290772028,0.8625162233610264,0.9061834589224401,0.9066819085217839,0.7573095022937865,-0.30684504031610166,-0.8806398188795187,-0.9594547647822932,-0.975452785666838,-0.9753580548235904,-0.9642802006160092,-0.9320654994488028,-0.8374995598819337,-0.5573935453405074,-0.04307454047074777,0.3282093510150644,0.44726700448501383,0.3833591159007702,0.11501623190578086,-0.21516418500934947,-0.30905674689791873,-0.24556912254835891,-0.13744639254231475,-0.041562026575034224,0.0028287746192130754,-0.05859838988432579,-0.2890582473611653,-0.5695234916991029,-0.7028933437913286,-0.735779996944055,-0.7206944488452371,-0.6788061624107764,-0.6509369361185524,-0.6752656575091893,-0.7350389888464416,-0.7985599938846044,-0.8462742635721301,-0.8703026822205244,-0.852039992283457,-0.6356269310854649,0.15614903200107333,0.5754499438136719,0.6880212156389748,0.7098758439639129,0.6470569743416636,0.4476941027318527,0.16310407440944583,-0.0073972037978051195,0.05337920038144659,0.3381532298945175,0.6263899084307936,0.777198258807485,0.8397574845491751,0.861431384129791,0.8589773156754635,0.8351207259611272,0.7841655027173967,0.6913305327687188,0.5232776613307916,0.20106406447424258,-0.3665048602746788,-0.7749783755739232,-0.8620147980536959,-0.8500656707479365,-0.8058261657037101,-0.7232601274020798,-0.5821854117791995,-0.4023218231496124,-0.2866977257691381,-0.28348791167689885,-0.3638397412219592,-0.49257909035219133,-0.627508072165013,-0.7293890645502595,-0.7892167053785578,-0.8154668617898959,-0.8171942685952364,-0.8014403634162042,-0.7839117349952375,-0.7850947625318673,-0.8046786664578782,-0.8170644251898617,-0.7876261953307254,-0.6154539335377077,0.2352492460029423,0.831504217249371,0.9032234461950804,0.9145360774074034,0.9184839706622441,0.9216805896348259,0.9228075902682549,0.9172159595841815,0.8889873411314817,0.7848143529378244,0.6173231390869075,0.5483734911184074,0.5832662509149928,0.6506957962730034,0.7128785012911663,0.7530406085657351,0.7493594580646606,0.6352365897483307,0.20616595813169117,-0.48098480238646285,-0.7853296591380321,-0.8652988153851878,-0.868756796356698,-0.8085725147033351,-0.6204304596197042,-0.20355144023108082,0.24672758514670384,0.48861970010986583,0.5880009298207016,0.6072965394690835,0.5587586965494964,0.42229809134022317,0.1582136003735348,-0.2000905349698118,-0.4850358936694448,-0.6123091929954257,-0.5921000714646066,-0.387438799518742,0.0343445116769699,0.4364969207442242,0.6495715377053606,0.7380262391325116,0.7591825050005288,0.7218685107165187,0.5748921255662955,0.16747262271548388,-0.4066525404603239,-0.7255882104775129,-0.84889036985901,-0.8937819332447944,-0.9028584316336019,-0.8812668530673303,-0.795789142027478,-0.5475494733089907,-0.15621021424764714,0.04936331576494017,-0.008463507431331726,-0.24113275737533146,-0.47935611760815566,-0.595045244508266,-0.5277748422698618,-0.03342480507493144,0.6444532311847129,0.8448290099043939,0.8940493454419172,0.9057888796839663,0.9016578389763927,0.8865613435029096,0.8664585414602909,0.8497704877053152,0.8299906977286484,0.7891830971883538,0.724735611119286,0.6325452932426252,0.43764465006558784,-0.07664270338013726,-0.6521222768179288,-0.8301667799857426,-0.8423763634125191,-0.7429313753963364,-0.3669421963437294,0.2258823396327047,0.39579070253315063,0.13270681201695383,-0.38196002194029427,-0.6796341439560826,-0.7860714471501908,-0.8168680315454842,-0.8006962406685458,-0.7261644573803903,-0.5536633948647521,-0.24506851159290374,0.12718021587339834,0.35695080335620105,0.3182937280233403,-0.10495211906297308,-0.6401926070583464,-0.8415198660151955,-0.8859077867421288,-0.8578085174654021,-0.6878420945655813,-0.19211007372333316,0.25515405021784754,0.3942045206487932,0.41237111192393566,0.4228079394209721,0.47517660809771467,0.5697971284571434,0.67522866203214,0.7528890952130879,0.7759713696175988,0.6923904449043283,0.15055072014368232,-0.7529673596524596,-0.9284641365518963,-0.9520819471483433,-0.928148561226338,-0.7917511384330349,-0.17012634729916992,0.5560780475914948,0.7384164670293512,0.7258639574172475,0.6683284264542418,0.6713706588188479,0.7314365671242752,0.7942004110684783,0.8357703361671004,0.8516494876942824,0.8418745943614278,0.8055669537134007,0.7594100034796584,0.7311637674198195,0.7322338028891426,0.7521272748073793,0.7799400920613427,0.8094897950955182,0.8330448982620933,0.8394832834613307,0.8096152231098631,0.726557403133758,0.5442172986881136,0.12078235744716774,-0.49265173914575144,-0.8043619776022395,-0.903202234869161,-0.9375967465090419,-0.9495319016524546,-0.9497501739048135,-0.9408904280170082,-0.9244589120152827,-0.9006054254812657,-0.8603331794805332,-0.7605350852618641,-0.3664097496666869,0.5375248101879287,0.8142043189536091,0.8212562911334673,0.7258068105058767,0.5290700465538692,0.29906687187703795,0.15224650777265025,0.11579748145752736,0.14988339621834623,0.21313031833144164,0.2769675028951281,0.3095151459952687,0.2774331544242545,0.1481116895985464,-0.05266722946963761,-0.24223229788144804,-0.34594960731965896,-0.3489584676012364,-0.2129831143928964,0.11293794746964425,0.5308340448933225,0.7822173900100549,0.8837970218168664,0.9250718684256555,0.9441244432764786,0.9528050400626495,0.95487676220536,0.9528613460288307,0.9497098038324494,0.9496507529981149,0.9510588822083005,0.9469525229263395,0.9318788121023236,0.8965861917830338,0.8181271784662997,0.6535393536029246,0.38252528808287023,0.09796869239737678,-0.11400817003887086,-0.26185783745183955,-0.38470149962483796,-0.5178352174254919,-0.6644520517027305,-0.7859152129526253,-0.8577644823814571,-0.8942148173519668,-0.9139143250171557,-0.9249274516435245,-0.9287891399514872,-0.931150655354125,-0.9354246299904128,-0.9389052606625109,-0.9341022004488554,-0.906393266619758,-0.8029606814565021,-0.32579631408212706,0.5935181437716338,0.8736624633419822,0.9426258044216461,0.9671295934220553,0.9746290595530739,0.9623425796914025,0.9038133125760298,0.7941716132463887,0.7311940267878311,0.753849778067757,0.7938650169698586,0.8178710097435551,0.8384578813208746,0.8741384656979058,0.9171080165993422,0.9480282476215351,0.9583198352738234,0.8294753510472509,-0.9159480918881977,-0.9710800213511065,-0.9788093074006112,-0.9799626114972293,-0.9763530794895349,-0.9664373025735546,-0.9454516266893003,-0.8981662611544865,-0.7835217327907141,-0.541479492338098,-0.23420697416616898,-0.0108338092749384,0.133250227628633,0.2258722575676236,0.21781185914832854,0.053316861191237956,-0.24464888487807845,-0.5205292528959403,-0.6819073498456247,-0.7581969976067744,-0.784372499373146,-0.7740638486181435,-0.7168573520994828,-0.5634948643185266,-0.2345683536618081,0.14696763700705698,0.31686447389711003,0.2457441060168738,-0.024051476688158165,-0.2964936069803775,-0.37582019368797664,-0.20477986846016352,0.2120934510487406,0.5831461569552976,0.7390757454965936,0.7740726002889706,0.7569115975857198,0.7274815096328581,0.7173560890924028,0.7394861006997125,0.7834598208982136,0.8285834218636019,0.8641239636897383,0.8867675913000018,0.8928269437497096,0.8608244419719409,0.6376663498953103,-0.5079527162379226,-0.9149700789266275,-0.9677390137347556,-0.9793136812208307,-0.9778869785453932,-0.9576563975038302,-0.8654563833898995,-0.5949960365076765,-0.4162498321309991,-0.4751493647173677,-0.5651097567609636,-0.598253094178112,-0.5552029695145145,-0.3714130218255435,0.11355439532456346,0.537898089985211,0.6170130830989972,0.5731978749210961,0.47644986862702354,0.3379515637749367,0.17239074728977646,0.032271748814939494,0.015325505821370393,0.15978595205105053,0.3405463273621494,0.4724004211758935,0.552721233677327,0.5921891458639946,0.6045800362973575,0.60544316522016,0.6064334449999762,0.610299862258632,0.6097947827127357,0.5928756558781321,0.5550449053509956,0.5099541433083589,0.48430033132514927,0.4995854562823571,0.5715402060082598,0.6931216520291378,0.8013173080509483,0.8168986153759629,0.7718452048425591,0.7264323507772185,0.6945989350870749,0.6709008265762152,0.6580878158471593,0.6697471034115667,0.707943202550406,0.745720222405554,0.7470572319289711,0.6815445906948477,0.5186200884548218,0.23386200316050418,-0.11692681415084553,-0.41666857078248964,-0.6042280325142404,-0.6784517852306281,-0.6538145121850037,-0.528942645346503,-0.29913056641749725,0.04961744128035253,0.4235458372866831,0.6551686708444715,0.7475612420786074,0.7516473752394828,0.6400950450363434,0.20645763255522345,-0.48526561106736654,-0.7788651390022829,-0.8676475572107345,-0.9009307883628594,-0.9164092337594256,-0.9229556900762187,-0.9191732167441744,-0.8846160406369398,-0.7013168307117124,0.04135230605148588,0.6303631135889788,0.7887332318055273,0.8163122349704968,0.6839078537010362,-0.2876335197899828,-0.779401458605279,-0.8537370801655095,-0.8549404696052093,-0.7768978306665516,-0.44042753120751765,0.18441880130528082,0.5209287052538871,0.6176008203248935,0.6051821270745799,0.5200233929330387,0.3758812644279597,0.19900764990166703,0.0009764875601676981,-0.23578230512735426,-0.5124176844323218,-0.7404894194006807,-0.8565002257406067,-0.8742655018242638,-0.7459827917257722,-0.17944534290782832,0.42584373049392027,0.628136203619158,0.6806145056067904,0.682463257624572,0.6665455282697297,0.6220180118684565,0.4675909352045129,0.22153688716964828,0.06610183163565374,0.037288164896041184,0.09029429682561903,0.16932335082014952,0.2292743492158591,0.2462702616126684,0.21470622143428664,0.14100349346362878,0.03338746094496403,-0.09958502123776157,-0.24944753437433462,-0.4212398061455373,-0.5475007645512912,-0.24212729738264555,-0.002590375691109227,0.07809147953955164,0.08903557028921402,0.07054895224474347,0.07924101836406494,0.1549156847115558,0.2861825665610635,0.42186860584026,0.5306818392978354,0.609918956009235,0.6702852099545874,0.7166942945703805,0.7439662874051801,0.7349359796901238,0.6276630603691813,0.16440756338819168,-0.6105621853732692,-0.8677571386277405,-0.9250334780175496,-0.9296397022876103,-0.8888146014708344,-0.6848838254967924,0.06699768766275728,0.5773410662996892,0.6135790948279045,0.2017335612497934,-0.6844013077875734,-0.9217284756339528,-0.9663920108825615,-0.9790193846908123,-0.983047203193822,-0.983327928164764,-0.9805557833455868,-0.9736901680783193,-0.9600048680870931,-0.9364618436375967,-0.9016757690330343,-0.8499153136908448,-0.7572516293360129,-0.5653304414440178,-0.20619870531748083,0.21512355266973177,0.5622795755146005,0.7870982937433126,0.8997830245385434,0.9453059244100466,0.9606758278971687,0.9638420892725829,0.9607345831393755,0.9517791763897013,0.9340975727017229,0.9044513243088879,0.8642127012247312,0.8285805699364711,0.8201319829242223,0.8379545647397496,0.8584155369242586,0.8707925008742794,0.8810073009012156,0.8887475472857976,0.8813109019401841,0.8556857834070122,0.8283704963659022,0.8066518110122223,0.7813277985438563,0.73780060511175,0.6584668038959736,0.519433534321705,0.30834426727715736,0.04588727894019514,-0.2115096428919523,-0.41646728214846424,-0.5557444989069624,-0.6325373148751724,-0.6431662712148764,-0.5865158468623874,-0.5036907133840021,-0.46446072931614624,-0.4977951731909542,-0.5610862454510511,-0.5938576874090679,-0.5463487951814966,-0.33953011513702114,0.11914006173053308,0.5717040811392518,0.7750793609302595,0.8413137263574554,0.8449966317619703,0.8036993445120448,0.7134933327303757,0.5485079426018347,0.23887180880710993,-0.24412045802516183,-0.6413430607402002,-0.8203463176613303,-0.8837882474348062,-0.8984975177065619,-0.8828668551190176,-0.8246433552087907,-0.6557088520287548,-0.10243431086609903,0.3843495984247109,0.11674777714558228,-0.5464570124466769,-0.8351792807224394,-0.9052438656470616,-0.9149420202559014,-0.8901118338076105,-0.801769381465041,-0.4997506465629308,0.23634096154994183,0.7275241631082997,0.8791668917035229,0.9283048301864987,0.936447848868317,0.8526730344527275,-0.13494529765156418,-0.74805979996586,-0.8008017145487021,-0.7167848445520034,-0.3380508301367615,0.46233723147900846,0.8191441207829905,0.9063952725315861,0.9258876359515972,0.8995513486194123,0.5288947252215037,-0.7726345842284291,-0.8985797637237591,-0.8963682843696521,-0.8593324680998055,-0.7832327465577039,-0.6487506020607838,-0.44537187519548627,-0.1999207774188203,0.04575629364986296,0.24500505175191442,0.36344509604982506,0.4052420301416602,0.3984344880956993,0.3727564856314412,0.33211787399872433,0.27396108319055784,0.1938969312782557,0.11885658167777655,0.09290119931145777,0.1448810098193476,0.2628760106652376,0.4073551815351639,0.5525541875096945,0.6964349358155084,0.8148843182687798,0.8824999429807686,0.9058461004609529,0.9001704232205224,0.8652733877512625,0.7817032099669066,0.5875274217889128,0.16385427691693305,-0.40456826214791397,-0.736950004732126,-0.8535197807299273,-0.8752278616284294,-0.831051711694743,-0.6777466287180596,-0.3024046029159867,0.2822632165582003,0.7023954455650822,0.8710484842478139,0.9167703214418181,0.8909842407891824,0.7587391435372327,0.49202128201753365,0.29036257940670634,0.31028363095634387,0.4499907476287516,0.5714611830829008,0.6265009359735857,0.6241701281641057,0.5767874014154953,0.47975180939454143,0.30515976679065904,0.038102670229664334,-0.24672204004186557,-0.41154414795611954,-0.393982712505124,-0.27120480309114586,-0.20542346676232687,-0.19801499810754425,-0.15217300907117517,-0.05281129953990672,-0.008375790335310154,-0.12824312027676452,-0.41150266398301166,-0.6843746111585789,-0.8353595809203201,-0.9045813733303191,-0.9385938268485262,-0.9574491692189425,-0.9678895789524686,-0.9716872989129671,-0.9556518804869913,-0.8483492287233219,-0.7136785149571814,-0.7154736302141741,-0.7735547612015667,-0.8192780489274921,-0.8330017404692068,-0.8011558126129729,-0.6809622930418499,-0.37604473305360187,0.005547733862830632,0.07864937935922618,-0.2644020523203921,-0.6617339421262993,-0.7964585063241284,-0.7081761155063317,0.3795136448562273,0.9180215969049648,0.9696572269784662,0.9810193789679863,0.9829468790986085,0.977836497726642,0.9606521478603146,0.9148929856793284,0.7912160346334619,0.5076454465964544,0.1985149582724764,0.1536994869356219,0.39143696916324444,0.6794907523905965,0.8358845776178498,0.8918980040723357,0.8882981170211842,0.8246871610062679,0.6601067793390608,0.35818385868812597,-0.0027447827073748756,-0.2788770863096591,-0.4330392853167304,-0.4892760805486643,-0.4603976206874337,-0.3493784393961595,-0.18409521084408598,-0.04641065746439238,-0.03255322304361862,-0.18362325484229505,-0.461586208082816,-0.7080011158212688,-0.8347268859190187,-0.8857922267335845,-0.8991162684219344,-0.8855297053908131,-0.8320154059647559,-0.6952364486907096,-0.4375510986875743,-0.16666850229242122,-0.011088719905918653,0.058817561931698126,0.12044412258415853,0.2275444110969943,0.3834397706492063,0.5402998992949929,0.6451392488246521,0.6845114391354723,0.675154619685767,0.6396787768369789,0.6009275590532904,0.5771041919187707,0.5889863587455763,0.6589322035376983,0.7651459743403868,0.8254314630336778,0.8267999411008857,0.8173561529726054,0.8155679082351113,0.8103868100184068,0.7901983068376256,0.7525362938393453,0.7023671260812613,0.6529022872022623,0.6175076286021379,0.5724529170713755,0.48779597424770615,0.4129757713416612,0.3722507082966122,0.35684129521456703,0.34922819806786964,0.33722023811690416,0.3190614033977784,0.3078510324313762,0.31377786721955936,0.32999516253672345,0.3228501715968136,0.2209158450590623,-0.06433585227823177,-0.45837384010599136,-0.7116103780192399,-0.8097740751183551,-0.8262004727722754,-0.7800363869737474,-0.649629742646688,-0.43531897079840515,-0.2622381143938934,-0.2779787172131149,-0.5146836233110507,-0.7862715172180954,-0.9169480682053522,-0.9571562452404291,-0.9419613517205971,-0.8101806806323762,-0.4505276811773091,-0.05584995703318897,0.16875861584398205,0.27904506226152237,0.33860265215620444,0.3681148106997883,0.32461335227667226,0.0339442092745514,-0.4736643010220913,-0.6398796689606429,-0.6421509911691654,-0.5710411531398198,-0.43500262493056946,-0.250709802836089,-0.055223345732642905,0.11954702824860991,0.27777888338699047,0.42925840666192605,0.5601235714617573,0.6512122709611984,0.6987175578010268,0.7080543379425897,0.6784112998262204,0.5942038545103895,0.41168624141748267,0.05736362436306111,-0.4240989480962815,-0.7605240725469308,-0.8984592006722446,-0.942705899193106,-0.9502905535906826,-0.9344210727445352,-0.8811848246485136,-0.733287791121882,-0.4331515808436048,-0.1933396716538162,-0.28276930519515664,-0.5990400740257489,-0.8133572864257366,-0.888256718964984,-0.9000519194543389,-0.8573463127796451,-0.633525290693813,0.2777747062247844,0.8403467106013259,0.9516019349261942,0.9823406094459307,0.9887751389966952,0.9821698243512653,0.9697594931237321,0.9588010667293332,0.9515103113057755,0.93926871627214,0.9146806014175144,0.883650043132866,0.8524076489538754,0.8208230494611289,0.7896188927024496,0.7590937195342042,0.7242831929286266,0.6785679745285664,0.6177020267735595,0.5478002933955487,0.48108809843438877,0.42663426351870437,0.39198698919652675,0.3926196961307665,0.45782967238588174,0.5797368341647418,0.6920689748266903,0.7341820731694211,0.6857553981325406,0.5194269170189637,0.18634519977505293,-0.2672835084836657,-0.6399782713080494,-0.8390844917656712,-0.9254474953738009,-0.9604294710019614,-0.9742163128132939,-0.9761818386257018,-0.9459384673960014,-0.5916851926872277,0.2487345221664901,0.46904016043113916,0.523195223691334,0.6129342135444007,0.7566494830308865,0.8697958226591531,0.9136403143110969,0.9048212135239142,0.8383446427172797,0.5979276029811019,-0.20474688012956208,-0.7810387073319319,-0.892329571446341,-0.885915946696614,-0.7370420732554771,0.006694832390071138,0.7021645211404962,0.8482800081315628,0.8646360860868108,0.8176059012413633,0.6996925314444442,0.4930564260446307,0.1844252660771076,-0.17747948821633414,-0.45168288202685575,-0.5887837698064278,-0.6483305300039762,-0.6915249626247931,-0.7284373203979396,-0.732175660071213,-0.6325875030889515,-0.18600021634082758,0.5403039589424036,0.8049342498143153,0.8666240385398731,0.8554997234629986,0.7320448145721483,0.07437005700425682,-0.7831490288197269,-0.9426319757623874,-0.9753118286117659,-0.9853385616654182,-0.9886856844943424,-0.9886523300023667,-0.9836722631445936,-0.960041585150001,-0.7970896114440819,0.25511553221104094,0.7766194357280882,0.8611788030694884,0.8696000810147763,0.8485545572937953,0.828215096682965,0.833855352793903,0.8418508475692174,0.8271317289139863,0.7850080887833989,0.7175716373141588,0.6326020862958651,0.5494769662109439,0.47264220910120236,0.3675308268085373,0.1877042027846766,-0.05465515020164341,-0.2510456256222481,-0.3354431423759654,-0.31674414508651766,-0.21722164585123832,-0.07975858440478505,0.049736180614555675,0.17701506885039595,0.37291850488319556,0.655371275507288,0.8633973397342285,0.9446161020689248,0.9695287441033053,0.9758212231252473,0.97379811560665,0.9634576557903167,0.9384878757185152,0.8860575375015667,0.8021548274334455,0.731402514609489,0.7341701907374434,0.7952269013650153,0.8553540393011618,0.8493121904365192,0.6216982275550327,-0.0065808166666098435,-0.477541327155397,-0.6316028649189724,-0.6352522288774523,-0.5862132923150084,-0.5412513973109712,-0.5086975914757139,-0.41353663176697963,-0.1407622234296393,0.19990319994505637,0.40108635958740857,0.45491886820946087,0.3930315787362431,0.19915063468166025,-0.12016502831195351,-0.43030090285076805,-0.6172920881645968,-0.7020636913195334,-0.7342783117671331,-0.7425880815652568,-0.7289735075114919,-0.6758256766707377,-0.5428921490959105,-0.35837806351173934,-0.3098399758980117,-0.4464807741704239,-0.6245084955134917,-0.7421728970905175,-0.801948400501436,-0.8264248278763259,-0.8207419120613874,-0.7619309623910718,-0.5275139080310696,0.23338720787632106,0.778147205743834,0.8807588497109147,0.8184417744285852,0.1470778347244088,-0.7608279357739515,-0.914968542892088,-0.9563968975293112,-0.9751899833384371,-0.9853021185596041,-0.9897826119184352,-0.9876257586372919,-0.9697578600204039,-0.8969688145976205,-0.6646934569542358,-0.2912595881644146,-0.08975533649227654,-0.056766676101525484,-0.05558232134536148,-0.04270422550608623,-0.013337540047302305,0.023853658009994793,0.06776644162874067,0.13580426150625977,0.28163682973041376,0.5470312333490055,0.7582556416988391,0.7976465094678062,0.7934541399263032,0.7947806215602035,0.7979951433185145,0.7891832339319047,0.7547977914683617,0.6779386306246671,0.5378379117652341,0.3443270064445946,0.15693156061077174,0.01197001180113502,-0.09346799268600198,-0.16549183795895595,-0.20038906826865224,-0.1807399029100319,-0.09393712581920796,0.050653444340380896,0.2043849814192813,0.3250974047061671,0.4138289909523008,0.49734758264300316,0.5987969777561863,0.7208768815906136,0.8219893011709242,0.8521470426218164,0.784494560557677,0.5683927141074988,0.23375153979010965,0.03810526693788747,0.12000149262252884,0.3381607938172006,0.5369421563226217,0.6584773611648155,0.7138681920580213,0.7100120992894955,0.6303292086061951,0.43253861697275187,0.12182474581546394,-0.14601051149890157,-0.2643572640886075,-0.25119596908628095,-0.12785640625991243,0.07086784904800639,0.2367723421352757,0.3091777064389205,0.320028706907168,0.3031369207631474,0.2734132284910486,0.24572243545078382,0.2385809214270341,0.24610186004374845,0.2026039382320183,-0.010141280955303113,-0.37041349522004763,-0.61908865309807,-0.7080281834216985,-0.7006859535276483,-0.6212637007116443,-0.49418530799223714,-0.39261849960087836,-0.3813061572974225,-0.4403556541445874,-0.4318384760169528,-0.2532504471089774,-0.00560512748411715,0.1404658904286541,0.16529418108484337,0.08011494903120457,-0.12671918294184759,-0.43872540238048435,-0.7146389422370614,-0.856425253435659,-0.9053857521903863,-0.9036471765132151,-0.8595554958965204,-0.7469986149460572,-0.4679132086598426,0.11980526856374742,0.6174414011223641,0.7998591430336853,0.8564961374532395,0.8667407469452327,0.8506329786174813,0.8063529558912766,0.7151828546076392,0.5541943880880339,0.35562802886505546,0.22278947094655518,0.1810830627108986,0.17095472534899953,0.12810503662126935,0.0022924119548727766,-0.23386882643125417,-0.5110480768460662,-0.702612827147551,-0.7998917778109574,-0.844523375147499,-0.8629260306631755,-0.8694407752970853,-0.8735914367438116,-0.882701801236362,-0.8986217674400351,-0.7249057541236446,-0.08001826109130045,0.009849328051102233,-0.16573173844339617,-0.40646350694228783,-0.5788600051256827,-0.654438655516598,-0.6499788405184381,-0.5607660797524854,-0.3523836796688703,-0.026758859021754677,0.2826430561774166,0.47537074490929465,0.5787293936839667,0.6372562886692795,0.6787026146621564,0.71949744485368,0.7615803722812478,0.7944889014449843,0.8097161903687553,0.808291801062206,0.7952246342815835,0.7781083653975549,0.7676730233104475,0.7647577561578615,0.7627751727366852,0.7489425987861862,0.7049186410807475,0.6042668205418918,0.4446317879259545,0.3041213195340898,0.2947826213777065,0.42848138646806,0.5993496999134106,0.717325350121989,0.7772227021999486,0.8040290527294506,0.8214351067741608,0.8424917481418811,0.8622062515173465,0.8595779699735608,0.801035724253729,0.5819340188188745,0.019822083064715227,-0.4849646175158826,-0.6736722048397226,-0.73070635500529,-0.7474334906413757,-0.7617982944039798,-0.787216958053916,-0.8208747284941134,-0.8509623302716878,-0.8682909797483345,-0.8674454723937192,-0.8403928259827682,-0.7670449124427473,-0.6117372295208532,-0.39183154765719613,-0.27272958851945556,-0.32973295941073494,-0.4621812708395108,-0.6018413081765598,-0.7291435321430271,-0.8384091581180583,-0.9094864539712961,-0.9150047999455793,-0.8463785700329688,-0.7512443949401371,-0.6988668460850898,-0.7068486795843212,-0.7370981909682446,-0.7494007539744869,-0.7250254759200377,-0.6584419953680835,-0.5274027963717033,-0.21237023800875815,0.5498437680229301,0.9320653086463148,0.9351689358450559,0.8750990203932512,0.7830840032957417,0.6927637805075292,0.6321623632243245,0.5687942566482156,0.41864158560446724,0.11628575975533856,-0.23591090631278006,-0.47179895901845353,-0.6073696532401819,-0.705741400521927,-0.7934064092342619,-0.865005280706479,-0.9070211280290962,-0.8986360207717552,-0.7296794377745801,-0.05839891182969538,0.5578942078019953,0.7712617626905242,0.8549456283702179,0.8981131513035453,0.9261763732554364,0.9434284061419784,0.9473415009557106,0.9354837785318066,0.9047747339516594,0.8625313929228985,0.8311689657109143,0.8288981022609261,0.8505528223139509,0.8784130986291988,0.8981167172051343,0.8972134371250223,0.794536654079964,-0.6293352527139041,-0.9238220255701171,-0.941907464681355,-0.9392139046818219,-0.9229822309969223,-0.8823953693900819,-0.7942118272858358,-0.6039313997181588,-0.13751776682821965,0.5737977432818737,0.8492507606785611,0.910044898155377,0.9161291779836401,0.8823094942290225,0.7501228549150771,0.30493362651181377,-0.32596926844196694,-0.5897793063115577,-0.6330268263646621,-0.5417205930167218,-0.26560915952333536,0.16581097783923152,0.4721076834952095,0.5954931034302574,0.6117225126811113,0.5132117434966865,0.2530635905858101,0.020051218182046783,-0.05269827318203011,0.0019716824931916904,0.13488944651567752,0.24578108076415772,0.26160139906045965,0.22770726650228923,0.20842023318753036,0.2226444667349208,0.2615271575029537,0.33662596558321695,0.4511559878669216,0.5322549378351363,0.5633808911629313,0.6132947943774649,0.6763231463305298,0.738696626124556,0.7898508413593455,0.8266216156206438,0.848935796663024,0.8579646746715822,0.8559957496597209,0.8426348521450195,0.8055527446123119,0.695400206366053,0.3227861480316191,-0.46428268776046433,-0.8439587083688109,-0.9304930383174518,-0.9508207784155979,-0.9572431790335779,-0.9617224712670559,-0.9646849058811547,-0.9654596238653202,-0.9640881176331695,-0.961143195286669,-0.9565351864356667,-0.9488511406284585,-0.9357022565393597,-0.9137932256445357,-0.8782489949930482,-0.8206952014321666,-0.7226839139391238,-0.5570662503790442,-0.31943400492190954,-0.10219783168176935,-0.011127462758277458,-0.035612631254444985,-0.08210941713555873,-0.04508267551235348,0.0642261608474273,0.18923240735597407,0.30917318851200065,0.4257171316290744,0.5442839491293554,0.6649847029979623,0.7802169927478018,0.879248240725389,0.9402084507541235,0.9449017056972019,0.8951744190893144,0.78860812474148,0.6375781350511683,0.5143010410313846,0.4804064427330922,0.523692880558637,0.6049805466996673,0.6909308844798998,0.7589172696956343,0.7993098738649188,0.8194155052195388,0.8322980089378686,0.8489150216516109,0.8741039695825814,0.9042471325141708,0.9336308245965117,0.9592298473968758,0.9743325856983042,0.9691497213420447,0.9410025955576117,0.9000515981074261,0.8616151707652728,0.8241314401721971,0.748109158111772,0.525729263813574,0.028007275021208367,-0.47969414125858373,-0.7257696358546528,-0.8204061163750592,-0.8545016661140314,-0.8589779688687635,-0.8403721639920837,-0.8047694923332036,-0.7797644763297483,-0.8009819783324349,-0.8544734538318354,-0.9016129091612692,-0.9295236392429317,-0.9411818687417263,-0.9378208263832567,-0.9035788615941719,-0.7196167891717067,0.15439815386849726,0.7363914375207289,0.8599137970787826,0.892448620108867,0.89424808693272,0.874872717593704,0.8315067473690168,0.7663239572803844,0.7042740000202252,0.6662596416121105,0.5893820541518819,0.2192300723610764,-0.616514831900463,-0.9051241869391814,-0.9574676060572235,-0.9679287992680555,-0.9639656214168723,-0.945929574738865,-0.9020643748154455,-0.8090416272560637,-0.648214573073313,-0.38762064928056206,0.07501604286891303,0.5325630830521648,0.7468924986454655,0.8346527407723345,0.8722573233195862,0.886741075355839,0.8864805956700134,0.8739346249457005,0.8508911462744783,0.8142010990202351,0.7557571951110706,0.6512871396215746,0.42958935404060844,-0.04952281255523116,-0.4978777748270474,-0.6073075789210468,-0.5353541412890127,-0.3011615871396765,0.11476545321522616,0.5203897440549533,0.7481999476477258,0.8530674314954997,0.9005883716719519,0.9208601908596514,0.9255398072455585,0.9158296546721317,0.8795435119282135,0.7518146269661609,0.24076125956457747,-0.5560087911165056,-0.8312174073827517,-0.9088850467376991,-0.9385903100176175,-0.9508887026147921,-0.9527144892265771,-0.9426333011586857,-0.914620744280458,-0.8650277576902325,-0.809123273066625,-0.78397820753081,-0.8039227585392877,-0.8503179580646136,-0.8988603275821799,-0.9341849679190705,-0.9546293788184427,-0.963421708209842,-0.9497422656430877,-0.6443952141447344,0.5402104356148986,0.7758070970922667,0.8244440536018451,0.8370159173686021,0.8218593901689456,0.7068362170271988,0.321898770389625,-0.01685843577983433,-0.09757258750955958,-0.016206020781383397,0.1895164879418984,0.4623772444120133,0.6938546197748743,0.8294446094685566,0.895956972062501,0.9259907276160724,0.9340987744542768,0.9173244043364903,0.8457100919434218,0.6166193627417628,0.12897760886404197,-0.30729408500448213,-0.515348169844692,-0.5875769177027226,-0.5824893456339374,-0.5065572687922432,-0.3115357414785639,0.10558779002073945,0.5910052444585316,0.8069680322448267,0.8484323427357005,0.7307121334648684,-0.45997515151832213,-0.951229014081501,-0.9803727286633814,-0.97973921065378,-0.9717231468492716,-0.9567701505661009,-0.9234921224864043,-0.8144825667284195,-0.24100587850060468,0.6486454122965052,0.8265681072314053,0.8423830451290085,0.8131390058582314,0.7598622285555495,0.7022508768497124,0.67698122164776,0.7123798446188663,0.7896408462795514,0.8576896171446119,0.8896841902962116,0.8972740693814735,0.899213806696519,0.9004153140764674,0.8972822197943089,0.8865332169818325,0.8618519273383859,0.8067963687236979,0.6774357527656284,0.36229814864980997,-0.23490838936923894,-0.7280885147956487,-0.9172682468764002,-0.9754806095875018,-0.9916739429625728,-0.9900781075321893,-0.9676745851164797,-0.8984826716876033,-0.739773661107367,-0.5011291618940288,-0.29901539819982415,-0.21471820689439977,-0.23811316527893073,-0.29656486606968396,-0.2686395274571055,0.03699279661384759,0.6402910801719627,0.9139705900062084,0.9718415395532102,0.9838610258610198,0.9840275302962319,0.9775956786509319,0.9616636369645861,0.927565606883134,0.860531875195271,0.7427033933134183,0.5619984613074775,0.33523011565421396,0.11473664084902412,-0.08913376830826947,-0.33133193858624,-0.5720424767510925,-0.7204123245700803,-0.7837699458856368,-0.7987530154777481,-0.7748274443733025,-0.6805022759463079,-0.3244556407315091,0.5362051538055702,0.8478598205673283,0.8755079087963326,0.8507728773861702,0.8044037506996725,0.7386139453399768,0.6444087698070089,0.4975558305877513,0.276641743316054,0.0008129595671524266,-0.23586017099332046,-0.3733092601129925,-0.44141608250240105,-0.4760916682563634,-0.46777649055254095,-0.3943332833166464,-0.29476415715620186,-0.2603875065878204,-0.31850061954339143,-0.42405582749316545,-0.5343098015124864,-0.6364564961491047,-0.7280735392711659,-0.8098769607184919,-0.8739011339236729,-0.9112725120817132,-0.9224370416500699,-0.906872181746805,-0.8419680662265552,-0.6510530286444777,-0.2779079760480361,0.0005485552087321904,-0.012957985333280094,-0.2479101700189036,-0.5376110950878518,-0.7451216442045266,-0.8547602444425132,-0.9060781968048495,-0.9274982805581744,-0.9292885564980818,-0.9012996182325032,-0.7264814858454117,0.3368974037773595,0.8419085860989928,0.9114446692715442,0.9247913832611163,0.9215768291689627,0.9107729992115868,0.898886499034655,0.8947362220282765,0.9023682315406568,0.9156496182789873,0.9275423517250586,0.9356240888458627,0.9398646727523157,0.9387631261077879,0.919141014327967,0.8408932502351426,0.6231790858467506,0.23613005549315974,-0.12654104775550515,-0.331907254992807,-0.40873658653835,-0.40201365359024155,-0.4095664447026713,-0.6435272045570558,-0.8829871798055631,-0.9441022553992219,-0.9580889732437086,-0.9620145803445508,-0.963062610610255,-0.9633833792750491,-0.9620041978943592,-0.9562714031664153,-0.9420857177226619,-0.9126054426220818,-0.8583498887349551,-0.776700034095477,-0.6823837646556256,-0.5748392336209422,-0.38051606264944204,0.05598821672469687,0.5876981642841567,0.8309197865716724,0.9046693211154896,0.920627768276957,0.9017174844071313,0.8118514237409594,0.4403979318875505,-0.34819820084045916,-0.7268931605381648,-0.8360621571014525,-0.8446998536517233,-0.7137603799435652,-0.42472634131305487,-0.1175399252969976,0.21541835959073918,0.5433793582434048,0.7621456087043466,0.8721322234042346,0.9214342292458716,0.9402720246610576,0.9401914314244166,0.9148445030861145,0.8100642458501794,0.39795771038914585,-0.26684142974863645,-0.5509513641176959,-0.5815503221499331,-0.4242216720631839,0.05229337063329023,0.6358597597338647,0.8707482281164186,0.9284381473981462,0.9307457558118262,0.9003746782734607,0.775068016895906,-0.1189221231575655,-0.7721073924778887,-0.8182491719468904,-0.7791199270381649,-0.6685439838740623,-0.4546222183732933,-0.22176573671963498,-0.19520293207933845,-0.4063748930386216,-0.6440872174039854,-0.7788839311315654,-0.8410788947711801,-0.8649488528668738,-0.8548115648373283,-0.7957508614838413,-0.6245068462832871,-0.14905378305245112,0.5436743554849627,0.8513660302694948,0.9387889717551032,0.9654764647991569,0.9728213762299679,0.9719038866378787,0.9654035359287949,0.9534790553770168,0.9372110254445899,0.9218342235851648,0.9172478851269421,0.9250673695601244,0.9313819485393402,0.9277894167402821,0.9084364089381547,0.8535360217739464,0.6768244590677912,0.13290665494936277,-0.5111817271421573,-0.7722315164664695,-0.8620360624199462,-0.8944720551814946,-0.8975776526217535,-0.8705950057928358,-0.7877470104389969,-0.5949464412654133,-0.2837248237360161,0.013131054546337338,0.19217512356026728,0.21829841666559832,0.07397707088268823,-0.18552143812536617,-0.3733150965829463,-0.3974606517968163,-0.23073483739309283,0.2042546288758552,0.6458056396299956,0.8193946211657077,0.8581286571618844,0.8109517203103073,0.5055917040289115,-0.30690055516021963,-0.6786558445878119,-0.7183571140808674,-0.5293786133858049,0.13236474155977243,0.702896098336557,0.8707413065806502,0.9248734999395481,0.9470672748141665,0.9539556505467188,0.9423604699635335,0.8551133049014031,0.0934360509406658,-0.7555950348310484,-0.8733454714625413,-0.8812143900635311,-0.8406697014267187,-0.746201591842983,-0.6604376429212278,-0.6830633082299915,-0.7538772090321756,-0.8069461064316359,-0.8368039168335744,-0.8540038741606295,-0.8663142916406219,-0.8792997671641289,-0.8977235978712053,-0.9216860025019231,-0.9429815584808777,-0.9473072765166927,-0.9265828275298977,-0.8785150407388964,-0.7778210915479475,-0.5386861549276963,-0.0765732166046603,0.38736655778862616,0.6472871309691447,0.769453904410385,0.8187671796412949,0.8267485626823262,0.7928344837101868,0.6455719211157643,-0.0012093503658222218,-0.7981528781960794,-0.9461131345878502,-0.9717412846777047,-0.9748994979953267,-0.9685367511192166,-0.9539776553269511,-0.9301160110347844,-0.8818010317650146,-0.7408376571344434,-0.3506129413396231,0.1930134970176241,0.5065956136680787,0.5832283401869599,0.4659152613959422,0.21046527126991474,0.03722377357699737,-0.007378402087492663,0.019473877181426368,0.11401198426190608,0.29027638579887793,0.5203474750416623,0.7081221274460257,0.8133457362530043,0.8612516278508512,0.8682447620392095,0.8366799833731257,0.7973844076947096,0.7876030593830604,0.7957568257624235,0.8010077620117102,0.7762595276637564,0.6356559698395393,0.06881580183620152,-0.5318958779764659,-0.7286450256670742,-0.799189768486334,-0.8276264008228748,-0.8343887246572732,-0.8279401188020142,-0.8132701671853478,-0.795261533147498,-0.7507175417444676,-0.5946420213770821,-0.3384362064626608,-0.1094888208255501,0.0585730804547145,0.1626728771656689,0.20163320393565048,0.16941787238184655,0.060882467456401454,-0.1132847956565427,-0.3157992979619247,-0.5013252761808119,-0.6386568827072492,-0.72511792357983,-0.7823830106458122,-0.8221039540982471,-0.8078946176509825,-0.3403749465199784,0.3887542874657458,0.5782323566076196,0.6152263147388636,0.607277804721724,0.5909669680072139,0.5928573988253146,0.6302389361365279,0.695426657893885,0.7605515419703371,0.8083494387602043,0.8399524822113734,0.8617529893140503,0.8817496021495649,0.9052682896087149,0.9332715826557222,0.9561680688354778,0.9605177680561048,0.9478680269567821,0.9214513575219562,0.8466208956176345,0.7423485419453432,0.7272107291899614,0.773349484007397,0.8237882290081487,0.8585157866499835,0.8766187856615882,0.8739273314348204,0.8493126794178811,0.8154915113336061,0.7871779605737904,0.7588347056411907,0.6670336097879099,0.3459097257254844,-0.051875680738074054,-0.1678007303546857,0.04035488841150697,0.4071477671475284,0.6558509267106027,0.7730805761570223,0.7978237514078385,0.6578291497184667,0.24654020915606153,-0.2347105162283754,-0.526994280959733,-0.6403235169799243,-0.6377957564183664,-0.5486625558676846,-0.3825859966554694,-0.18679725022855992,-0.03560998842035144,0.051240673501106684,0.10563120817130357,0.15009944496018585,0.17698170111694403,0.12652897452868142,-0.05859523992526581,-0.2649061262247094,-0.3587770627820163,-0.30230865858945544,-0.10416661402788684,0.12469739356912805,0.27649317822142294,0.3215156042974482,0.23884457486695188,-0.02764041062765059,-0.4443647837932866,-0.7432398471458977,-0.8659349048158006,-0.8989101220050755,-0.852565623356316,0.09377755932775793,0.9532532509884019,0.975742931646094,0.9688088712064119,0.9486022684707646,0.8988220375164578,0.7765311614674387,0.5208011652829884,0.14010328101609673,-0.22256963245636086,-0.460963300160943,-0.5820415443436288,-0.6134749680608367,-0.547154894389018,-0.31168796544581,0.15451122489711464,0.5517150043552247,0.6452836336408376,0.0938239743647161,-0.9130724512305761,-0.9859243680349573,-0.9939657654468391,-0.9946805576926327,-0.9915236029459816,-0.9799452713317381,-0.9367718679725271,-0.7246752759192692,0.15931608101273173,0.7572850182364144,0.9053900693201177,0.9562245685048495,0.9783653266443143,0.9868397918105808,0.980578621761324,0.9447461294504496,0.897311737129755,0.8902062615362916,0.909764856926864,0.9243069359560584,0.9283813196246903,0.9245199036965989,0.9050196445537019,0.8094633150608201,-0.053217532257582696,-0.8536941990056514,-0.917014899414542,-0.9058736322268219,-0.8511486311558148,-0.6960679280378277,-0.24548103562721468,0.38781591807951904,0.6656896763570019,0.7398204115840437,0.7137477896759371,0.5372971664885658,0.039191488709266635,-0.5104336649295901,-0.7461267100980621,-0.8272531666252008,-0.8527913538855697,-0.8506088857728108,-0.795129048966265,-0.5465540074374743,0.1972574470189456,0.7445267126988414,0.90054162432799,0.9488319829123391,0.9653918537927357,0.9683789879134308,0.9606842921471108,0.9331029522672458,0.8711742451814729,0.8032252928099847,0.802066552231117,0.8478606674475437,0.8853193025067054,0.8990331729279707,0.8778055861341009,0.6897925655076171,-0.6498871402731148,-0.9596444864114732,-0.9834238114032453,-0.9844848840777141,-0.9750627358619102,-0.9355382951712328,-0.7312853697573332,-0.04697321715424432,0.41229061435794334,0.5419781581357458,0.5942275676063112,0.6409497055376503,0.684525016485627,0.7049017171444801,0.6780848400697542,0.5347309895730641,0.05203190141662605,-0.6189444141172289,-0.847094983462326,-0.8925156702045988,-0.8848853560044856,-0.835894041779731,-0.7091596822952759,-0.4155413407249026,0.008766366984720723,0.24019378203470101,0.1886019432009236,-0.054248193495254185,-0.3070813743220072,-0.4971187745902969,-0.6775385974487318,-0.8318867523743747,-0.9208319949799223,-0.9602608958472849,-0.9713414505411428,-0.9562900619639065,-0.8691335682325865,-0.5169876762904592,0.11438182980434106,0.4880951678685881,0.6467446066965055,0.7133594019300085,0.7187003343791889,0.6192514820349061,0.2895025284637888,-0.12759471751219104,-0.2955472410832175,-0.2273955331831883,-0.003943993677847572,0.12552548913625453,-0.0908268946510137,-0.6168072998036372,-0.8895955796620468,-0.9581241259159217,-0.96883544903659,-0.9142770990993617,0.2657141611315712,0.921809112856583,0.9675618070733969,0.9775174280332058,0.9804621136462901,0.9802661450669548,0.9733305362723313,0.9434449336030283,0.8333246186132562,0.42618416499427564,-0.3050895301030669,-0.6601594715709106,-0.7647441269632365,-0.7766349704047437,-0.7182488988586737,-0.5430305617225908,-0.16130621037167278,0.31159721656630845,0.582531324683335,0.6518679456562897,0.5875970713842353,0.3947936669440862,0.10137372406646704,-0.16835363036580012,-0.30037605019017083,-0.3238584106060344,-0.34861072051617725,-0.4017298206710795,-0.4632787754637929,-0.5122856911648279,-0.5394358745508531,-0.5447451581458653,-0.517065667366766,-0.4451846680830779,-0.341241357911316,-0.25114566080049405,-0.2189762890365499,-0.23533015817826264,-0.25832484337634454,-0.25149185159325244,-0.19493917309084058,-0.0701961025808512,0.1252810485156151,0.35986942493445595,0.5694513878816637,0.7142262173434003,0.8005664244417332,0.8454617602405756,0.8620982718929342,0.860182689932898,0.8475420782403428,0.8324776875656795,0.820293068681129,0.8119173408842667,0.8048655970315897,0.7934376612842562,0.7643191499607771,0.6966297583272558,0.5829707660694242,0.45342756547389196,0.34923626837624955,0.2643025338951068,0.14914723430125276,-0.05708846533847454,-0.34099239143898263,-0.5811061990962185,-0.7281104298675485,-0.8126869646060204,-0.8584944199537078,-0.8836760434666268,-0.8966787480972551,-0.8958874978447777,-0.870289660378306,-0.797001411587251,-0.6417862878026384,-0.3987693307423721,-0.15768214007013331,-0.009337305166959103,0.059436308181940074,0.09121177068208458,0.11004995114510514,0.12249866108790533,0.12767949743405424,0.12336734395832397,0.10434013260165853,0.06424126203025016,0.004461888547693346,-0.01765777458134248,0.0897716998092311,0.317452993816134,0.5097111739338845,0.5605888635619665,0.5396802259971791,0.5149276437419031,0.4923782272228996,0.4562720208416842,0.3809269485258854,0.23565664599868624,0.01264030912765244,-0.2157408255031113,-0.34164722153904886,-0.3432744805812947,-0.2604886256839246,-0.14661169538418534,-0.03674542102561116,0.05939544311475,0.1463093714019064,0.21130373152323617,0.2184610205595504,0.13857374913664344,-0.027469131306065275,-0.22993352247851778,-0.40580106198291116,-0.5302177667726061,-0.6064113193951648,-0.6369693813275014,-0.606240106302788,-0.45694242773838956,-0.12115251166945278,0.17114781274519017,0.24510643109522648,0.1738212730033632,0.015599796967678796,-0.18545198028485688,-0.387294253496838,-0.5600730549227416,-0.6865761540522882,-0.7652655307651942,-0.8039852107305546,-0.814385938434987,-0.8050127455847618,-0.7788370484265489,-0.7253308103375322,-0.6193084301199614,-0.45328687017234526,-0.3049481143919373,-0.28339250547778894,-0.39740916266295534,-0.5358804054841917,-0.5852604594106167,-0.47570688619978185,-0.04010539535810207,0.582843880763277,0.8437103783958436,0.9193338774342998,0.943805825865658,0.9508059956408044,0.948666683663064,0.9413778797939141,0.9344881067397187,0.9331478210226142,0.9360068944286236,0.9355423004346665,0.9091787969613012,0.5704548936365139,-0.8321285495696485,-0.9539134706191581,-0.972176210896013,-0.9769904684537618,-0.9747467149381142,-0.9590042420936744,-0.9022755873258079,-0.6871969967671332,0.10558598198379358,0.750543136054695,0.8904262555615265,0.9209981014057491,0.9230877681940753,0.9064938726438393,0.8589272174311625,0.7215128541042313,0.24230187136215026,-0.6175727787377743,-0.9064121561821593,-0.9383901425658674,-0.8911196122194264,-0.7924909832316188,-0.6556663960031582,-0.48821831564728674,-0.2884636806933024,-0.04447369382720479,0.24039709682450247,0.4710490426816597,0.5447253744958226,0.3659504251231692,-0.2708139846291006,-0.7738284501316444,-0.9082894796802122,-0.9446628780964661,-0.9514334057177899,-0.9342828930602379,-0.8607890701858926,-0.6194722870775426,-0.16531521258611517,0.15994797121812132,0.26629013150195846,0.24773421653401748,0.16444978291428478,0.09290541831453589,0.1203104099682115,0.26358857609504344,0.4472565672248756,0.5889365368319421,0.6732847986945353,0.7161407851446109,0.7278057138180869,0.7091848294712665,0.6509900263974651,0.5349876482199978,0.3364544080190049,0.074524902891166,-0.17850755354782052,-0.3826475815033128,-0.5667435440475844,-0.7463047728787319,-0.8061672564102339,-0.6237457094065628,-0.43450947284538227,-0.37900285483436336,-0.4298800386430961,-0.5094928143733134,-0.5650069129198664,-0.5791632874801648,-0.5445506644176137,-0.44013034694110964,-0.2503666058076166,-0.031609890696226904,0.12349467908382582,0.3053986795372811,0.5664460808625135,0.7735105193765409,0.8692542253125153,0.8885547997819238,0.847120751565804,0.6933181449346018,0.3460907296200974,-0.04586349014183433,-0.22112179276134136,-0.1471204720740592,0.10499571543175319,0.3900227407544785,0.6031350455393323,0.7428220985690329,0.8295287103087375,0.8766255593220782,0.8898845600744435,0.8615010179925445,0.7137811381136877,0.032916973422846586,-0.7095424909338762,-0.8753167680465803,-0.9052911832696711,-0.8767895721418903,-0.7210389760888031,-0.22831230218739867,0.2738907866898352,0.47767538674206894,0.5351456567343098,0.5133757899682332,0.42516532004226787,0.28553891027655204,0.12485121769271289,-0.027181128177288256,-0.15276902162541667,-0.24162038111646203,-0.28017914324702575,-0.2602840337492336,-0.16658088166399995,0.03886541859121945,0.3714069313483368,0.6732606287567249,0.7842284978021944,0.7741018553695667,0.7322664239382969,0.6960498005816527,0.6721752692719891,0.6611496551557049,0.6583858340962866,0.649118038375192,0.6117265528627233,0.5262701578446285,0.4014143170441766,0.2873807055454266,0.25636003799097035,0.3528644755547914,0.5446705699463293,0.693809050179214,0.710093960318245,0.5262627833958259,0.02504990590641112,-0.4826520585662112,-0.7131127029876398,-0.8045783236313647,-0.8392960851257533,-0.8365547716310608,-0.7757351084494902,-0.5705557199861366,-0.17894821002498446,0.028035457494325306,-0.12345695317242446,-0.44945316544017727,-0.6646681570296448,-0.7409508124377764,-0.7283952903453637,-0.6229459691465579,-0.39548370215488937,-0.13161943652997968,-0.07207894471833284,-0.3760862350992486,-0.7396393430847321,-0.8800780934516628,-0.9223938737696787,-0.9294450737450047,-0.9113635717170668,-0.856750734910323,-0.7355980906483236,-0.5191398730185224,-0.2495589284228817,-0.01796714694544574,0.1681001208695454,0.35345280997925244,0.5405174221308713,0.6974743548426514,0.8095039822770971,0.8814431181977896,0.9164091272624283,0.9187403671267553,0.890787550026908,0.8329555599697297,0.7440592556661977,0.6264697001193361,0.4921538745964991,0.3681646861024642,0.2840883576206966,0.2533430971844801,0.2683574851523615,0.31414665424357213,0.3632146018793529,0.35486732903587054,0.20448704900392853,-0.14608878807309658,-0.5767043527498917,-0.8353719961385495,-0.9235916477672049,-0.9462987539901874,-0.9454731766252797,-0.9277045865281174,-0.8804340876887592,-0.7666679068605601,-0.5348229724450787,-0.2175339460104659,0.06793315038961772,0.26297506995837755,0.34886362467003496,0.2756874899025364,-0.11786601992188062,-0.6527313070538597,-0.8124205805864461,-0.793499674179511,-0.6494923769667246,-0.27712509095546445,0.267018300029205,0.5969050460326064,0.7018941535535527,0.6775083567053489,0.5143838161191661,0.1620999767132906,-0.2532951365033803,-0.5244545712473746,-0.6573597912198444,-0.7078466518398311,-0.6921834521044457,-0.5945343722800049,-0.37808546488366934,-0.05919588453073874,0.2552599198125433,0.46292172762577544,0.5713424789982348,0.6184243418056597,0.6282156270015049,0.6165400219691465,0.603777282460253,0.6121193534981625,0.6450740963759947,0.6793818579118392,0.6949455550729009,0.6794033421001199,0.6327108884710595,0.5584120036465104,0.46851168754721817,0.37877742086977956,0.31098084727212394,0.2686087333781782,0.23929918591581928,0.20127367506742372,0.14710158178806967,0.07398588496812858,-0.01014814713401242,-0.08194803307722096,-0.12329468559383326,-0.14324458396753056,-0.15725538989977725,-0.17577906020440548,-0.2052148925190581,-0.2400236736442399,-0.2750699194291684,-0.3154275067893259,-0.38454070741095003,-0.5212672359473273,-0.6872851219306243,-0.7942038828220696,-0.8542714961186076,-0.8936539096329527,-0.9136168836967761,-0.895565363097804,-0.7448292740297946,-0.23702618072942294,0.42845774728638636,0.7217260330020997,0.8060406150453536,0.8348298470244687,0.8621904019130613,0.8903301097973829,0.8797260009813256,0.7990597475329777,0.6556129679450322,0.47710236686796403,0.308000097670112,0.19571525547041516,0.16465939291681048,0.21247518850658229,0.3086070355952463,0.39509476129114385,0.3641827571268347,0.1436583209976447,-0.10100814650251548,-0.23172787253026297,-0.25914354763993397,-0.24566981493625845,-0.2856165160647552,-0.39965524183007184,-0.5328497704708507,-0.6327548030613191,-0.6800915363737208,-0.668955384683593,-0.6193407286168323,-0.5503217172397779,-0.4794975512296238,-0.43214671770166524,-0.4134157530221963,-0.39193142477902165,-0.30262489178858937,-0.06386412105989529,0.3261641364598224,0.6303150341876688,0.7568138045103756,0.7594894949210224,0.5966628137439643,0.03281958151400682,-0.5585691249308438,-0.7656179874600677,-0.8288785070354647,-0.8364049744062861,-0.7653728216918417,-0.44260062696706315,0.1302045111202729,0.4018526303698365,0.4607303415973052,0.4622293652723345,0.48622844841304347,0.5622004368766602,0.6667335589011513,0.7493872244289891,0.7931577586778128,0.8039938463188313,0.7858587573594341,0.7318684231396229,0.6281235123097463,0.463421143297066,0.2511859064729377,0.04856150370819936,-0.08873764141965672,-0.14917095742842346,-0.15194122428852022,-0.1342914611810861,-0.1233436616634196,-0.15179906774170626,-0.24249917801014292,-0.39523009063522835,-0.5656803850828094,-0.6992317961988679,-0.7840466380060209,-0.8310954604925732,-0.8503031024683875,-0.8466217510264605,-0.8207849418696034,-0.7609353871591147,-0.6560458918482467,-0.5169913691344136,-0.42330826702853186,-0.43992729426923716,-0.5135215593815814,-0.5823337513825563,-0.6066978634825586,-0.5338235724976951,-0.21539302650826367,0.382817160155326,0.7244760112574995,0.840754057745736,0.8905433066948416,0.9189058131241575,0.9357031181421758,0.9378217697586761,0.9132448443450828,0.8463675564916672,0.7236967467050228,0.5490632962306563,0.3480456974927305,0.16040245274281806,0.02632290542789674,0.004221410747406935,0.20208647598528598,0.5488255401376756,0.7697682034483484,0.8536562156198303,0.8573291336568888,0.762067062558493,0.3073216917324235,-0.5478300711595239,-0.8434191964757641,-0.9189621971569482,-0.9472267406495655,-0.9648814969519801,-0.9802175292926647,-0.9896703860089907,-0.9930533658868294,-0.9929175974590131,-0.9902214825834019,-0.9828026193840853,-0.9564687036395765,-0.8027791183858722,-0.02870036400806219,0.48978406781507294,0.46206732493375813,-0.16240913430789494,-0.830273974600204,-0.9544632707317383,-0.977758611694749,-0.9811585388327578,-0.9729226498083483,-0.9363605751291227,-0.7653328020307367,-0.19980279979232346,0.21444520015539623,0.22818168439213118,0.042527420350762235,-0.18969581164147029,-0.3117772037251611,-0.27175571897765216,-0.07980951722973818,0.19823412896399137,0.4400520510884593,0.5893825862331614,0.6700799253896205,0.7100638336435396,0.7278828591424447,0.7322194135742391,0.7246942092133577,0.7106710401805193,0.7037849156865483,0.7166599014415544,0.7564397211856063,0.8219557763855677,0.8959086440438006,0.949513076316419,0.9629730054975024,0.9403713434819843,0.9024857576258688,0.8681019981710438,0.8463590411783978,0.8357152373634547,0.8285895446890802,0.8154188197854663,0.7907991331629001,0.7554851211823168,0.709783062794575,0.6434812077725703,0.5416963367077278,0.40682932687862583,0.2752731650995453,0.17188642170980742,0.11633003317325386,0.14410185179676707,0.24749287637556686,0.3305692207946912,0.31904450218969116,0.22781245601434974,0.09421760407488039,-0.06183004099963674,-0.21662109953199424,-0.3004737066023579,-0.20502887139144985,0.22143890467554278,0.7201898837495162,0.8988943921641085,0.9464393079394033,0.9612796576508661,0.9664737804873401,0.9677563160419419,0.9645900456936657,0.9502142917610658,0.892778857986184,0.5452507711905205,-0.6110732808544937,-0.9059195184801611,-0.9530950009651263,-0.9583952424829788,-0.9395591088502759,-0.8624930405007535,-0.4829610274677689,0.44584122041480023,0.7375160572641328,0.5086994824554033,-0.6517722751348269,-0.9011956865016664,-0.934794835251526,-0.9393145222164718,-0.9385874439811913,-0.9422398001792824,-0.9529309947123986,-0.961095340468412,-0.9559392819722423,-0.9433281150210573,-0.9315118817737396,-0.9243599188650299,-0.924222446474521,-0.9298565159390686,-0.9353820142231571,-0.9341681089238145,-0.9222034531025864,-0.8968580894843817,-0.8541721272283778,-0.7811307900914609,-0.6524925391684048,-0.45932330901121626,-0.26766677252341575,-0.12940773931356864,0.03090787211122604,0.3180590532124322,0.6586049286106598,0.8537341126742691,0.9258360021147822,0.9449240510156725,0.9380925072646745,0.9034931974660898,0.8029136610224881,0.48846027435669526,-0.16243287194462083,-0.6253452279187662,-0.8073139997567772,-0.8772601277519385,-0.900977854099993,-0.894644337732508,-0.8337773880858995,-0.6351847828365736,-0.3397477243873841,-0.15225353251702692,-0.10101652267662826,-0.12173356009653045,-0.12555555563313672,0.00425199285741655,0.388699135688698,0.801095925502831,0.9221398703844652,0.9217141137663057,0.8943934308156747,0.8548863239823226,0.7949435428588387,0.7002647975859014,0.5629652908113227,0.41482808007383987,0.30220779882837306,0.22228892719307966,0.13707470964280288,0.014738775553478167,-0.16252794207442106,-0.3739711657022311,-0.562403637029117,-0.6902968926484864,-0.7739237679735452,-0.8390079148721356,-0.8893183267446951,-0.9227060565524152,-0.9431729791192236,-0.9551525910967822,-0.9594515150592603,-0.9512272470828296,-0.8993167452456919,-0.4246949726610186,0.769807155322464,0.8977233321320771,0.767020079252756,-0.39634666301918814,-0.8845021752990284,-0.9412931072103417,-0.943395218044258,-0.9081024329566718,-0.7796655479363245,-0.40934642061665905,0.09907320172846686,0.3923822218778125,0.5164707488753181,0.5718355613950639,0.5995637527406725,0.6133961379332912,0.6218563683576543,0.6259748028363931,0.625521228846441,0.624758484368202,0.6322669575297064,0.6523982703261629,0.6870950657300556,0.7368351139687538,0.798888381793867,0.8620786750354952,0.9089364058261006,0.9322773642902948,0.9362769143307065,0.9214285963886762,0.8762067663728587,0.7607599890246501,0.5264464266228287,0.2306498105620212,0.013620926961175719,-0.09810798367705023,-0.15571872747326287,-0.21578007549918177,-0.3056279433232778,-0.39365492569444616,-0.43055703488461006,-0.38856960665607226,-0.24678150288690798,-0.01918157509930041,0.19935386425429047,0.33770393564105494,0.42281930890655894,0.49469512846547925,0.5666386237761964,0.6321989451631964,0.6795786489252155,0.6975981449215755,0.6741612346661324,0.6043285500842778,0.5026071090610087,0.39873600877776666,0.31428933876249693,0.25232664983430464,0.20820961545020547,0.1812188993507051,0.17166283701914603,0.18869221999023267,0.2323225099145654,0.3034766500220207,0.3891522476771673,0.4521710116182816,0.4227064824598735,0.2079978356304032,-0.22252297337064134,-0.5913853590851256,-0.7709520831651484,-0.8524003557239437,-0.8931442483197043,-0.9137349998456564,-0.9212351592442954,-0.92066455868004,-0.9146200904710647,-0.9008768025067591,-0.859936018490158,-0.7423175316533229,-0.4829069397802343,-0.1370275967688505,0.11998413019808997,0.23790594873959414,0.2636114587807098,0.2796759097906447,0.3854328202473221,0.6003437264435696,0.7892492963194937,0.8855507091145528,0.9230377483605648,0.9323977483369011,0.9226770667644763,0.8837462782664132,0.7664318104780012,0.44648194041838857,-0.09053394232406158,-0.5025805731003439,-0.7112730488931077,-0.8189677153250653,-0.8729852417756149,-0.8900682782490807,-0.866068304160013,-0.7082799509868537,0.2057266467103998,0.8294350201761952,0.9174231918373871,0.9245993083923978,0.8657999228275871,0.5193136328557418,-0.24798210207302523,-0.5360958930279734,-0.5516233029211415,-0.45221744163392547,-0.2916210997037854,-0.11777093036541614,0.06332091537675544,0.25855975206576554,0.44554492419373504,0.579628106447619,0.6459387723721898,0.6489495232918131,0.5875117569320393,0.41964843073217734,0.06423639660834934,-0.4144295918922899,-0.7352617284433409,-0.8754635844129706,-0.9331035573305141,-0.9577808507720491,-0.9660824562928138,-0.949710136191624,-0.6017709489143224,0.6931348316877266,0.8372079182351724,0.8279483292754468,0.7551219844925781,0.5929652626103353,0.3127831548298839,0.0063025674351038785,-0.1642512955504507,-0.14480937558960807,0.06007713406270235,0.3553934963907375,0.5744939500208673,0.677072422552086,0.6946536819310835,0.6278325658721488,0.3946404148700163,-0.1976186932069468,-0.7683164668247499,-0.9382810615325042,-0.9758271652427526,-0.9815759583531007,-0.9755102559470805,-0.956825317006902,-0.9106747759851312,-0.7833517337265117,-0.46584864809953386,0.011375103589439285,0.38195233091835323,0.6042332837762521,0.7320435738715165,0.7933166212445434,0.807843025549809,0.7751917098806181,0.6974043732158459,0.5979272832795306,0.5040057053407239,0.43147132196127524,0.3763822525066505,0.32314457998328544,0.2787639301757377,0.2580679026922377,0.26800859296553176,0.2974130047458494,0.337712425946888,0.385582370181356,0.45576387839634824,0.5438362057312598,0.5872281101346423,0.5738017320727913,0.5491102444154505,0.5359380591377693,0.5268477347777701,0.48711794166515326,0.35196696479308565,0.14559000854060422,-0.026449369246114,-0.1513941957487888,-0.23381757599862035,-0.26107159774821487,-0.21517357145737087,-0.09409926122964025,0.0885949806424568,0.2969486508626063,0.49895589836719356,0.6719926136209332,0.7842588138929251,0.7941251991762746,0.6894341218823766,0.5044820007043666,0.19410809914474045,-0.3052403545030664,-0.6755207169076363,-0.8199604554999202,-0.870768234219148,-0.8869619960951157,-0.8849788259355924,-0.8667344589089924,-0.8231178760464998,-0.7238605100907636,-0.5039630749453411,-0.142345181275796,0.14714989214329674,0.26293155548189423,0.34275369250732024,0.5215336313649471,0.721683852600457,0.8317989436371552,0.8691648707517522,0.8536976023227129,0.7607992052042185,0.5512405565134533,0.2985194745234631,0.14848760958266322,0.13898331249191978,0.242727345582331,0.3592544178005509,0.35197941171046765,0.24923866800136532,0.10781762891259981,-0.04501828198806223
