0.5237339857989902,0.28666761015998726,-0.12177559796128391,-0.5557277646739947,-0.785321115837121,-0.8756966127656527,-0.9116724129623058,-0.9255697003734332,-0.9290169028293915,-0.9265913431577835,-0.920865563347672,-0.9134204509748081,-0.9081395646232168,-0.9055977506475897,-0.8979012030242602,-0.8651032138618207,-0.7127898137503881,0.11082694631155925,0.7470156394227315,0.8554785917465063,0.8753327608189243,0.8678672307535318,0.8413495859628914,0.7952221232669368,0.724583211383292,0.6123873508461097,0.4182839164056256,0.12696825803388032,-0.13831764401519123,-0.2638548434488395,-0.2756316497330845,-0.23332314629707454,-0.17366718828094443,-0.11702733692589386,-0.06498103096724012,-0.008013078587702473,0.06367491916365411,0.16165686735089796,0.3973941059415707,0.8404184270760093,0.9687942711707113,0.9765081663802423,0.9706227841669367,0.9573325533708195,0.9365975060181738,0.9015135275136851,0.8046967701359088,0.33342538670008315,-0.6222158287055765,-0.8555320845014279,-0.8924925109564499,-0.8836367315741477,-0.84529069112513,-0.7732261047738074,-0.6648323631517841,-0.5328381826292631,-0.3903945606624584,-0.18520357934540949,0.14188651805399377,0.4413275282757599,0.5676000304262794,0.5882202578180811,0.5526482785089333,0.4543564603233397,0.27954974860196113,0.05184572389352871,-0.18612674587052186,-0.405639173016567,-0.592476020000884,-0.7241239070250505,-0.7951271602745603,-0.8176958166518474,-0.8017185173376437,-0.7378986437866104,-0.6090078388997089,-0.4769338319501717,-0.4622391109684497,-0.5489989735793236,-0.6315431080299867,-0.6304656053584325,-0.49169370669610807,-0.20878319589847746,0.12131208584860831,0.39249446542515537,0.5807192881040627,0.7062555350694729,0.7884316767351249,0.8364304700817812,0.8519792629333793,0.837379165286354,0.8004102801858177,0.7647912417915184,0.748461116496301,0.6922091279918794,0.47117068492804537,0.08293399514372429,-0.2870214857803222,-0.48402933860412223,-0.5420147041078727,-0.555878473483198,-0.5973243225356615,-0.6764866638755165,-0.7578734242228643,-0.8105825195107305,-0.8254638781570626,-0.7881412772176036,-0.6333899482405942,-0.18104521853534622,0.4091269382102063,0.6617277937779392,0.7012377878873963,0.5972235536987067,0.2801468672872866,-0.29971908478091386,-0.8046422456791184,-0.9290542349193613,-0.9559031955723006,-0.9694881900924422,-0.9740421809809278,-0.9713715242088585,-0.9624018687272992,-0.9432606171699202,-0.8958911289535845,-0.7517026377986461,-0.31408167611781324,0.29222100504147436,0.6019405176201716,0.708729282033261,0.7003861018651132,0.5140005983763885,0.2949886934600138,0.2588420628303146,0.2948564529971646,0.2982670287423765,0.19115957348866436,-0.08492378624589475,-0.3458470983754069,-0.3519696584876402,-0.050733831636338544,0.4088637940303459,0.6750497903797875,0.7794891887207598,0.8161689892104111,0.8200065008145271,0.7983424536482541,0.7558625885525941,0.7118659017814212,0.7029539368453139,0.7522875452598826,0.8349764036838457,0.8986855397524096,0.9262099428619226,0.936154550656611,0.9443907105697847,0.953380216653834,0.9598229016509271,0.9635846348661848,0.968274152319219,0.9746622955510478,0.97870095754654,0.9694127567177324,0.9004255768361638,0.491301541038827,-0.25161156808686563,-0.521425786324203,-0.5941562000735414,-0.6213000677679624,-0.6446475105310956,-0.6725278232320476,-0.7012385297612574,-0.7173067689077899,-0.6997825167283607,-0.5909747725361404,-0.21401818176073978,0.2827297242816103,0.3919566377900796,0.23293334571070512,-0.11958536422234008,-0.4910277738386957,-0.7059842316333379,-0.7868599817066042,-0.7605891752003501,-0.4109847986069646,0.6402248389177176,0.8737335213424183,0.8595317208941432,0.772515809017372,0.6520239600402229,0.5468228584371664,0.4905264379817367,0.49401424684955014,0.5449784888244843,0.6076556657472333,0.6418337762563506,0.6076919900186807,0.44201756970587935,0.06299766621104205,-0.34885837976742884,-0.551531977885865,-0.5870785732520291,-0.49340713335479,-0.26780705406499344,0.005729509414924211,0.1980348908153154,0.27552751358492605,0.2592959596856159,0.15686976545100956,-0.01387458966480428,-0.19217225652589695,-0.31537908331904607,-0.3774886165604211,-0.40290782703286393,-0.41731197215187077,-0.43372839387433004,-0.4334489853389482,-0.3977887543043228,-0.34353350405860456,-0.3028618083894765,-0.3128466318446569,-0.39189720884933965,-0.4899280839358441,-0.5484398516418106,-0.567709215645205,-0.5625621620094092,-0.5262648015489583,-0.42428943926385915,-0.25305165830439363,-0.13033772494497142,-0.156298537831736,-0.23267741468380873,-0.18623193443142097,0.05111522557197293,0.39653565886432984,0.6368206191798125,0.730021263182196,0.7231799524217403,0.6223604771254622,0.35508255890634427,-0.17164415203721714,-0.645611748484391,-0.8450061248351187,-0.9139584696837255,-0.9374850235739921,-0.9443500350677718,-0.9434970627653617,-0.9335697431625937,-0.9017124469272186,-0.8108156226978759,-0.5809767124714755,-0.186440696596454,0.16328294601372953,0.3452059222187305,0.401576678898856,0.32028923163392553,-0.0473949381945246,-0.6216371084306624,-0.8738474569890752,-0.9428184367505668,-0.9613120534012136,-0.9709363820854556,-0.971288719089114,-0.9528215783512557,-0.7765995485309024,0.6624469451108942,0.9172462935085314,0.94350392776381,0.9409671358361698,0.926795969422312,0.9083009002286248,0.8931682554261813,0.885145056634308,0.8828296514230523,0.8829565748854392,0.8820521166412336,0.8773413844666699,0.8667302037959086,0.8472855192671671,0.8140637383904037,0.7642191431317017,0.71212406879308,0.6830206539432956,0.6820422149532036,0.6966336193409306,0.7155214321487822,0.733435768673858,0.7471850107517547,0.7515588605573902,0.7429597642146628,0.7176473870705373,0.6630242130121341,0.5513734311302203,0.3544533547013279,0.134542910234761,0.0077977537091015025,0.0021760125434477193,0.09506026264490154,0.25455049370516686,0.42821413972099664,0.563370662219683,0.646043974981011,0.6906192239241363,0.7101177707243169,0.7077061823358273,0.6814438883467099,0.6192975828985127,0.4691985751654647,0.0953528404262753,-0.45015786520839224,-0.7480151741538897,-0.8423122350825162,-0.8491443463658895,-0.7570927881194757,-0.4400680696589815,0.0012583103709960328,0.18268139084669688,0.022583267533715676,-0.2487820325069784,-0.37112552208968885,-0.39615536840072285,-0.3615627826586412,-0.19229217336425988,0.3321878678694695,0.8238806603651198,0.9429703524890986,0.9661766375657067,0.9540142679970418,0.7777265764953717,-0.32219595473577123,-0.7034771101472587,-0.7199640271710022,-0.6543569966333218,-0.5541417184233703,-0.4575800489990497,-0.4298203763826982,-0.5439227983885656,-0.7375693596987088,-0.8409938915348361,-0.841787729614546,-0.7697039932731216,-0.5912612331192245,-0.24464807867564084,0.1923074213081991,0.5094962516852141,0.6720840211530483,0.7393588610267675,0.7526598235660621,0.7243663518938432,0.6328168145097766,0.39981578416322094,-0.05056324684576839,-0.43334267405821225,-0.5484269882796788,-0.5139582577031918,-0.4237949670652295,-0.3425678977957248,-0.3146479602120989,-0.3530453227402092,-0.41996221808326356,-0.4519164463382822,-0.4464610874044738,-0.4367811500970079,-0.42781238948053757,-0.4071338132295027,-0.3782215019800468,-0.3600090524610532,-0.3648137567374984,-0.3938208694290855,-0.42999152709801364,-0.4341534778490558,-0.33310970566017845,0.007732265210634488,0.49870353940577233,0.7581076774941748,0.8563828287084354,0.9065879739416554,0.9275747649818074,0.8936085077353071,0.7644158189331637,0.5046506061753349,0.15528039418330342,-0.1691829268722902,-0.4287525244883233,-0.6657273327378713,-0.851674833348142,-0.8465710209193694,-0.7900036130345489,-0.7923802465302522,-0.8250998880365841,-0.8492503312761064,-0.8428067101336536,-0.7870367160573097,-0.6836228389808082,-0.5735572688728817,-0.4985452788303755,-0.4748155547674655,-0.5098205857245265,-0.6263745593988628,-0.8001208845122341,-0.7928041416397813,-0.6802737935751405,-0.6204133556328537,-0.5649424734075532,-0.3675262446749302,0.12312589535293014,0.5518860867279611,0.7176430570355117,0.7688382490745947,0.7744389482567897,0.7548179477745541,0.7263824573400326,0.7214460959365204,0.7613614319196129,0.8246969697272548,0.8790105726130168,0.9163742328157103,0.940075230784256,0.9537910972958678,0.9587776292925789,0.9507528813418648,0.9019338684969431,0.555670309420315,-0.5367500320404854,-0.8158754532984138,-0.8645357681935627,-0.8660372073340168,-0.8495933120764624,-0.8452917101908106,-0.8645909858612715,-0.8878818832760434,-0.9055397683533524,-0.9195694438955744,-0.9350568676125701,-0.955634786922537,-0.9770874937771964,-0.9826324286677619,-0.9554076603872341,-0.8921772499849607,-0.798689442715634,-0.6779025315251788,-0.504901085084191,-0.18870422860641173,0.31736640138013267,0.6984891388426423,0.8477957027240911,0.902245124675975,0.9225519175008147,0.9200427384272596,0.8956100361776846,0.8627883093734796,0.8394779463351901,0.8308347551999371,0.8331559716471225,0.8440543016134467,0.8590304651419904,0.8664431616154554,0.8493083525089914,0.7963732720173073,0.7035049508089093,0.5570686903359121,0.32900937710352723,0.04703510435510125,-0.17351753363678218,-0.30328416590425533,-0.34365899280080014,-0.24105952676622744,0.1488264523403903,0.6658526414457931,0.8481382561916051,0.8790544135397066,0.8732370585814145,0.8489617056046258,0.7961687329547158,0.696670784112646,0.5500421465333645,0.39187093622944075,0.2808805529766924,0.26133274288865493,0.32139636556322965,0.4043117957717127,0.4735088752791916,0.5258068530572145,0.5586256756437197,0.5736602456460981,0.5775673343865654,0.5801535152431979,0.5866970777298011,0.5837025378002735,0.4967440156149918,0.18460368032994703,-0.2329420960723865,-0.4980522428856023,-0.6466936615747986,-0.7298316774967236,-0.7709590666164661,-0.7874948210991974,-0.7927258375008646,-0.7874517546756101,-0.7584463406374399,-0.6979781986324269,-0.6123737288162957,-0.5151113235422373,-0.4184411931061528,-0.36676222868493197,-0.41040608467491446,-0.4995780420193804,-0.549569152647062,-0.5267062738328971,-0.41561059107775683,-0.2043151294122494,0.08178561764037642,0.37517136521971195,0.5959317291648405,0.682261430006157,0.6955050146666688,0.7032891325797564,0.7164252703778902,0.7212909565271561,0.7002041845582632,0.6210036297666758,0.38347353043739596,-0.25408278605610224,-0.7951518051791315,-0.8927120680654839,-0.878513611307497,-0.8334908036294706,-0.7781760666871871,-0.7268561851819997,-0.6874628430121954,-0.6575355044811562,-0.6292334240954485,-0.5915646210594917,-0.5313998794957724,-0.4316740110125764,-0.2666295751455178,-5.097065007547838e-05,0.37098910989190526,0.6952664221260026,0.8325674347251157,0.8532248077793396,0.8421866743584149,0.8303218247395017,0.8206953689667947,0.8034740717767026,0.7583225200576381,0.6513829895692981,0.4645180501055799,0.3290066880827865,0.4489053553705181,0.6584385568903484,0.7294551319791691,0.6766560692311157,0.48920031572893097,0.17116332345355154,-0.10063257856788714,-0.2310010845473029,-0.31885659120690263,-0.4842266150907872,-0.7067703937159244,-0.84255080232642,-0.8914285836913881,-0.8992725857571905,-0.8800897894636213,-0.8224081278718605,-0.6856298364146839,-0.40848034712002046,-0.05082165338188458,0.1965564241969461,0.27050978651188046,0.12909065307262454,-0.2287321622187424,-0.3898117338972675,-0.32007115817497556,-0.16976236519278765,-0.061085148229820814,-0.06552648957335769,-0.1784216905271014,-0.3437418230192153,-0.48813069543270554,-0.5513410465057093,-0.464647054768449,-0.08821703818780685,0.39658531131171126,0.6412386909663167,0.7473527879054631,0.8060899538098153,0.8489836670438324,0.8868120465431489,0.9150478707213108,0.9154831045219289,0.8813185406662866,0.8249580597735539,0.7693688748830421,0.7423907466361518,0.7641374126942843,0.8305551751561021,0.9013156854765108,0.9318354861293829,0.9259619407979875,0.9061490519840295,0.8758992396483857,0.8137968461670292,0.6282974913242998,-0.03917828564468442,-0.749464937887055,-0.905348437507927,-0.9251223468306259,-0.9098099427935511,-0.8783669702836716,-0.830062934219458,-0.7573458507191495,-0.6737381752710397,-0.6031452818715713,-0.5424425414680593,-0.4916117004071901,-0.4930288003494228,-0.6146441569422195,-0.7914011160376975,-0.8960277661465479,-0.9372535756784329,-0.9513476311520228,-0.9521226983646811,-0.9391671126014465,-0.8940595489653039,-0.7495104015824714,-0.40920228583325985,-0.18038435361827615,-0.3292340597519443,-0.6083068813579225,-0.7584041641675598,-0.7811837154891742,-0.6099682108817724,0.3244290596518689,0.8410479826843081,0.9105350634197619,0.9177809182527558,0.9070777635581078,0.8850060376042455,0.8532144805474715,0.8149704177114853,0.7682002363034914,0.6851524073134085,0.5638401027640939,0.5273062970629272,0.6164572249933783,0.7443526946541483,0.8181750568631376,0.8305252034944167,0.8036930149889855,0.7377706839435327,0.6223806684761838,0.47111999162697815,0.33642797701796257,0.2556369165761901,0.22117112766960795,0.2011434845391778,0.17668363200994056,0.14867357744847323,0.11983412243207764,0.09781343282945942,0.07866160329326008,0.04882113247668407,-0.00011191670437324145,-0.047954429917074985,-0.06450185491078461,-0.09990443907784727,-0.2503498276373899,-0.5255632947946821,-0.7800777623937803,-0.897945549196744,-0.923828633928981,-0.9040787232203221,-0.8237360657429433,-0.4760644888382856,0.5617277137932427,0.8930096242841165,0.9410319178160164,0.9475720576383031,0.9400393611969723,0.9226131170051507,0.8988912955439557,0.8729658991499074,0.8426349765016309,0.7971088924147586,0.7022846588568831,0.4493565517469189,-0.08230874272867011,-0.4627297688856738,-0.5413462534999252,-0.4483382382179262,-0.16443306313256906,0.2979388886064354,0.6117994244202377,0.6225472096305394,0.2610410958205752,-0.39890581308886514,-0.7384115431830225,-0.8565139881555311,-0.9053411021252961,-0.9291930344013399,-0.941181543923798,-0.9450240665311518,-0.9406489158974329,-0.9237158179154272,-0.8764252928245424,-0.7022326693604306,0.006599418841116193,0.6490386974217929,0.8139313525758032,0.8670863243924922,0.889290139171163,0.8954450139797907,0.8877156392612635,0.8650709327941863,0.8302351546917383,0.7976848782489091,0.7886255695605252,0.8111357782523015,0.851506286093501,0.8907550718925136,0.9193917681242151,0.9393691166403251,0.9561834596487783,0.9670838640007569,0.9308080688521158,0.7059804588097115,0.20089442840229382,-0.31766409022190234,-0.6717313978891563,-0.8636826894548684,-0.9501231908729567,-0.9846363116886001,-0.9966622776466585,-0.9977506164416486,-0.9771019955920368,-0.2729734188665421,0.9032290568715008,0.9619311588079514,0.9723102852054859,0.9728321192222336,0.9695773626725654,0.9630279843437748,0.9515158139223912,0.9336966213354749,0.9104245992594174,0.8834075799455229,0.8507994874794449,0.8057130833909416,0.7590984839519339,0.7517790549644262,0.7873687302145518,0.825436620547091,0.8467601939450071,0.8553827478958211,0.8533196702626633,0.834559034813263,0.7699534657720013,0.5344753772340667,-0.2378665151723942,-0.8004111638318742,-0.92269842293699,-0.9506419356073107,-0.9411966420421395,-0.8505516098956574,-0.5395678278380981,-0.12577156102437648,0.08604385202109462,0.14002554648718882,0.1327075731738809,0.11588815078142586,0.09701556333433171,0.06587642172884152,0.022031113335619038,-0.017869931315572032,-0.020492913809441078,0.04766470700620528,0.18171882677078952,0.3273291058599969,0.4357151933291699,0.49010370838922207,0.47108556359530296,0.3196596299460399,0.03568246740864507,-0.18986659267528547,-0.30409109931926576,-0.3697609108882112,-0.4293372967928176,-0.48295420891372837,-0.5037527815130292,-0.4622092973458958,-0.35061223321763857,-0.2005128026393282,-0.049370254234957445,0.09841113065889985,0.21832913297970483,0.260635451334986,0.16555248813085535,-0.09488610466889189,-0.4232995058518922,-0.6664238396928254,-0.8056541330347294,-0.8825649906992091,-0.9266625384044871,-0.9496383048456978,-0.9460547810709836,-0.8618022381421347,-0.38757730974940935,0.3207118938385798,0.5033251995238289,0.4658017674151669,0.3571622559093297,0.24654039279094578,0.1754062383465218,0.15893405958092677,0.18835286844838145,0.2582672028072212,0.3829119508436101,0.5724146665257489,0.7629398544741771,0.8779327957848021,0.9271795363586098,0.944566110034594,0.9461397996753862,0.9354549026604927,0.9028387672872064,0.7867718616832187,0.20910511783089628,-0.6713380872167691,-0.8765254833531622,-0.9174141806463086,-0.915487890809792,-0.8769768168240437,-0.7524995097016962,-0.383389520446953,0.23148998478131905,0.5903587978288745,0.6852986701693318,0.5340852931398185,-0.19642370573882736,-0.7297111823610173,-0.8692846479296991,-0.9184927715367741,-0.9428875697816317,-0.9576882911786953,-0.9664962159341435,-0.9668320668785116,-0.9345314737099687,-0.6992457739304555,0.11705903392084857,0.6090571987986297,0.774334109393009,0.8513144295259987,0.8930332283014227,0.9136900019942781,0.9178097651241002,0.9040516643898365,0.8642260348188824,0.7775434280288592,0.5887443595573092,0.18812186119940855,-0.36902233685192587,-0.7120326920357192,-0.8306593515933358,-0.8403962362687504,-0.7497493300233116,-0.45657161700499943,0.03235770088066764,0.3578093092892403,0.47381969043915123,0.491985750187592,0.49329320376680297,0.527786705546869,0.6039300526982332,0.6965486842367489,0.774621470473854,0.8235619789156376,0.8473887442856259,0.8523012664527115,0.8387799369618737,0.7952603052173576,0.6996864481226092,0.5085086673410417,0.16273272820740955,-0.31950481012264176,-0.6475255625564545,-0.7256810116923,-0.6907636788242932,-0.6135761064240016,-0.5144341079966611,-0.4258181642820354,-0.42497422203866503,-0.5719528737417653,-0.7581827149886788,-0.8491347651179245,-0.8536248446714225,-0.7766097088583076,-0.506245333237225,0.026688030048666826,0.2450151502219428,0.2020251471168556,0.1771917693615821,0.33616303212134296,0.6504058893022638,0.8443550876947916,0.8957241976341203,0.8944971769113965,0.8690307739420341,0.8206439275089535,0.7453462674051147,0.6380898177464079,0.5035734182838264,0.3789961291443011,0.3030004365235872,0.27704279648949337,0.3003836329542902,0.3965079293175458,0.5722803718576851,0.7472648715355047,0.84933906074935,0.8841148612890549,0.8663617338287608,0.7906911697931188,0.6398604942216289,0.3961175326021677,0.04853966172999561,-0.3618962481105109,-0.6781829145660658,-0.8264033579454554,-0.8764669588603953,-0.8921905788898296,-0.9001722805807076,-0.9058466826552691,-0.8994745289771943,-0.8641395000534575,-0.8043457106179512,-0.7372431250700825,-0.6673802715723132,-0.594435043239447,-0.5257425111950588,-0.4831903529056959,-0.4955149843445378,-0.5668915031284169,-0.6619868660719228,-0.735236033012631,-0.7460970289622246,-0.647849426190165,-0.3852212095313703,-0.01129708109696739,0.2770490158948537,0.4071959959974442,0.4094275148771634,0.3031954700964095,0.10959818776693872,-0.11982576856711762,-0.3247634799363872,-0.4657998470519116,-0.5182776091022271,-0.4477140307613514,-0.21103776764218737,0.13084132049109198,0.41107865862152027,0.5839394098115175,0.686116917987187,0.7527623939068911,0.8086111865244698,0.8587302044098064,0.8938907468752364,0.9117142098598062,0.9147375189017282,0.9032281371051668,0.8728067483126247,0.8134276213489392,0.7267480840125983,0.6544447213145946,0.6513826235361183,0.7041514753500855,0.7546488496402903,0.7575079567537499,0.6788980872172278,0.4547400164039667,0.06733428991521138,-0.3058075120020989,-0.5716060784335674,-0.7568258425658363,-0.8657347873699187,-0.9126609617001259,-0.9185754458565787,-0.8702913074185701,-0.5423536652611322,0.5775286641562365,0.8504592899465592,0.7685155506736209,-0.6374989866997316,-0.955466804562298,-0.9779247814225321,-0.980798177618859,-0.975443495785753,-0.9530221833127905,-0.8678050324235648,-0.5214040665146215,0.26224591186844337,0.5509751060372923,0.25591974577901466,-0.0008956422744143158,-0.08877346955091012,-0.059358512446987505,0.09099490646582165,0.41558066138008554,0.7722336604866017,0.8838629222136095,0.8503728820544189,0.7052610128232396,0.3231309512655002,-0.149070306621803,-0.3712826967186076,-0.3655145364770673,-0.20175343510996466,0.04313023503119427,0.2524347401620228,0.40078468973246595,0.538002766936569,0.6689154563983603,0.7621177916299768,0.7915310905823649,0.7212912085522223,0.3864975435639124,-0.2791593641536593,-0.6309277435293993,-0.721347535782569,-0.7011111537285516,-0.5725036527369285,-0.26952503211207396,0.15403552445830096,0.4565888017283264,0.6268071674104423,0.7500853502225107,0.8370484545563186,0.8722853717516889,0.8704603205224,0.8551531490400298,0.8377079455401534,0.8248614455503123,0.8212676976301583,0.8208783479913888,0.8124350521345426,0.7893562404750568,0.7459600342523228,0.6729331921679061,0.5519756232293183,0.36418355052734847,0.12145674045438759,-0.10931989253691769,-0.25665244743668797,-0.3082826140448023,-0.33121611098985215,-0.3952703114291657,-0.5365822850967678,-0.7106828980063297,-0.8288415466265858,-0.8757153755873502,-0.8822989200401448,-0.8747170049301695,-0.8637719103041093,-0.8437299729573182,-0.7915519417137238,-0.6431256166817341,-0.19980550391605184,0.4984838315052634,0.8260893653833944,0.9239367328167095,0.9573669509377921,0.970894233842849,0.9765808632884999,0.9776001631353093,0.9746904873925248,0.9669327350879476,0.949712610325695,0.910136266999233,0.8227859068935895,0.7078379259726243,0.6709255600308206,0.6711512424140086,0.5997107890320047,0.3111183064806694,-0.3617340247616289,-0.7926269659468463,-0.9154555680902619,-0.9539493255287492,-0.9668395401091909,-0.962893550068487,-0.9136835812085861,-0.6622187024673288,-0.06700946912687926,0.30293527936985254,0.41192044941026246,0.42802410772387034,0.4427486819183573,0.515368540919741,0.6491043837293791,0.7818757272082218,0.8625786575862382,0.8785487687388236,0.7235459140076821,-0.5352576338662165,-0.9054188895655129,-0.9418158235023448,-0.9389597520125919,-0.9137300675970741,-0.8499931475512541,-0.6982716708667892,-0.46497152968215183,-0.4527633391039898,-0.7332240147546314,-0.9088032468857391,-0.9624944278692618,-0.9796077719728735,-0.9862214363966447,-0.9891950471003174,-0.9909684382937324,-0.9920907923187331,-0.9919576184511574,-0.9813099195011274,-0.71524013402269,0.643176040048415,0.8285602910310425,0.869708279286456,0.8902800496492073,0.9026322903282299,0.9100478231852936,0.9155159377974408,0.9218276730633218,0.9295605548656437,0.9357295468115158,0.9303786837383984,0.9010062327391342,0.8544734143893046,0.8269576546624897,0.8353747510854742,0.8564055371453639,0.8573260397454393,0.8092455507540158,0.6840592261907497,0.4884931018947663,0.2776690368699473,0.11940662125800712,0.05716381409773081,0.12228488100361669,0.3353619358537161,0.6139037838875251,0.8063728079671605,0.8951390704025527,0.9292210108555637,0.932840083948049,0.8880899173046586,0.6289446718126162,-0.13717206862102307,-0.6109278778927951,-0.7581802806165808,-0.7910902047963251,-0.7432717103769805,-0.5556239027090097,-0.0981273723446515,0.420352474494914,0.68806753047376,0.8020178346275124,0.8508341922512563,0.8644032212584882,0.8454723420172678,0.7697987131937714,0.5756495942401317,0.2461581418932494,-0.038511441040809384,-0.17709656277423516,-0.21501264223562505,-0.20648720195777245,-0.19494037246965853,-0.1992153174128426,-0.19884448577854452,-0.15925513373771644,-0.03151060456830868,0.23218633722578588,0.5365210363968519,0.7206848736746869,0.8078653265509302,0.8602492836570986,0.8947451740284871,0.9087128776057511,0.9042211140869226,0.8835945436917021,0.840146803680861,0.746590354632539,0.5591971570502152,0.31876178539662375,0.20012921493500735,0.23635276867815724,0.336570520768079,0.42585628804172637,0.47449608191412157,0.4747114615879758,0.4212688315647666,0.33716694054775914,0.2765050914783849,0.22830244469910482,0.1239940456887242,-0.0905867026306641,-0.40301498641093575,-0.7178443852264574,-0.8868342882337489,-0.8800865062457865,-0.8353456473528141,-0.8322202285752782,-0.8457905332906591,-0.8215352167369944,-0.7547939555683333,-0.6706846521704806,-0.5698377551031107,-0.41527196008934414,-0.14081272438606748,0.215334388310934,0.46699847005581474,0.5859588420560118,0.6449318146870031,0.6918537650167312,0.7426514478590519,0.7937129807340696,0.837709005672262,0.8648030418357555,0.8668769619670466,0.8206914801837581,0.5903123977409115,-0.28801785904450505,-0.8079214237215224,-0.9124061217326789,-0.9451994693702908,-0.9612510100723587,-0.97098204431817,-0.9763510751127535,-0.9772680347285196,-0.9710168122531496,-0.9460485317843623,-0.8724791999250726,-0.7072067066325272,-0.45722853207220104,-0.21390384746372992,-0.05391265961076815,-0.004769341026271938,-0.07924012061340456,-0.2841401934517976,-0.5520393459587156,-0.7479702469116165,-0.844423019511905,-0.8831171809100213,-0.8897202308608948,-0.8661472816953737,-0.7667595692926211,-0.3319947030745724,0.4566374851704999,0.7188048275878202,0.7577920085717883,0.7230225267959498,0.6600802345731336,0.6377567699242828,0.6886562587239701,0.7486800072908946,0.7807906647531111,0.782973944982214,0.7490367354348904,0.6598760014167926,0.5074140369986608,0.3552248150799294,0.3002702272760665,0.3526417242989985,0.4476563263076745,0.5371691959870337,0.6180712528029337,0.701564979363429,0.763765981015094,0.7264562624178983,0.5989587831760753,0.4670229273757896,0.36409414309640903,0.3057875157088434,0.2967271104479063,0.32471956841790933,0.3731997863532394,0.4140302303972991,0.13164222143437526,-0.2869634228673119,-0.517060488113534,-0.6728680250562217,-0.7528462340882758,-0.7564633961383551,-0.6474038734114324,-0.28874674404804096,0.26879738572201356,0.5852289111633038,0.6963605889889881,0.7209787865273495,0.6967667315420617,0.6349824125219337,0.5548854319361433,0.48859619830319106,0.44309327518202907,0.3878074505512014,0.30833416040161243,0.2691953363376962,0.32713985284749353,0.4372932346455434,0.5357965516527523,0.600235272123894,0.6330982464163586,0.6410476861515371,0.6251485965624077,0.5737155904453473,0.47023790529493403,0.3035578523661001,0.082198247298065,-0.14684550931924845,-0.3127493674764713,-0.381437603451409,-0.3693199358579323,-0.2902874715518193,-0.1359092467424187,0.08963220190989833,0.31041507309470867,0.43066446364027194,0.418941383047548,0.25875126922004144,-0.04594264501955546,-0.3334837905021385,-0.4297416353924522,-0.2575762953248986,0.21048705592321068,0.5543094581141667,0.6436205039722109,0.579905134854255,0.34442307136021605,-0.0848080991634017,-0.509412838261057,-0.7570182528751798,-0.8727391369554545,-0.9265270904623418,-0.9533508791176019,-0.9655643240518433,-0.9637595331354424,-0.9369804578451469,-0.8605603573210928,-0.7172423384024839,-0.5232579532265155,-0.28066774157320895,0.045911224316736374,0.39496339639639066,0.6212934442753242,0.6925282627114001,0.5590593457814008,-0.30425186117402087,-0.8967281793572641,-0.9568898521998788,-0.9441686374650375,-0.8548934488768613,-0.35445285961374684,0.5712119721292823,0.8301691229136597,0.8944698660615121,0.9143275986363082,0.9141664048944554,0.8936302584723457,0.8355812797623499,0.7110069300378357,0.5170239006270159,0.30751473578698824,0.16384473443956338,0.16410280793987309,0.2735585236995609,0.40289001515173795,0.5321895751301886,0.6438693143732191,0.7164130063091619,0.7373406416203573,0.6817894503716494,0.41253780385968636,-0.37272996843933043,-0.8474904478682089,-0.9419928071250422,-0.9558269515322291,-0.9433500254031323,-0.9101771532107739,-0.8491900471105766,-0.7462850925852541,-0.5832230566063002,-0.341786760985199,-0.04659862783459301,0.21433479906862202,0.40602414472456094,0.544941333096695,0.6521930342703226,0.7444077157733465,0.8204061663512563,0.8716257454189099,0.9006115039875635,0.9152985011637988,0.9209930517036611,0.920098076934786,0.9113497610365583,0.8899019927966536,0.8498812352980646,0.7884582130244481,0.7614926956475777,0.7892966520848698,0.8149235999701645,0.814211714710367,0.7715458095344385,0.6414596655296027,0.27945818763346514,-0.3618293074226369,-0.7282604238784205,-0.8232099878674424,-0.8159782533081509,-0.747410720105919,-0.6229601171095887,-0.48358503857770074,-0.41086561411091155,-0.43918713212221977,-0.5367017448362748,-0.650880938970101,-0.7397674802569143,-0.7854438627795164,-0.7814723359206919,-0.7372147533163546,-0.6927368068609264,-0.6856723002296172,-0.7220398705092012,-0.7784055133956883,-0.827827361551913,-0.8605814886177826,-0.8749786295430606,-0.8665342452984602,-0.8250526445752742,-0.7223519883574703,-0.4261466932167658,0.34097073256050686,0.7180609302723128,0.8073981873977484,0.8512516130468639,0.8758783171222488,0.8819737798763723,0.8764855734512844,0.8685520089254397,0.858512644785553,0.8276950018971133,0.6850757786614061,0.0816853726695596,-0.45428620517361457,-0.5313639056768972,-0.4516224147905295,-0.3075878363852328,-0.1657096300199708,-0.09720186278132394,-0.14668790936490722,-0.288967555654528,-0.4312787865119703,-0.4975399503708428,-0.47658119576378205,-0.3724094714210479,-0.17396922610006957,0.05695635890878219,0.17306775977156977,0.11297671225164353,-0.12025953749550435,-0.4283663710929563,-0.6381256743635445,-0.7014340894173287,-0.6220853380580368,-0.40863765651138506,-0.2525956301837876,-0.27860216055254977,-0.3456058397532891,-0.2769912784068639,0.09961335109168658,0.5847370055058682,0.7708463666252804,0.810129227857308,0.7830878996318802,0.6442230202304253,0.12788063772577674,-0.5732159586750287,-0.7763139912514841,-0.8328256350794595,-0.8732184123436892,-0.9101737948984575,-0.935596310118055,-0.9406572420487925,-0.9067378067191366,-0.7049808689020506,0.2725607991256455,0.8102784282009007,0.9092848747609145,0.9364208501916902,0.9402053248290562,0.9195821859471037,0.8078375775381599,0.11274039690495845,-0.6497135577969547,-0.7794857083345194,-0.7716031389524359,-0.6903709975492534,-0.45724014080152126,0.20581832980436732,0.8241536651934583,0.9616756983348169,0.9843351614091855,0.9858595388105432,0.9803217795446639,0.9640841482905872,0.9026456538130226,0.37432407132508677,-0.5306764423379864,-0.581640933764379,-0.5163635515513002,-0.4865141485010928,-0.5107200117245788,-0.5690730335694449,-0.6434487979324188,-0.7274266909671623,-0.8146865823822252,-0.8770909417356982,-0.8743370398088275,-0.8181177219486099,-0.7772645230188017,-0.7857629458831479,-0.8271328974339981,-0.8712076438433635,-0.8990656301825796,-0.9074576210320626,-0.8967794303426831,-0.8596780158643392,-0.7603648545652998,-0.46372855018172454,0.23754591814634438,0.7027598151755566,0.8404229940159389,0.8968096195823475,0.9310629242694171,0.9517627683898522,0.962812006892069,0.9665534084114648,0.9615075321542901,0.9373745918390476,0.8702660255480154,0.7665601756817252,0.7263867594695346,0.7741534291711292,0.8371419501890891,0.8781109517269795,0.8930742956152633,0.8772085112736075,0.7987115608092428,0.5449657248297606,0.03132767862375901,-0.3633052463409339,-0.527153347051457,-0.6059955510891544,-0.6811071760404976,-0.767225238404353,-0.8447644105723623,-0.891682608420677,-0.8979784755944236,-0.8472919759144184,-0.6635751981589695,-0.179806584603749,0.3998085146386965,0.6966248954030467,0.8112363390047591,0.8371710984338777,0.7872144633560365,0.6643943249907904,0.512116511011434,0.40091947002395845,0.3559863015775957,0.3466444514577075,0.3384161176496328,0.3096417092238788,0.2594821141163162,0.19653901132222748,0.13512726269345185,0.10104017368186309,0.10630789865980053,0.14646196722367502,0.2284291696120299,0.3807423703402131,0.5590825703928254,0.6835390223964192,0.7348201825446524,0.7210948997934954,0.6081320830653008,0.30361841164424835,-0.1168353875163894,-0.3493012186111664,-0.3806075133491628,-0.2795928371322725,-0.0976742492979058,0.094201038983569,0.24145830749529468,0.3342106152031694,0.3734188005992358,0.3467917605977377,0.2262037474746917,-0.07237183857509648,-0.5753206786234197,-0.8478899995262481,-0.8784753776333611,-0.8557831618374263,-0.825185782925083,-0.8002676786212578,-0.7873592372347737,-0.783022432673018,-0.7714877833327455,-0.7263919840345769,-0.6104624975899259,-0.40969442991708704,-0.22954316511982334,-0.21683654641909675,-0.37805175224956833,-0.5860443439523539,-0.7340709931409731,-0.8202703484990915,-0.8689112098860642,-0.8940352547232718,-0.9026958604219805,-0.8955854069716108,-0.866834977795949,-0.7989657862857654,-0.6476568958764962,-0.3421288961958328,0.05483109769139787,0.3498773903441345,0.5323206715207313,0.6544899996636486,0.7385686836450874,0.7999496890611919,0.8462105006942531,0.8809220934578519,0.9070941612415871,0.9262409508717645,0.9392422179624521,0.9471375448799755,0.9499205894888236,0.9468704414344655,0.9362510985090772,0.9173750054700566,0.8910945920986072,0.8598402768749163,0.8286637388886237,0.8046375869013576,0.7846284704293811,0.741849780871373,0.5778561701352557,-0.13531451836824626,-0.8411799059980595,-0.9601577152664001,-0.9813542649030131,-0.9843003321644025,-0.9786157564417783,-0.9591530558664338,-0.9108499255699289,-0.8394031005341341,-0.8144913864790142,-0.8610187365473359,-0.9150407400920673,-0.9409442337879798,-0.9412934689811924,-0.9085674004322766,-0.7770565293242242,-0.3407647180235359,0.17428214981030568,0.3116453449602336,0.24604097175553782,0.15516575379563033,0.16390186835697246,0.31028233406963507,0.5266463408732786,0.6959027078643036,0.7847153253477758,0.8191009458287697,0.8153836641142092,0.7685900338099785,0.6436322862940682,0.3815237494596273,0.018863478874341234,-0.20518738482728188,-0.10765884380823179,0.26187441691749164,0.5311435022928119,0.6364217954445622,0.6593485276899055,0.638408088229427,0.6002041785048227,0.5614563512399546,0.5264218607441199,0.48895632334406974,0.4434357002298056,0.38909776462310036,0.33462763125725825,0.3014031887769674,0.3140044292253213,0.37084069384234974,0.4476188455249186,0.514835141849897,0.5502964450223916,0.5435197038093531,0.48769699510428094,0.3902050056684396,0.26878770271063007,0.14749762226545088,0.06385833212242778,0.051308860300970156,0.12236776001254535,0.2740794561871774,0.46991619287631187,0.6367486455571066,0.714255701533306,0.7101076755819855,0.6424664986985525,0.4505684572221985,-0.04723428677709109,-0.5322867231053379,-0.6880331793379642,-0.7354487160282344,-0.7557519978392473,-0.7654338033232848,-0.7623860591339731,-0.734064656045395,-0.6498403548703066,-0.4378076498223101,-0.029496105029436042,0.3781751322238647,0.6083047513583894,0.7185265318193818,0.7746724405533981,0.8085925811513287,0.8289037448920628,0.8337070005280018,0.8265065441147933,0.811738432187989,0.7895554762411079,0.7507044425013641,0.6631463929658474,0.43548844248277585,-0.04400729662783978,-0.48040831577581505,-0.6820923319866795,-0.7715316200135339,-0.8194330961829757,-0.8500523975154699,-0.8701834451245826,-0.8834279421407885,-0.8933066311871196,-0.9015988761258624,-0.9080020005141698,-0.9110749423386071,-0.9105192944699299,-0.9057019302102101,-0.8974669558982984,-0.8866337517599648,-0.8705717837249657,-0.8441048307206452,-0.796983990282448,-0.6910075400739875,-0.31572816419237965,0.6740974172468118,0.9465038759147872,0.9708250449645421,0.9717619437515336,0.9717763809901506,0.9739253127658649,0.9778654598714168,0.9820935181614031,0.9846067824789204,0.9832523509844828,0.9751885296694124,0.9529509070237167,0.898695508133253,0.792677894707018,0.650331215328303,0.514112612268742,0.3716525328363915,0.1583964231547252,-0.11577070156639335,-0.30159475127547214,-0.36893288765932647,-0.37468946950082194,-0.3581457351771931,-0.33463781256164504,-0.2970239075153593,-0.23297357289486645,-0.15130718069677362,-0.0891394210802294,-0.09093497990555521,-0.19512972903513842,-0.3563487913108266,-0.28697179062145506,-0.09543303809324437,0.025198741602510455,0.031858513921046334,-0.11358963747395177,-0.3978356132309463,-0.6760184350102996,-0.8370643518506784,-0.9056337495875483,-0.9217517024995562,-0.8975524934207144,-0.8188124491099366,-0.6542280698751534,-0.3716713325177334,0.0643251626740535,0.5775595248023659,0.8520212787517175,0.8904919126128717,0.8523294758481268,0.803763862576619,0.7605463954824977,0.7224106093588745,0.6734151634990498,0.5659151258395425,0.2750317243264289,-0.27882382420068813,-0.6279885745198033,-0.683780186378635,-0.5812294168477381,-0.22809665311963478,0.516532871577664,0.9225522901898978,0.9809905614099349,0.952649740331474,0.9065505494533415,0.8612777180800374,0.8090695412711271,0.7367915861188619,0.6340627820083826,0.48991585356152106,0.2944103852856936,0.06024578729103211,-0.18319055323478897,-0.41958591343432466,-0.629546797861371,-0.776619979064445,-0.8018827843091749,-0.6925938895563739,-0.5562279476019262,-0.5025760746142576,-0.5591304582536997,-0.6688871906987793,-0.7563845992571088,-0.7919225842075494,-0.7457840683772378,-0.5414874947570916,-0.15063486444699087,0.25196025456241644,0.5121206468939546,0.6199301534030076,0.5159026887523038,-0.6040126984306183,-0.9710243864128695,-0.9778599910500033,-0.9715275986188384,-0.9611070716547772,-0.9470901257677428,-0.9316056103072012,-0.9161531296287904,-0.8941831494332763,-0.8330915642126298,-0.5571058557927467,0.2534522105408797,0.6930835679921324,0.8194265302202393,0.8671653860175986,0.8892974751531812,0.9018535442434754,0.910088274142743,0.9143447600931999,0.909139347740178,0.854277626952378,0.3035706462451725,-0.4076891932163243,-0.39500124942060527,-0.1358702238885445,0.20382241928775052,0.46955113972288864,0.6346910200417359,0.7361619239552937,0.7969788293961443,0.8262244407225589,0.8374657238328544,0.8690078874603059,0.9263953398673219,0.9701568024111686,0.9886935237582378,0.9901087411605044,0.9812543820179394,0.9649061850299412,0.9381991595171498,0.8892366947330036,0.7904238444601982,0.5946561326196664,0.27100470845087166,-0.09888532402561646,-0.384080464832926,-0.5622749319678174,-0.6707393087722997,-0.7408196233780462,-0.7871210506799616,-0.8080580736440351,-0.7814365003321285,-0.6697776500128497,-0.4904907632761364,-0.3123444460728607,-0.1646142754556901,-0.03764083588043842,0.07855641143822147,0.18290517335861897,0.2542511631791848,0.24307505850386898,0.11808497984410969,-0.10004582274977743,-0.3320895885261803,-0.483952012972106,-0.5111381804717691,-0.37453988854068604,-0.0408835931894086,0.3162354808595693,0.5005551580985986,0.49752535649416535,0.2646714424060396,-0.0959586443112339,-0.29258586806274883,-0.2853991102206941,-0.09100161597603104,0.2422916564703705,0.5312370416269979,0.6793527980118211,0.7101269607826315,0.6052544326223485,0.20707721395855014,-0.4117328428784011,-0.7215601811142961,-0.822687881738351,-0.8494712706675795,-0.8386484682786,-0.7977358950067494,-0.7291794817302244,-0.6449599354967939,-0.5343702317416256,-0.3838344517190094,-0.28694477267837415,-0.3886076939603872,-0.6367348553009192,-0.8138669343383856,-0.8817385365868107,-0.8965053274700246,-0.8857004508987987,-0.856197827026709,-0.7974080188702899,-0.6701495455719729,-0.38291433282007825,0.11654513474795984,0.5120393802962199,0.6356915993150282,0.6140557682711117,0.5395424171518286,0.4527805360717625,0.3751643211724969,0.312385730210411,0.2239192478812938,0.011943864148032507,-0.2699543060724615,-0.4656984802754955,-0.5386629193078339,-0.5056138997039663,-0.39511498777995824,-0.22317596153317404,-0.0386845549720532,0.08423394847486664,0.08431111592207978,-0.018263911189506477,-0.08590557882365377,-0.026512224154088004,0.16610766060363288,0.40210766292946654,0.4121531665750011,-0.05192280536007374,-0.5068988145794844,-0.6967993324756613,-0.7619989057978209,-0.7695737228215308,-0.7279213769348688,-0.5885501193405548,-0.16538598469210905,0.5237967791037449,0.8212609687965141,0.8872928002344563,0.8932354775006843,0.8833442585467279,0.8733649186545224,0.8701495942187529,0.873040352846847,0.8682281335833164,0.7984535289614816,0.5599222505072274,0.2287670834270865,0.0023343630374301092,-0.08604649281126962,-0.06297450747418354,0.04952215614208164,0.21684389037105706,0.40078037032408564,0.5623755721658692,0.6710798438554396,0.7249799513770849,0.7324193294085422,0.6970141855039613,0.6188066850991772,0.5143649175463991,0.4296946176232708,0.4018626547630035,0.4279455711883189,0.4742804420369511,0.5034047711656028,0.49019190061632706,0.41116745939997495,0.21554511997143502,-0.1658056326422279,-0.5508371561786141,-0.6210948884716081,-0.38523352248135806,0.10002989737287367,0.40808057432346134,0.3662897867620817,-0.029157507440768157,-0.5216199669557912,-0.7506075998022119,-0.82090266704224,-0.8273099488014728,-0.8010754412146769,-0.7482784899895902,-0.6759712376094318,-0.6376868373067356,-0.708640721504747,-0.8028691969736709,-0.8322465359062987,-0.7897176555875425,-0.6027807181748827,-0.04624130931863969,0.5474969288682037,0.7676568863577151,0.8257282142275033,0.8109686231529213,0.7016241728579589,0.3428792703222392,-0.27440884649727054,-0.6362657193994924,-0.7991971127816698,-0.8943001761657058,-0.9449356419436509,-0.9537171101495193,-0.9239772339300749,-0.8472001055497889,-0.6933282549975901,-0.42033292005029754,-0.057324484520003785,0.253844872033545,0.40452639937852775,0.3805435200883168,0.24272504164896724,0.08200026124100857,-0.05741642665445964,-0.17382983100004679,-0.2822399949324791,-0.40196291119625505,-0.5278985704629046,-0.6401829546702533,-0.7218756108058901,-0.7732629851177925,-0.7996874125630549,-0.7942262262854526,-0.6611975672557907,0.08402970306900936,0.5192540227446188,0.6091840656256816,0.6511590750150072,0.696279496184584,0.7420143309095549,0.7755368275734756,0.7865925318926542,0.769156209310276,0.723008363801402,0.6681218969601035,0.6420973117875918,0.669477122127352,0.7482794212456405,0.8200581669732584,0.8126974329409178,0.7790567340776928,0.787029415021703,0.8259328307802586,0.844369405920897,0.8152072678903023,0.7625425558837049,0.7147632512872232,0.6834757532974629,0.6672430870390545,0.6553557068438376,0.6244105001966819,0.5155613381812426,0.25990359851535433,-0.060529142809444804,-0.29600859681024555,-0.4441037990672022,-0.5455481047737147,-0.6176017456995425,-0.659745351931835,-0.6691252590181975,-0.6475465028974188,-0.602688080265858,-0.5726631694477272,-0.6190656830856595,-0.7200431834207522,-0.7936970800750862,-0.8204090009574294,-0.8177734576830294,-0.8071101435885611,-0.8057913065877468,-0.8202085729272508,-0.8396854711343281,-0.8451352055385294,-0.8069844958596358,-0.6282186007451629,0.001616710040721545,0.6289639555508186,0.8112399807732301,0.8630614098279498,0.8817842752340802,0.8912645999704563,0.8798429537569643,0.6538506135937464,0.12237931616425861,-0.0993876550479366,-0.11412670693180398,-0.029379106306669733,0.14412298163521226,0.4466176548363105,0.7945729411669289,0.9234512366876958,0.9465948798388943,0.9606520254218508,0.9721350112249141,0.9787566725415309,0.9798133343069623,0.9742524018936798,0.9556779635631476,0.9088060940106639,0.8022204113335519,0.5828753046512994,0.23128909547128718,-0.16809207138563007,-0.5065095226308741,-0.75484739773647,-0.9048268693779998,-0.9671840278580456,-0.9827872849003799,-0.9799877660922434,-0.9660541287528097,-0.9351394312198251,-0.8683526272813292,-0.7381618179124978,-0.5585686416990302,-0.4229625212833356,-0.37065339549738757,-0.32173613094564485,-0.18206565732905158,0.09607361951784436,0.35930477130543814,0.3984071493465958,0.24178320648428456,0.03170837781814463,-0.09033053067657668,-0.08329763184661478,0.02782546850034819,0.18540710351031445,0.333961387081724,0.47131325370188887,0.6538632930254055,0.8580849426277626,0.9507507427715256,0.9638380077195071,0.9495811625222742,0.9155447977430055,0.8706271555381369,0.8445433637094473,0.8531887274231925,0.8741050888007518,0.853435978906966,0.3721210520616904,-0.8461941585594367,-0.9629833896806975,-0.981771475171756,-0.983252551401548,-0.9733600007228352,-0.950593802988526,-0.9163024703533849,-0.8794336675136492,-0.8370097288455061,-0.7386798573007591,-0.3392780726031792,0.5278500773872479,0.7836036841454035,0.819738687726446,0.8047962723038177,0.7605116336746349,0.6874864236054401,0.5932115540702269,0.5057208250257941,0.4361677743913613,0.35238211406377945,0.20152290722432478,-0.07537198509166913,-0.44071031638496366,-0.7115040146318731,-0.8426409044282036,-0.8968310152167518,-0.9169621276869404,-0.9208210447829089,-0.9127117900089793,-0.8871015504662447,-0.8136056342436723,-0.5614772742737494,0.18553343973225525,0.7734977293036864,0.9299979990766789,0.9661098288535085,0.9642024746279675,0.9460373812234361,0.9194271345292319,0.8887238815860126,0.857344322764591,0.8266202474924617,0.8010916506106179,0.7958860259459517,0.8182496445765315,0.8546223176973148,0.8870902810515717,0.9066730749893201,0.9139642717535302,0.9110643314785536,0.8948233881992737,0.8451630949568876,0.6869029119043402,0.27449281599265507,-0.24632275347593413,-0.5606670425341843,-0.7145326888055398,-0.7861130347592465,-0.8083817009176865,-0.7953298822768226,-0.7606612106398705,-0.7265419804221916,-0.7010708507592879,-0.6680001379286319,-0.6083646147805856,-0.5198946532260091,-0.44230899188020834,-0.4570659288953773,-0.569460992163274,-0.6664426122360042,-0.6814176133961547,-0.5858666875589397,-0.3021396523692698,0.10183594465353621,0.21161846641685228,-0.16520866966973877,-0.7012967125686406,-0.9017785653095106,-0.9571363829967718,-0.974309945175472,-0.9789856428375703,-0.9763086798351627,-0.9549274646181388,-0.8345520700069073,-0.3169066527228672,0.3264215759035481,0.6037895485683379,0.7212894060295106,0.7816965649818338,0.8155212061798632,0.8362153114295802,0.8509606637099343,0.8633946218328256,0.8750446580918377,0.8858126405414747,0.8929574541056631,0.8955495819073604,0.8940667520758498,0.8876311849382409,0.8708217454730544,0.8287816979778457,0.7075787373206746,0.32574596745052725,-0.3305269372617147,-0.6974318771278136,-0.8328571605729144,-0.88952242991247,-0.9092635322895742,-0.9026804910371117,-0.8689082736846103,-0.7689438331807226,-0.41507431946570733,0.40102725206904877,0.7950177243809322,0.892571183833587,0.9226745599851593,0.9335927703585395,0.9377425352407962,0.9378651665403732,0.9331770701401536,0.9115177341476075,0.8093166898638164,0.6529212498609689,0.6441590941957622,0.7217644054224666,0.7915517960843966,0.8301584060818757,0.8394793180329201,0.8179743983368815,0.7559254175084867,0.6317213419980612,0.44653277213253373,0.310151901612121,0.3244646996468752,0.42656695463403177,0.5138234681968901,0.537181825322832,0.47226864321252016,0.2580704946796278,-0.2066193687080054,-0.7142479830841659,-0.9235514655512816,-0.9597594837300508,-0.9385790744507212,-0.9078930277124986,-0.8826344106466133,-0.8566370724504169,-0.8146730489653137,-0.7545605506197651,-0.712546231526624,-0.7127221283405312,-0.7337492335438882,-0.7529094673906228,-0.764153825559488,-0.7670626979503352,-0.7606896204409695,-0.7448906423320876,-0.7182229616559596,-0.6741438218335091,-0.5982812447255715,-0.4631595935276041,-0.22176309486393,0.12369386595861856,0.34690890218705617,0.32575364005637425,0.19028440483830922,0.03866838008617562,-0.060945860819838306,-0.05156740537769133,0.11095951612837929,0.3969500963487723,0.6269463584851556,0.7164817483611055,0.6894590472021896,0.5253225276922195,0.12494143230099362,-0.4069176117511563,-0.7029793112720029,-0.7960699143450154,-0.7584269964137377,-0.4367488804324226,0.33010116305243264,0.6876043121096617,0.749170354483691,0.6623378823051891,0.1935782770675297,-0.674680571900182,-0.9077031538712174,-0.9469727296588881,-0.9510948853051983,-0.9433074142013459,-0.9262302852909909,-0.8931659886851718,-0.8155214397111191,-0.5636698078701861,0.22536936923158518,0.803431866294266,0.9409761421975956,0.9762406644156003,0.9837545834998016,0.9809190033760644,0.9767047048262352,0.9776923605377508,0.9794542591608815,0.9773532386643351,0.9745471200627956,0.9718455555889991,0.9682488522267423,0.9617808329277009,0.9486914264640143,0.9223398044703158,0.8690059278470472,0.752496873828055,0.47779584609901116,-0.018986046533898134,-0.4066255985473744,-0.5409421176380644,-0.561566607594632,-0.5507838929053601,-0.5503071734550741,-0.5835856275861545,-0.6490708962709617,-0.727071864700274,-0.7918793140304956,-0.8089146023683079,-0.7510282597183794,-0.6374915875998834,-0.5579190209487035,-0.6102058757432409,-0.7700271264416673,-0.8902841093329004,-0.9418104045433571,-0.9608928452663154,-0.9660492776228409,-0.9597440153072166,-0.9259504157520477,-0.758405568514109,-0.018638190483825052,0.6130864419169937,0.7695159810697122,0.7922278623349559,0.7280972962287589,0.567972155340857,0.43704266918359846,0.44362557112656803,0.5433024982861945,0.6688806641632169,0.786862064319071,0.8818906159061494,0.9366611024478494,0.9562567857506303,0.9595636018161955,0.9559458033923617,0.9485997589900499,0.918656640065342,0.48262731546834026,-0.11871574580396971,-0.2468245919443487,-0.2683039032399001,-0.29371004183005456,-0.3758602508747042,-0.5335553096197483,-0.7034959034386894,-0.8097690768269487,-0.8530304570683186,-0.8512652768427671,-0.7698532855306729,-0.4139984638727679,0.2258326388200943,0.5977314140554005,0.7696236013507096,0.8587802755916716,0.9045487353253694,0.9260078724832443,0.9352586856022617,0.9372896472014577,0.932851324193467,0.9202654472274276,0.9020607615876413,0.8919663996480525,0.9010369870886801,0.9161293882752428,0.9223842272265665,0.9169424456471454,0.8999707506284671,0.8700044203805422,0.8299932023696934,0.7986427349654301,0.8024414671624003,0.8411615878152406,0.884572215311151,0.9099256535658854,0.9117349136028637,0.8856144837788301,0.8052968696440507,0.5994155146899537,0.1974468592967188,-0.25375761848462247,-0.5707176535208651,-0.7447243264907772,-0.832051838182526,-0.8750512124551362,-0.8637730031457572,-0.7867100310040663,-0.6876925117061382,-0.5992681496806764,-0.508340878473259,-0.3818788401189345,-0.18173071967982107,0.09848387366245527,0.3657501110159665,0.5182038444148228,0.5563152735135547,0.5016492367840116,0.3637257750383774,0.14864629113319716,-0.12005827283379374,-0.4081698110237645,-0.666482663153826,-0.8142925610067743,-0.8685281946711262,-0.8903923827270462,-0.8997658939538961,-0.8951155896824534,-0.8615928968614386,-0.7386260576838355,-0.34418360221840466,0.17442509292751365,0.30822979847472526,-0.011293546177444321,-0.5795072110356992,-0.8039359094724992,-0.8472123563867693,-0.833935780358951,-0.7991907838579229,-0.7691922591295065,-0.7601112890620626,-0.7729117301371774,-0.7994630388507348,-0.8297080037446195,-0.8473411117109966,-0.8265649787587855,-0.7385104006246387,-0.5600209287933504,-0.2811801847292603,0.05807148402027895,0.34855250676253147,0.5329601566051477,0.6318604637633108,0.6699930499589779,0.6442141902897242,0.5325318604982161,0.3663404551275274,0.2770450550125568,0.3475727571928014,0.5601019318906048,0.7627425294080928,0.8628372994469943,0.886173442530483,0.8634814772351169,0.8141571439785895,0.7437299080109256,0.637798668842125,0.45551885209557497,0.19504503382403135,0.07300197515323573,0.14448422500732402,0.2859712983722727,0.4323571216002452,0.5579635219805519,0.6471692611017319,0.6843199983687844,0.634953653639504,0.38119333199456645,-0.1857094426034937,-0.4946459912369305,-0.2248895869946997,0.3596463229878696,0.44993674201285433,0.26910372048438813,-0.030089489866378858,-0.278450464133601,-0.3928898170389855,-0.3759101212997503,-0.24434109357715775,-0.03833647610542505,0.15466334978931393,0.271175657367618,0.3177059475449103,0.34973740272071674,0.4459140183782021,0.6429063403403101,0.8165439330694299,0.8866884079959847,0.9044604295002338,0.8997779096193084,0.860648183171469,0.6267702323998204,-0.5538971228482675,-0.8722183147384976,-0.9038822915024923,-0.9011122139859211,-0.8847556830672394,-0.8578374582295251,-0.8301959484934885,-0.8170241134141236,-0.81730500541021,-0.811794665374274,-0.7804091893910109,-0.71359168041529,-0.6742686936676294,-0.7226578809362182,-0.7717785610408697,-0.754955493081468,-0.6445870573779644,-0.3450524214243449,0.27676526363194676,0.7442645171788153,0.8849724808574042,0.9170790661175694,0.9105918313354803,0.8751977249924947,0.8017251724801397,0.6681339900215869,0.43486423418657444,0.0780467088375406,-0.2766995718298477,-0.48696082556802633,-0.5967604429420672,-0.6659235678696955,-0.6967031860943173,-0.6460054615991572,-0.38774491141503975,0.2039179602752564,0.6638600386287536,0.853276597449909,0.9292806059446398,0.9578619676258271,0.9674267837212663,0.9699302037399882,0.9694163441099448,0.9675702429996504,0.9644028189859317,0.9594758405946533,0.952955541153248,0.9461044621121998,0.9410598215399059,0.9366888260680136,0.9262671787038634,0.9031985585886857,0.8603606449292966,0.7848364252422357,0.6580375044853055,0.4634009371869045,0.1975139993443307,-0.11391340625295532,-0.3776754634237328,-0.5207194548615983,-0.5603183942755635,-0.5035349270990306,-0.2932112921387436,0.1101980966621985,0.4844955885270838,0.669345963577624,0.7284484596565954,0.7131262268629446,0.6276970696538301,0.4321616739191291,0.12413832034952695,-0.1456183570585245,-0.29899911176846805,-0.424124972270028,-0.6382153909473313,-0.87093541931759,-0.9677976090031706,-0.9881236384245817,-0.9904049411389726,-0.9891537834372235,-0.9840899144250854,-0.9646719930497076,-0.8766477488726817,-0.534417746884325,-0.2408593182602363,-0.37766444390244786,-0.5949515074176531,-0.7165032186172606,-0.761199622837155,-0.7550907539907388,-0.6976793003674024,-0.5586975065889648,-0.2678536814607554,0.18457446676140254,0.5580257424636432,0.7390962544593723,0.8200452484884897,0.8436099833392545,0.8172080275624796,0.7544690941424105,0.6698293705968811,0.5725165952671412,0.46767364329308325,0.3652741695240402,0.28179482394715316,0.21579116940874482,0.16932791927002938,0.18925930535443616,0.36108035706916275,0.6498695597092907,0.8255926524504612,0.8763143721226851,0.8782812132994815,0.8534538720743169,0.7996357679785596,0.7116036331055939,0.5861100814205044,0.4291397948965988,0.24911495693045646,0.049500730881940326,-0.14560166220275958,-0.2826996560005809,-0.31312959644799215,-0.1966880949363388,0.061601212223958784,0.33773734165180297,0.5028767783907537,0.46433841187960184,-0.20487084201339187,-0.7171610936406246,-0.8248066643068009,-0.8650855475715042,-0.8880080899132886,-0.9021630665376578,-0.9062526901030402,-0.8869180112864635,-0.761203923198712,-0.030274357389186827,0.6858304980149936,0.8526916157328687,0.913183630735137,0.9472739367136319,0.9678211398231646,0.976658135544406,0.9693798814970356,0.9080795970942804,0.6839947708200291,0.4238062879214305,0.36364658224424007,0.41508381215868145,0.4834311796903446,0.5335716955934007,0.5332758036074075,0.3673331065764829,-0.12497534326037806,-0.5250575537590169,-0.6929687957179086,-0.7668929849601259,-0.7582121332305569,-0.6259108640285068,-0.5208725569237487,-0.5669921811363169,-0.7146528620339918,-0.8512447582760168,-0.9133794810060256,-0.9024912358313308,-0.7725962827483994,-0.1516214792589177,0.5132107520500783,0.6227305380908551,0.609294149328071,0.5940789338122427,0.5893344199030687,0.5532720992004406,0.4095503406424957,0.07096525305073674,-0.3570170963653233,-0.6218524351375553,-0.7300552036713707,-0.7363985040646642,-0.5627601571863261,0.1818539910724993,0.7394753389754468,0.8713991986841908,0.909726569027399,0.9206615739629852,0.9186700779753961,0.909598392115985,0.897837554581611,0.8858889809036031,0.8746093730981233,0.8620707118493498,0.8402939241630246,0.7848360933092284,0.6140722491957756,0.11900422175315312,-0.4515805780664917,-0.6701995990295835,-0.7428662731822651,-0.7796843948269199,-0.8028991323497543,-0.8010665805388789,-0.7409747687144186,-0.5658763266414055,-0.21652756108268226,0.20824929124828964,0.5001799650403033,0.6516789294101718,0.7289934922247016,0.7647599532929314,0.7754808490938193,0.7631026157236493,0.6787012203692917,0.37617136557078384,0.016465194358872188,-0.20753921081912902,-0.32355028095687877,-0.37085113129616615,-0.38291622495733935,-0.3792933476310242,-0.3618395481981655,-0.3119951073555831,-0.19599881209047065,0.029942515041499,0.3501959873336365,0.6262149223414408,0.7641741974373045,0.7840472587680806,0.6529718277197541,0.10245256230975705,-0.6038443464839869,-0.8434697621925646,-0.9142026617508877,-0.9415981116445518,-0.9560990356224843,-0.9656255765091927,-0.9714666196576333,-0.9722943480234865,-0.9611602632192934,-0.8952819256741517,-0.4700437134714765,0.16502791189778185,0.27921576079721894,0.16981144423891395,-0.05664210185736689,-0.33440101899911856,-0.5487566482742811,-0.6384492716152347,-0.6149684952756957,-0.5085902020913405,-0.36983153138659536,-0.2420605371752924,-0.14616076393972344,-0.08712439152362897,-0.06234344274285774,-0.05294223146488684,-0.015551873118090975,0.07596888008648314,0.19963363490957242,0.3233730267618128,0.44514637546429886,0.5542393802858764,0.6298089740236696,0.6653364026134454,0.6636461066057342,0.620125360141916,0.5320661259804864,0.42056558843680736,0.3124543618219103,0.14695602150766127,-0.280687571554378,-0.7594810111414948,-0.9223334367277477,-0.9664181194284627,-0.9757064152934661,-0.9561179099249606,-0.8900230893723302,-0.7699256105570303,-0.6316341475288637,-0.5103874609992821,-0.4045913947938969,-0.29099965873947564,-0.17272513354651764,-0.08617051394431191,-0.0546587085102655,-0.06514828372992583,-0.07742098539855143,-0.009779014543483306,0.2027359323228308,0.4642869369849866,0.6540490790901896,0.7649215769364128,0.8266913527423944,0.8619438784937784,0.8822382612058263,0.8919459323389564,0.891776777845782,0.8820628734632101,0.8624231443287917,0.83030719871687,0.7830595447795357,0.7210943764234933,0.6499517629686986,0.5761724777084497,0.5048341075674955,0.44405180187191723,0.39697637045078404,0.36070179211271336,0.32861598946930615,0.29202067231643225,0.25143897473936316,0.21395589935558273,0.16211119778672595,0.06230148279480882,-0.06732311192040642,-0.23240185975805655,-0.4538512327886066,-0.6536667134580469,-0.7715315740820115,-0.833869824387242,-0.866138704048751,-0.8789570905565128,-0.8792337465587756,-0.8752008453266837,-0.8763800452707121,-0.8927550030684601,-0.9215321636886784,-0.9390109578615421,-0.91831080637209,-0.8441583550244258,-0.6863386955712262,-0.36951446206061017,0.1280167815617296,0.49979464186178596,0.6159301998289309,0.5872136878848194,0.48388821371913276,0.36821021419054684,0.3189028284465648,0.3794839246215035,0.5210703779828707,0.6605912621021253,0.7523328808628268,0.8066246463435927,0.8402863973293793,0.8605888332025136,0.8685980293121638,0.861860004255232,0.8263009172270412,0.7049354141016626,0.24695482827575913,-0.5671734643724199,-0.8600010823980532,-0.9347246072579807,-0.9626100179575815,-0.9766210622303259,-0.9804784245782872,-0.9617955553341264,-0.9032104319425417,-0.8551747063751712,-0.9003341339798022,-0.9322161271791614,-0.930542606847252,-0.9201787257858005,-0.8969352400394341,-0.8401591216110452,-0.7094036321961664,-0.5048903545548027,-0.39655309710595,-0.507536424801085,-0.6988128571695551,-0.8149092318322444,-0.8598008377205764,-0.8613890915419748,-0.8082014199386948,-0.5657406835326828,0.24205493165244532,0.7562546065988407,0.8865893594495,0.9381936686199903,0.9639910367928349,0.9677740110972513,0.9534653999072638,0.9313060853163987,0.9128201198079426,0.9043677570717724,0.9045545862656138,0.9089360182812601,0.9147725021850531,0.920425833864081,0.9247863110583033,0.9256238379988748,0.9162609219161161,0.8810350295560347,0.784447509031994,0.5628470614475903,0.20615484390689406,-0.1302003863195434,-0.3400405177443927,-0.4872983318141213,-0.6550355242974566,-0.8394688337954582,-0.95236951561044,-0.9807801766479913,-0.9810443953617397,-0.9786940788848077,-0.9753855667791211,-0.9650807299563382,-0.9294046245725192,-0.729702159239221,0.42850201854532566,0.8706592336234137,0.921378939657814,0.889802250914979,0.5772986183782711,-0.612421668409137,-0.8951959986500527,-0.943186610586284,-0.9563620089663698,-0.9572746505235211,-0.9428574878903357,-0.8657982677842834,-0.35203806795692516,0.5000604066854676,0.6914156909058894,0.6919094707935731,0.6194901001378461,0.5033700730876305,0.38414926211969813,0.3027883305122126,0.26347205937618134,0.24040423779431877,0.22891333925639437,0.24990015288261613,0.32651616296120506,0.44515956681723795,0.5660768358135388,0.659617922293823,0.7234334190639488,0.7682632712413953,0.8092527975955387,0.8494727414144657,0.886148351900628,0.9184144390310025,0.9451407727405657,0.96523396580502,0.9777039814052321,0.9842482072267033,0.9866802696668889,0.9851208155535492,0.9774005312828892,0.9585124261129612,0.9236255132153461,0.8811614202694127,0.8560564399179312,0.8496822860987545,0.8413633210035062,0.8136877689366887,0.7410962248813353,0.5341282229353469,0.043258853764560005,-0.3035972275227404,-0.3234168817996016,-0.2065692099968587,-0.045784173889718116,0.08639922772563915,0.13824151813643523,0.09993667626331877,-0.009517926689808874,-0.15448541711334343,-0.29698087762413633,-0.42132861964714025,-0.5483407495271796,-0.7018365088442249,-0.8451105134237077,-0.9268833116661314,-0.961960462235532,-0.976947968992354,-0.9826780043660486,-0.9819039411387428,-0.9721520514217513,-0.9248523803523558,-0.4110452824097577,0.6640761286636794,0.7382888488588045,0.49735671944416254,-0.2106794946104338,-0.7437732540080855,-0.9171062917368856,-0.9574030991488048,-0.9029957404112164,-0.711465794416888,-0.4362041212662519,-0.3444934226669432,-0.4861629266979039,-0.6592686860472564,-0.7636912943524046,-0.820028462164909,-0.8523108507608966,-0.8680998730441438,-0.8691105155332319,-0.8542021057432375,-0.8153823820409878,-0.721734081287575,-0.464469586896178,0.14162626828470548,0.6546322812315323,0.8095505774687757,0.7718113126198283,0.2496883929033751,-0.5977092195512889,-0.7695059146336326,-0.7052927621012969,-0.1357960262113427,0.711485890629429,0.8935067569940264,0.9329265377988183,0.9400519622304047,0.9295140715760994,0.8977630522621143,0.827020897333511,0.69624902455254,0.5503099602913337,0.5308035801391383,0.6506951838928358,0.7542427890732691,0.7460435421845693,0.5638725395376858,0.27021986686285393,0.10009300175337106,0.08951711473642521,0.16749554497030564,0.2503224364366856,0.24899120100369884,0.044951467997319,-0.4925943019329725,-0.8569424982154175,-0.9346527356126205,-0.9460600016371941,-0.931578821252114,-0.8820788392774322,-0.7586638674899686,-0.5113580087552029,-0.1812009672082846,0.09627786763640032,0.2731917219526259,0.3821159354804231,0.4418687716681621,0.4479332687959109,0.42561762269683495,0.4130311810581033,0.44160857095220335,0.5278878042925258,0.6527435999132734,0.7629157616124752,0.8272179691518254,0.8564601601654521,0.8651043607631119,0.8635366761725245,0.8548212438818048,0.8345279135546854,0.7951940696589096,0.7229068321528469,0.5956899187188671,0.43336572942549006,0.3495402843800684,0.4051890919327647,0.5494201623074809,0.7036051578730252,0.8246605330600008,0.9022055679108821,0.9395502408179106,0.9353751272055635,0.8873715021510591,0.7991969483502108,0.6630721532251337,0.4209504112856828,-0.001053951172311558,-0.45233090892062494,-0.7005811994137395,-0.7869351242119884,-0.7865405068649456,-0.719253060172027,-0.601796632433911,-0.46244799998423064,-0.2725813745652078,-0.08315427659549135,-0.06337484942684853,-0.27054760747162193,-0.5646229787372509,-0.7566499080513481,-0.8461689287812909,-0.8849975219872156,-0.8985211965467643,-0.891064022265124,-0.8237300054702981,0.16259211322593287,0.8442944344321389,0.7990480441686842,0.6108670570973244,0.20723485954319812,-0.21120810934859371,-0.3628063790001292,-0.24217897149032838,0.1197389948414562,0.46143111576340545,0.6198776632621109,0.6684483698932199,0.6674829126850302,0.6450961577847271,0.6159485722591943,0.5847957310785454,0.5456602195269317,0.4706028211069997,0.2992930209892819,0.02964953322951094,-0.1677014283897578,-0.19713447197048134,-0.10114944806732011,-0.004221062700186455,0.028542182803290597,-0.04301071140690063,-0.3132977872474796,-0.6506540740233283,-0.7848516541260261,-0.8268474624674044,-0.8377344137863951,-0.8026536007419849,-0.6412048462416023,-0.3051166878545603,-0.0005865119333224319,0.1719608113064871,0.27807530870046504,0.38837939856493,0.5272101808135274,0.6624455587599493,0.7433485022382107,0.7682550740537013,0.7587543798998215,0.7313695872321595,0.6939964396890828,0.6458530314303796,0.5782195933738615,0.49249180414152877,0.405713129471019,0.3355615241812847,0.2773535211051528,0.19804128249737146,0.06060249752356706,-0.13461390194070808,-0.34826485498599796,-0.5425075386123537,-0.6954738997145296,-0.7954295242061803,-0.8457853836635747,-0.8080672095101971,-0.3097030201036658,0.49052446775628517,0.764524767318416,0.8569636239426832,0.8852598012254442,0.8780745767054953,0.8492665142310389,0.8097770592206726,0.7650322727979101,0.7181330802935079,0.6649580436939165,0.592409967222677,0.4708905442479753,0.2526650330526315,-0.08602520284541969,-0.4685768612653817,-0.7519614267008936,-0.8921647328799144,-0.9420671780537745,-0.9491946041833454,-0.9253687853799886,-0.8543915759074702,-0.7181909944066571,-0.5772958902579386,-0.505941830307068,-0.45396516384799995,-0.3627986745499937,-0.31298827476876445,-0.44895228418555166,-0.7062308026809241,-0.8706914316522648,-0.9353465693007522,-0.9563212942734264,-0.9573009859688012,-0.9422908540012159,-0.9021958342978659,-0.800629094373398,-0.509357489992947,0.12187601496286808,0.6085880270803126,0.7855541877276202,0.8410087296940323,0.849678827164173,0.833350574393059,0.8040264798085875,0.7760908532581197,0.7658515900106796,0.7790497172984954,0.8077673931021729,0.8371664531136889,0.8561739943789266,0.8567181790488515,0.8312015702332284,0.7667109738041835,0.6590549037651285,0.528566119172661,0.40182180180082544,0.30730898857739813,0.3044033633363544,0.49463503392210906,0.7869828519097565,0.9243024810771908,0.9562639979398138,0.9551738841708973,0.9445616593021808,0.9321165594525913,0.9183031509084806,0.8943077095279139,0.826018405111637,0.6285188807403699,0.24735176330202935,-0.20566559047536645,-0.5846856244068096,-0.7906842134570096,-0.8705369490572265,-0.8862813876088682,-0.8501379980994078,-0.6909678130509737,-0.39313329718853157,-0.40583363721885013,-0.6494336846139496,-0.8190972970913342,-0.8967846384403568,-0.9347084871461298,-0.9576826284171566,-0.9729598028353414,-0.9799403533013643,-0.9762659408322836,-0.9390419511393794,-0.46779994915779594,0.7941475246412426,0.9188284703251768,0.9327621256346741,0.921117517650887,0.8826738484415834,0.7755921229793014,0.45739130473529227,-0.14208757873051733,-0.5659913691883006,-0.7455592159616904,-0.8256860908946934,-0.8683984976580045,-0.9005822094852086,-0.93192631279114,-0.9563847909073655,-0.9707705988483587,-0.9787136283449857,-0.9815012298337925,-0.9740834044633532,-0.9377361464405336,-0.7892732312091717,-0.32399094611789075,0.08300369253152776,0.2485341691769227,0.33528832385025753,0.42338671886776874,0.5281183523359696,0.6314629946479595,0.7130674270580177,0.7704347521949904,0.806395280001177,0.8201892848077021,0.8060353029754725,0.7765762573264287,0.768956213244912,0.7936816460985565,0.828254756371929,0.8528812667731125,0.8660287836823727,0.873477003407162,0.8778711686982842,0.8789679755806911,0.8738247422504771,0.8520963771672067,0.7928938051151257,0.6905861431764226,0.6032449647790606,0.5711553789491146,0.5453236953359596,0.418357957135394,-0.011695677052990938,-0.6254630339194821,-0.8749623576806914,-0.9437755599204251,-0.965784145762776,-0.970133298309518,-0.9564180008111862,-0.881366357773136,-0.3597477227256144,0.7095793741024854,0.9184698190261606,0.9598554921573312,0.970379724367164,0.9667816885805554,0.933152415245303,0.8055309318804289,0.5610218756785611,0.37425604825615594,0.3234460221317169,0.31629912758018414,0.21170464454523427,-0.11957325746559368,-0.5463872419151088,-0.7647964515872596,-0.8323419389022285,-0.8357024266789658,-0.7983979035719694,-0.7118455923129563,-0.5607830786310777,-0.3810629678829375,-0.2692629045597349,-0.24936791930716232,-0.2830977935542789,-0.3390048463537805,-0.38969496857327107,-0.40878840848460357,-0.3712994085553268,-0.23326721233557182,0.08507956284777257,0.5573261602003305,0.855270821324964,0.9521203495972098,0.979613150433588,0.9872675891045977,0.9875175147981612,0.9819001069820311,0.9673950037144327,0.9364453464114022,0.8916832514945103,0.8838330140703936,0.924788224532269,0.944772056433294,0.9273176584312528,0.8446770928315854,0.500968182439166,-0.2911176828574582,-0.6651630862406185,-0.7379328980444737,-0.6984942913986663,-0.5885874312905408,-0.5031800027195384,-0.583302224910539,-0.7590269624080853,-0.8684395345442399,-0.9042450395317361,-0.9013109633314225,-0.8752300509392463,-0.8215759526083969,-0.6869038060679928,-0.2888321077883527,0.39361436844916137,0.7656772137000527,0.8888065614955355,0.9349939915531174,0.9562569960594538,0.9665788256217823,0.9693046737125374,0.9612858210489253,0.9061809890658002,0.37702669511273434,-0.6082648794425826,-0.7900824008932994,-0.8187293181701203,-0.8067812974088958,-0.7711965788372986,-0.7235926126258662,-0.691780972308117,-0.6894613185300761,-0.6843692028822898,-0.6204002550735812,-0.4435699242014328,-0.10775246533200865,0.3163389023315958,0.615375010230855,0.75898499138177,0.8164729597346871,0.8199158814846512,0.7542619500152001,0.53365494269646,0.10773013831928999,-0.1732479777327354,-0.15249264522145725,0.06498608644525174,0.29745185425716236,0.3924724821408694,0.322337929785282,0.17165816355427058,0.06793532563188781,0.05486776818689707,0.08455671276698559,0.08115885962544696,-0.015265066845414423,-0.2144582545514709,-0.4580085191058319,-0.6664189522400488,-0.8013553445839531,-0.876578735623805,-0.9157495995935779,-0.9257451017240617,-0.8813499874529156,-0.6296714029900148,0.09767848307574362,0.5812490502084484,0.7294501162292825,0.7609737241844645,0.7248843443396025,0.6128618441987572,0.4338493510521979,0.2692297893749496,0.18696449907772023,0.14763760983314395,0.06437257338074205,-0.14469371362201333,-0.4562914362577549,-0.6943714516016776,-0.8169458447229045,-0.8754073120745177,-0.8885953290825982,-0.8393007003017795,-0.6390871878585427,-0.19357567216568783,0.17711509277003962,0.2364735023723322,-0.057151717694756896,-0.6114671404067639,-0.8742300274512373,-0.9424098552350192,-0.9620187672676945,-0.9674638763953889,-0.9656766932042838,-0.9562868487116761,-0.9334193096659156,-0.8817534481224837,-0.78174132396839,-0.6161150199018023,-0.3506730459851968,0.011780196695782156,0.3506032385958453,0.5640216157175174,0.6731203693632247,0.7225936788570737,0.7274270402556458,0.6677819942005476,0.47323082120697285,0.05946722588557841,-0.3280471772033597,-0.44512108607710976,-0.3807387202166041,-0.21386911072674092,0.021966011778557008,0.25935935423530565,0.38272282202337315,0.3275375244283797,0.10779290025066648,-0.131869887383373,-0.22426244529944503,-0.08521945063750669,0.37298977205647593,0.7862200655145457,0.9136876424775137,0.9502106545314654,0.9665609360137387,0.9757271934014342,0.979278085257656,0.9780886498272118,0.9739702252696834,0.9682950452468567,0.9606893451868553,0.9484060302750252,0.9259049682038499,0.888246800037084,0.833067375507448,0.7535823834806833,0.6371037633958353,0.5016522370840524,0.38002497848073935,0.2612119005027791,0.10110775891828441,-0.1273732735913342,-0.380751948135236,-0.6100787756682401,-0.7879241456962707,-0.8857915836193323,-0.9171755292895714,-0.9089845105032403,-0.8698702845550379,-0.7906864121378336,-0.6551940328366709,-0.46220649927109314,-0.23281103558485067,0.03428453200593512,0.353000950518272,0.5042470986559985,0.4658166558315382,0.40031359491794655,0.3290762402452199,0.2349729791090096,0.09592861052523753,-0.10982697556106667,-0.2941362380440491,-0.26772096709635274,-0.18817389321569392,-0.14956870535030578,-0.14618188571368887,-0.14739994809557094,-0.11223142795421331,-0.015745530766878037,0.09297742248007478,0.13505073825162714,0.0706616943549871,-0.11314841115736612,-0.4184852617088184,-0.7366659420972511,-0.8991889641124144,-0.9454476507971306,-0.9612827607537179,-0.9656195987971583,-0.9379490344477428,-0.8048892983321754,-0.4305548429479682,0.07284489620193803,0.3757190698084929,0.4756131060725065,0.4429850268231867,0.3407390186596853,0.3752598962290935,0.6787972744499725,0.871151779386984,0.9284781688385243,0.9499146273238281,0.960329555969901,0.9587258103490299,0.9204121326980416,0.7034127726785476,-0.10165364984841871,-0.6451834576366247,-0.7971196395781311,-0.8497011191403093,-0.8699118574076652,-0.8730118666521164,-0.8586808769720989,-0.8123558970161388,-0.6835011872446521,-0.35469864761452485,0.12749471289386002,0.4070858575895337,0.46262929401951447,0.34589028242616754,-0.027236989526887277,-0.5867485120450459,-0.8667223393256072,-0.9475721655296167,-0.9704938233466146,-0.9717816097127195,-0.9489549435994622,-0.8454904750960046,-0.5037169811349047,-0.2265081424487462,-0.36127395169836046,-0.5062936937003705,-0.41051468141241815,0.005055489741403375,0.48027348998299435,0.7038177326964635,0.7900922718589272,0.8296671105432939,0.853167840539021,0.8689378815884785,0.879905492035506,0.8878756208499397,0.8957180558321458,0.9041101497514799,0.9093847771539195,0.9067629910628637,0.8984199192894645,0.8888464105354014,0.876243000429761,0.8466872819931903,0.7724724984519707,0.6347142634091878,0.4868042571840719,0.3903287202207521,0.31490951942401463,0.20015180845026337,0.022401161864506604,-0.1617755753383017,-0.26987497060515814,-0.2721370185847963,-0.17814125983860665,-0.021417036756315802,0.15968941011214308,0.34022146802328057,0.5001854399198451,0.6232102910863604,0.7045181193695613,0.7484953298852394,0.7551611593875878,0.699274146942474,0.467161389868524,-0.055150045036406754,-0.4165532178331634,-0.5054811234538774,-0.4338306251129058,-0.21110476580135282,0.10024324184292335,0.3554011713632598,0.5123317409305729,0.6221663119899117,0.7273756342265129,0.8079105253334877,0.8577243158599451,0.891249890662485,0.9170892305301488,0.9316818463658706,0.8961474293674868,0.6048324816545194,-0.07338304121698534,-0.47082071621197524,-0.6300179332686651,-0.7088739970309251,-0.7592626312514122,-0.7950651178093279,-0.8167661879325111,-0.8254575803647685,-0.8228867383510914,-0.8031865270233252,-0.7409899261441475,-0.5661676802075215,-0.12562988683765258,0.4490976410346706,0.7387446003081213,0.846467643828992,0.8912762586588338,0.911626913590877,0.9166292158916645,0.9030138626910515,0.8644282982818087,0.8067245318817835,0.7675613508834205,0.7686915577470145,0.7452303242861501,0.4889275305369798,-0.018166395311173353,-0.18898361874325503,-0.12287945734584167,-0.015689909663494216,0.008165126257634416,-0.14615594887101271,-0.43016725722798244,-0.6087017121884681,-0.6716877871498022,-0.6824405519004255,-0.6680011779791393,-0.6504683352618891,-0.6620652832856052,-0.7167266170169863,-0.7744979344098853,-0.7928229507697853,-0.728811860427283,-0.3943626889030858,0.3306234325472077,0.6630605212516928,0.7432506989212223,0.7432196523433432,0.6629005824659651,0.30163451917708095,-0.45981946089854286,-0.7356105641773958,-0.7671524482169401,-0.7151503829968477,-0.567779471919456,-0.22507963619070695,0.33107825076279584,0.6666650397821766,0.7390490710675617,0.7149945233984186,0.6569682772406925,0.5871103875462754,0.5122693451958781,0.4299602663990704,0.33267572730317274,0.22702445656492165,0.12684797484354732,0.04909404151361789,0.017430053522669,0.05835380009710307,0.17276372933026352,0.32922151394745425,0.4796354488071489,0.5932999176011382,0.6755171946714126,0.7341301086715684,0.7032664601191452,0.3536716347635049,-0.0892450789546222,-0.35844303828916235,-0.5104348920636081,-0.5877750852996748,-0.6208115993590188,-0.6429515201071901,-0.6904437648554491,-0.7751076674821792,-0.8630409390288863,-0.9209706969620433,-0.9498419869391989,-0.9630181817804064,-0.9689012096865937,-0.9701181382995903,-0.9657673578650983,-0.9507947146083584,-0.911671022259249,-0.8178822172803819,-0.6065767022183842,-0.21895971782937868,0.20847016769556012,0.46966076248918337,0.5712176676088245,0.5561110738079831,0.4018492122796429,0.04068815404856597,-0.3805451159331288,-0.5790786144249536,-0.5498580321468003,-0.22914088465813975,0.33877306702280185,0.6668665390979396,0.7804813913962775,0.8175223379943917,0.8291006937734561,0.8356694305451453,0.8487830499795446,0.870676648129741,0.8929215078719752,0.9070481443590364,0.910458151544229,0.903043986428731,0.8870366155310642,0.8684302710105886,0.8558548207984723,0.855174661710783,0.8650809886292099,0.8773579985659687,0.8836937904704063,0.8782337153422649,0.859856186639133,0.8300939259573218,0.7950930081336642,0.7638937384836526,0.7433509229963294,0.7313968976300077,0.7216724090055937,0.709760292736275,0.6947594083535606,0.6741949241372984,0.6310580442665303,0.507115294485229,0.2676491414216783,0.06546286576394734,-0.014418790421053426,-0.007644136721077214,0.043176013528970825,0.11491587738185875,0.20693975271389511,0.32714021153518785,0.4676218336057807,0.5899255824475312,0.6536345454094497,0.6516271777591576,0.590182916645641,0.4523912544743698,0.06863353289595749,-0.5641370155619356,-0.6393815557630438,-0.5944930033496739,-0.5159359294615214,-0.3863408793619572,-0.16588428332331018,0.16689095360399303,0.506000181451246,0.7152464476657957,0.8058865234664755,0.8157691775342525,0.6747043755592277,0.20870570072362574,-0.11592173933010293,-0.16519214857661332,-0.1487868559126098,-0.16898814246429714,-0.24020610677144702,-0.3340612860865211,-0.4192936509781734,-0.48113708795719023,-0.516788858853888,-0.529515746466125,-0.5241617433459638,-0.5065935886058329,-0.502146277313765,-0.5476872228478343,-0.6147229336809046,-0.6339562786495744,-0.6148513474014109,-0.6086165532348152,-0.6483309058131408,-0.7218390054992632,-0.7930864727024433,-0.8377013183346704,-0.8493172820008975,-0.8163786456308876,-0.6870559324120854,-0.4388786152354773,-0.5093655013943664,-0.8287742089207519,-0.9397278573011709,-0.9691592178894709,-0.9787581621502305,-0.9815701668805477,-0.9796351311964382,-0.9697136321800875,-0.9344137751272982,-0.7680459902655395,0.020560153620405308,0.6511026917197317,0.778862743960628,0.7719927425043106,0.6964165142767341,0.5505747140380405,0.33105910795779697,0.11125142986294595,-0.0068723078470436655,-0.011219033364667194,0.05089203184492451,0.12489415840928347,0.18162528435460917,0.22979311132387967,0.29477507258594693,0.4034931073341944,0.5701211292500041,0.7555057990769976,0.8413640715789058,0.792629828558626,0.6840167202863987,0.5110165934029898,0.21665962118171736,-0.17531749450012543,-0.4963229592170908,-0.6750158367635014,-0.7493565133743127,-0.7606383970326337,-0.7390058364968284,-0.7522614553584587,-0.8435261437356059,-0.9250845431977333,-0.9605950635310424,-0.9655175434756271,-0.9046312463211761,-0.20047023168983985,0.7091612196137365,0.856906221291739,0.8894541920553871,0.8910467457898379,0.8750832157139903,0.8424299330591675,0.7837972792162261,0.673176059902281,0.4857092115024985,0.28793430878864357,0.22395892361332176,0.34309930969303803,0.5523858193119116,0.7246919478125479,0.825586539151664,0.8786812633714157,0.9039479666462171,0.9097752183192517,0.8970095398825212,0.8537874064343424,0.7371039023594559,0.44213026540301104,-0.05065182366016665,-0.3912712068504866,-0.4834509737616968,-0.44996205040723736,-0.3747938909019469,-0.27646562580774403
