-0.7834984362495497,-0.197042726042365,0.6291391746254812,0.817453873871537,0.8819441770396179,0.9201714422991114,0.9436552919386404,0.9548636737843671,0.9521722251518131,0.9266071655119391,0.8390307327274414,0.5733107798600756,0.04300711414764332,-0.4241382961689044,-0.6596597556535839,-0.7586357454600827,-0.7777047873903177,-0.7356661011660051,-0.6167596597159081,-0.383610549925379,-0.10794494200358076,-0.05150207339917147,-0.31306741154745726,-0.669766470967996,-0.8608172477907651,-0.9308212264348177,-0.9499192245978964,-0.9413862280623801,-0.9160923146239179,-0.8847988702076023,-0.8539011773699282,-0.820736108911091,-0.7732995409504274,-0.6786530703632122,-0.4225128553296943,0.24899443926903872,0.7990256593012647,0.9331706986409776,0.9532329768483968,0.9420461127910729,0.917037179143757,0.8801745226237434,0.8268504165851394,0.7504823885078353,0.6401873241635312,0.48632186187697696,0.30993973323962665,0.1671092391626622,0.07235070062483663,0.013627306281505545,0.02436609221673422,0.12040153079268494,0.2716905809415091,0.41141791965008145,0.48743948752117267,0.4831182729360838,0.38803686686225464,0.21120633584500878,0.008863261341165683,-0.16383111041238219,-0.32594325657695367,-0.5083234301830595,-0.6782155222194399,-0.7923368806391394,-0.8516508329301499,-0.8711877023847168,-0.8489178745286953,-0.7252702857956405,-0.2687761038334893,0.3041881478969108,0.37576325397240473,0.13643073162023514,-0.06079126239993086,-0.05434061450005268,0.09006531510659588,0.27600008764124434,0.4290074950638025,0.5260056478938641,0.5787439707432481,0.607177108010225,0.6268710550996957,0.6501194834962841,0.6786154368717502,0.7069672895715889,0.7283505857375067,0.7385737335839716,0.733158528216199,0.715059597578507,0.688932467115671,0.6601088039977518,0.6261592342406987,0.5777652450959673,0.5042886344738108,0.4042139124658395,0.28803240189235946,0.1808352538215871,0.09284586393686305,0.03256061652731551,0.0298160161046957,0.10702521405701546,0.2519603548025776,0.41373979223817814,0.513830242586019,0.53288563953963,0.5239444839622608,0.5407748313467736,0.6087237780069098,0.7033493200425865,0.7819629462078633,0.8272256172130849,0.8475270432525025,0.8531944097322249,0.8506440842955008,0.8394595820667206,0.8123920211480133,0.7533681695358847,0.6425742025667982,0.5036643283712224,0.382238407086632,0.28196741956890986,0.1784869633155349,0.060344480991230534,-0.09395024584881671,-0.25411899864184256,-0.2873384042738701,0.038433476077006305,0.6129418037527101,0.8535548242633516,0.9248042626342472,0.9488667884989154,0.9461687517141525,0.8877639034166243,0.49041954776643815,-0.6089852509629652,-0.8907856854054019,-0.9449470783527908,-0.959863341579975,-0.9627100924432548,-0.9570110774481345,-0.9348225542230568,-0.8479615308647714,-0.34139126875836173,0.6503916652923214,0.8883411453546086,0.9435232788014998,0.9628179779954651,0.9699716425694042,0.9684148374697714,0.949729848214699,0.8363363069127229,-0.15926800354503556,-0.8416331103577808,-0.9267569036987209,-0.9373929090664725,-0.8949531718439215,-0.7382016390791585,-0.5098012744650481,-0.39929839449270477,-0.423657346493984,-0.5236557707932614,-0.6617642699139614,-0.7974834718338357,-0.8894709221422001,-0.937033684596219,-0.9594817094166341,-0.9699212803971231,-0.9735052497034813,-0.9703124606348158,-0.9484748254170016,-0.7434894659610476,0.8266089693601624,0.9743878503611464,0.9875612897256519,0.9860266096608212,0.972081123777299,0.8954976087741972,-0.3404518546400989,-0.9450282822366936,-0.9816250529124314,-0.9885107594366812,-0.9872665036016958,-0.9741850225689349,-0.9214010899041521,-0.7340306853933972,-0.34655171830618203,-0.052710127624162585,0.012217540043458767,-0.0821467952586563,-0.2597476204417356,-0.45576983145948996,-0.6281334396639974,-0.7654979098469932,-0.8566763603384747,-0.9083211317819475,-0.9325209222007759,-0.9320349813214213,-0.8893965101764898,-0.6818171142679609,0.17477866002943468,0.769267060564257,0.9006213393016547,0.9387437749181131,0.9508223870821106,0.9513328202979616,0.9431174023364798,0.9239304595371206,0.8870860432444306,0.8183572108692269,0.6949404206271381,0.5062227450065122,0.37806365904384365,0.4649485909543124,0.6099192527279426,0.7032098503125811,0.7538411165701225,0.7682380211074602,0.7133657382963831,0.44594138201290406,-0.24354309833531457,-0.6831331611524282,-0.7974507714497013,-0.8097462907568899,-0.7885054909044622,-0.7831694368498124,-0.8165621613714437,-0.8502645192298023,-0.8430125377221569,-0.7489969422744608,-0.4019414348173043,0.2606632737678834,0.6233535092203674,0.7266369834158669,0.733095033200389,0.6943985915286637,0.6563026852733012,0.6995260975814002,0.8242660930691657,0.9166034428605965,0.9537154664906174,0.9643480299838434,0.964297991478198,0.9545336848820826,0.9181363258984596,0.7393185297525826,-0.12636632405828416,-0.7326500049235964,-0.862666276725389,-0.8982218575415004,-0.8958948278164448,-0.8149867025368596,-0.3304804717135922,0.2746556107047371,0.18619709531179848,-0.26093499631510947,-0.5674165142864205,-0.667075416122752,-0.6451398844700944,-0.4539049473576463,0.05221253220297853,0.5929603492657591,0.8174354392470262,0.8927978187796823,0.9210834397671712,0.9305428695678853,0.9293713970941291,0.9151500956482634,0.8794031202474561,0.8044793808025813,0.652792800417574,0.41532711708395353,0.22017059590290827,0.20216228695536578,0.34779264305329555,0.5133007535090578,0.5609814504255428,0.28332505833037497,-0.5681186812608491,-0.8848491343941502,-0.9515098982118132,-0.9687526784246228,-0.9704919733932871,-0.9650133135367913,-0.9537399682398809,-0.935175209182428,-0.9012909469482858,-0.8367848685558718,-0.7655530683153026,-0.700021606006642,-0.6132680819003252,-0.4955146156487846,-0.3654587210018252,-0.2627981530539245,-0.21600488794018122,-0.2248345962814032,-0.2674754403543777,-0.3164941036981829,-0.348457014936586,-0.34199806387806964,-0.25757235212874213,-0.041490232874219254,0.23757532698796363,0.4461171131901636,0.5573001618458095,0.5854907918512461,0.5592662514252006,0.5241434265542515,0.5114990430635699,0.5290774477004901,0.5718369765811929,0.6306606383586115,0.6985306550938407,0.7725453452834712,0.8283241307370782,0.8387023274983674,0.7912430762061369,0.6616084583156486,0.41817915237571174,0.1580736967886475,0.037838794498702324,0.057175340061622934,0.13594260896568958,0.22269410793445993,0.3080136829278523,0.35254226910060227,0.14207606745583234,-0.42929218773843303,-0.6697332920231359,-0.7488193853124565,-0.7611386374737369,-0.7062258117344964,-0.5015781892056812,-0.0006515629275391565,0.48203435696551106,0.6687318631834986,0.7013087829780091,0.6327655281625952,0.42180707729529293,0.011401068267075086,-0.416784255916472,-0.6439339109425551,-0.7110364478670169,-0.6673627195175943,-0.5026101480729263,-0.24632481955404284,-0.04665291596504481,0.009924220308225418,-0.05864458809536252,-0.20016102266826846,-0.3550951292474031,-0.49492770775407813,-0.628193195237847,-0.7611722943304855,-0.8720311592931869,-0.9409669697632737,-0.9705007313384585,-0.9569548175510689,-0.7910346332850843,0.06254644641303758,0.6857104721004961,0.8352927607093785,0.8815917685739181,0.8964348897885446,0.8970158259104182,0.8941273773086285,0.9013726864818442,0.9198063122593625,0.9330891014528303,0.9337732227538291,0.9256485856655601,0.9098582776195847,0.8838178917842064,0.8410244028494592,0.7751904446515848,0.6927477682700691,0.6163600376815787,0.5505787611546784,0.46220154575212613,0.2858830852733207,-0.0372400471698018,-0.40303357683013513,-0.6355981197739863,-0.7509542258063768,-0.8175221541563436,-0.8665721668343601,-0.9048562207017872,-0.9307808364226836,-0.9424873624604941,-0.93772791135473,-0.8991380081264128,-0.6603005036518691,0.5353096445810245,0.892102238938665,0.936664418918526,0.9377066191147918,0.9127364708709271,0.8276664474074013,0.5087853581736319,-0.1643738412452417,-0.46552468076086934,-0.37567326849042204,0.01951714846249567,0.4303620932602132,0.6115623528657359,0.6244559738874584,0.44356726154093645,-0.1325868633986186,-0.6874632170531559,-0.8617658583082983,-0.9111582127992027,-0.9231223435481535,-0.9051647662568533,-0.8345429844065534,-0.686999136745912,-0.4982906941790114,-0.3423302868808864,-0.2335795166660534,-0.12090049841721727,0.04897003826808192,0.26237086546709254,0.40773346118508835,0.32504776625671766,-0.26379743031662,-0.805175549580658,-0.9301754856192368,-0.9614743168792868,-0.972615808752491,-0.9772915639541646,-0.9774280182923578,-0.9649286677630753,-0.9019102261259577,-0.681616754452882,-0.28477914489784206,0.043955191115346834,0.24082086178504705,0.36981338302169087,0.4668166215036974,0.5448502410243676,0.6194432352585956,0.7002196364960663,0.7789647233996244,0.8363643804182216,0.8628209076988536,0.857694213241494,0.8234578656098521,0.7624552599343927,0.6836444946440768,0.5999375408120623,0.528402750549982,0.45497339879458837,0.32453469125935536,0.19627830955835712,0.11581879636630857,0.06513926446195362,0.03281426979682564,0.02277262513929606,0.054348308563769286,0.16180847118416666,0.3495602124152378,0.5404806214701026,0.6605922520264697,0.725549879052791,0.7711549369613738,0.8130698961674218,0.8498073263297172,0.8749307822809166,0.8870854458682186,0.8891341442305509,0.8870652234644943,0.8798584785354171,0.8598068835670917,0.8149953846276249,0.735255110285716,0.6162147466779375,0.4827086107403429,0.3870541236826292,0.35453785914687197,0.3880773401188411,0.4674432575533033,0.5318743146209483,0.5416270281066925,0.44327925415173774,0.18752131320622215,-0.16578513106724346,-0.4652775254716196,-0.6402991253067277,-0.7168720114226395,-0.7185551877188183,-0.6345680521462407,-0.4052745230175008,-0.04103548077991457,0.2159314264782952,0.2735904017277364,0.17255354062023592,-0.06115624755735448,-0.35101681422159225,-0.5976909382078397,-0.7591738437603934,-0.8368985876358224,-0.836014788786617,-0.7476921343000782,-0.559638465556622,-0.34082888234963754,-0.2532309141915238,-0.3420530519311365,-0.45640832413061977,-0.37415275074794224,0.13840103369018822,0.6715252956456329,0.8404842293858124,0.8889350324165258,0.9024543782973603,0.8999964508358133,0.8865917129211451,0.8566355291076515,0.7878588020779095,0.5828559400627946,-0.05407742854417808,-0.6574480281811738,-0.8180504120172574,-0.8331285628805722,-0.7687212320322623,-0.5632015200293554,-0.06256794551378325,0.4768825735395151,0.6925553058679021,0.6938799488341433,0.4638571443215385,-0.051823535508503,-0.4972673426877827,-0.7091657018685691,-0.7983444750420602,-0.8325013138806946,-0.8387893452265998,-0.8299341925512898,-0.8125008615910351,-0.7925127071851182,-0.7679564990364127,-0.7150236661247658,-0.5944127080281405,-0.38846996191865146,-0.17205433572569265,-0.05937040418144272,-0.04650585835344783,-0.012996673896692706,0.21839298174089392,0.646995726214211,0.8784433849431651,0.9277324138265786,0.9317528527945784,0.9309402172434437,0.9314085545862695,0.9253629444201873,0.9068666016495636,0.8888695482539857,0.889308743062669,0.9025641053938713,0.9153768912308209,0.9207992763358115,0.9167053959764508,0.8999768595131574,0.8668401542736783,0.8194292220857785,0.7723724935573404,0.736999417148836,0.7068903605111401,0.6596011633488272,0.5509576127770722,0.30337269782738713,-0.13237779883139833,-0.5583165751219935,-0.7916443789644574,-0.8917500930793503,-0.9315427937914375,-0.9454103151115787,-0.9489734110731205,-0.9498679941441489,-0.9501743541697331,-0.9498638172646137,-0.9489528584277844,-0.9498140746489269,-0.9579623561079316,-0.9724740044656264,-0.9715346012142638,-0.9435801584738691,-0.8967426113412919,-0.8308563108513648,-0.7354807827694334,-0.5998914811894499,-0.42969799852259544,-0.26501214417188396,-0.14176472835344398,-0.051784512171045724,0.04029206275158712,0.18295678298663873,0.46195728182473744,0.8275458765532928,0.7407618333525668,0.6097888943162462,0.5653275444788275,0.5793988450703299,0.6340478090190648,0.7209089746099149,0.8257823677405437,0.9146318407328775,0.9371930504770469,0.8980509516155432,0.8518753535048288,0.8241032632517852,0.8096879761905956,0.8034435466236152,0.8038483763838956,0.8100508321196334,0.8198986563433208,0.8316366594686556,0.8438863465682273,0.853998659901591,0.860341159668934,0.8610560218029158,0.858666455677821,0.8592223498932825,0.867713027173478,0.8826662111448914,0.8927955063908648,0.861170581952223,0.14744835201334103,-0.881275114763213,-0.9390705084787718,-0.9531656883998088,-0.9587563600452399,-0.9563289561465315,-0.9358093864664864,-0.8609197104973767,-0.6048486517208047,-0.074820965117883,0.33640143417627083,0.5229890733666686,0.6075957685648672,0.6526059165619109,0.679738514414678,0.6882353326126172,0.662236109645259,0.5814545021549569,0.42928167609678064,0.21458467262207573,0.004568868141087626,-0.12399899728690048,-0.13316809802935287,-0.02604118056940959,0.1115458770193562,0.01814249971072926,-0.647072686371429,-0.9221858320610153,-0.9532035648500815,-0.9552349336768344,-0.949279873412482,-0.9351921121451242,-0.9005841564057578,-0.8037247984978906,-0.5797843238937406,-0.32724535866556304,-0.24472998227827117,-0.31781456950928244,-0.32791464074992716,-0.16449698289737685,0.07878024075989945,0.26350056182273035,0.3777397048573198,0.46177007619883526,0.5412030981535442,0.6209666546364114,0.6938175321296951,0.745324234573148,0.7676233534410065,0.7611837211870351,0.7325857455438965,0.6903878614630817,0.6478253618092535,0.6255336444892324,0.6499033407471955,0.7454917661093701,0.8605682359105167,0.9213587979332085,0.9373551805243695,0.930000655471261,0.894379208741693,0.7590059122103685,0.031780662763167045,-0.7956119234687479,-0.9322741187282492,-0.9611067671373346,-0.9689250546278203,-0.9679512409408216,-0.9573010798334327,-0.9206622589164091,-0.7554793948338899,0.07620665197225829,0.7626368292340294,0.9026668664850296,0.9366683228501193,0.9265445034301684,0.805203087229685,-0.05856374934557775,-0.8037111725015212,-0.9182508760298784,-0.9452692146499584,-0.9519506026168144,-0.9480329018275784,-0.9306700099488603,-0.8834780190746677,-0.7597860758559714,-0.4509481943426976,0.14341857488860701,0.6794688239379817,0.8788325218801033,0.9163570802610085,0.905568064224394,0.8764491659405699,0.828740104466565,0.7409961545564535,0.5563943150079455,0.23262542598591732,-0.030334721242814434,-0.0009714047274959614,0.310653007086701,0.6016225483060067,0.7218997814591406,0.7645138967816067,0.7911100124270547,0.8112599965647062,0.8229997232641086,0.8131123639094846,0.7722145305101136,0.7282019509036909,0.7225713116144075,0.7372711775240928,0.7368136346886122,0.7168125726488774,0.6961289346621966,0.730124527610562,0.8162514699059212,0.8759150716720064,0.8986655887898102,0.904362233931566,0.901695395202975,0.8919724766238231,0.8721073871530004,0.835358539125809,0.769065231744459,0.6346494444191565,0.3198218434506396,-0.23275459121574257,-0.6419870750889726,-0.810155974161885,-0.8794381776997348,-0.9150842139934848,-0.9375481830073013,-0.9520224295092166,-0.9601270539915756,-0.963898566424651,-0.965424775191607,-0.9657783262753179,-0.9655013944091767,-0.9647720945507294,-0.9639910582519465,-0.9636750104048506,-0.9645837977087288,-0.968167622128124,-0.9704742563728428,-0.9651016088527187,-0.9522620381253906,-0.9293314495991526,-0.868110841216373,-0.5915722448237954,0.3314709870333129,0.7809800729650632,0.8793767728471416,0.900393664526927,0.887195890937269,0.8399777329280593,0.7581007046754966,0.6668255134264561,0.6203997034148582,0.6436563905190962,0.702511087816025,0.7533123531649412,0.781541030828426,0.8013024015913276,0.8288333347059444,0.8688657402859077,0.9097448478776312,0.9403372225225711,0.9569892041335738,0.9625472344540186,0.9556281684974536,0.9098517600949649,0.5482137635510187,-0.6215486386631351,-0.8913009914940513,-0.950230497859782,-0.9739099899153126,-0.984982566174389,-0.9877393386557632,-0.9782124450111603,-0.928667696510837,-0.6322252320561186,0.38384465375719634,0.7987539509014714,0.886649823742517,0.9038836184081267,0.8910515467551188,0.8536794486691874,0.7940567421349628,0.7144970947922685,0.6104591867344508,0.4598148862958692,0.23681206528400933,-0.004381398105291369,-0.1460606309588341,-0.15543090574510499,-0.07131734182520477,0.060059079704622466,0.22664827835157197,0.43577211746317995,0.6561627688093955,0.8024396690231389,0.8538416749903495,0.8183664254357094,0.6564709800564458,0.3402317337338428,-0.06439156831173527,-0.45355918038467047,-0.7072457717186952,-0.8147901615475753,-0.8472037699420439,-0.8389217345667064,-0.7912463842006259,-0.6858629684616694,-0.5049943970113177,-0.2771259507434309,-0.0685604781280511,0.08530609379609859,0.1984647049554455,0.2951788187293734,0.3803130988033541,0.43412993664773303,0.43932248648536976,0.4080030729570757,0.3570627631008094,0.27279161528255785,0.17084325039764878,0.09667871045216854,0.04022405164797767,-0.013617308034767094,-0.06312255253617562,-0.09615531818282062,-0.10498616862193196,-0.08916262523564003,-0.05041055841452601,0.0031388662358875167,0.0616108659609814,0.10833173446177631,0.124877836565329,0.0739847564047322,-0.09632796668141767,-0.390637658583507,-0.6727889829247321,-0.8314522850888227,-0.8997456835328557,-0.9011034635175469,-0.3053922542899361,0.5919505264446254,0.7047622493553982,0.701518271499637,0.6687960804079042,0.6318564214016328,0.604600060521552,0.5896091959299931,0.5770922299909773,0.5573309739183097,0.5279375628401843,0.4950514421823653,0.46778116041583134,0.4489435219634834,0.43478326462697475,0.420281685897825,0.4018722760849761,0.3763692713423706,0.3467557630750867,0.3159925369572483,0.29118918210495753,0.2696689787156761,0.2463077408948892,0.2249713360757324,0.23367711299505015,0.28680032771417646,0.35897411489830616,0.3914958455257494,0.3356024283341749,0.1581118228257692,-0.1290221123716932,-0.38269878360587106,-0.5286215395120274,-0.5953631647995011,-0.6163674491756074,-0.6135215052710437,-0.6112146658427055,-0.6229786085929789,-0.6419193284781343,-0.651945019092697,-0.647304225511232,-0.639457060890362,-0.6415564567569211,-0.6504971838660424,-0.6395481578404,-0.5658324653249655,-0.42651523349037307,-0.27305283994430946,-0.17373209905947304,-0.20403218225792744,-0.36724993912635334,-0.5603318911316008,-0.6918394361572516,-0.7534671606541692,-0.7636978291741426,-0.7315958319193127,-0.6566694228390042,-0.5205373566177857,-0.29296702800843016,0.012901578455791138,0.2902485143907963,0.4523009840612681,0.5098784434376342,0.5099245875058752,0.523478504915311,0.6170672073944148,0.7368508284570054,0.8103275441523348,0.8485452793970554,0.8726222638528786,0.8901334588953612,0.897708516254189,0.8835688734378963,0.8296546967954314,0.7197363951856949,0.5501891238753975,0.33148831798066125,0.08838192555953679,-0.12676624550871207,-0.2597828757004387,-0.3082004415797373,-0.30427499782557427,-0.2932971931188532,-0.3290171929577961,-0.44690975682802336,-0.624121621907301,-0.783792824611137,-0.8849303423216778,-0.9375629463623226,-0.9611654213562469,-0.97034650243477,-0.9722787989876843,-0.9704557001534554,-0.9648669833589775,-0.9417811069225944,-0.8617198363886112,-0.6861031801954882,-0.3873921546917272,-0.04054354534782217,0.2127438804374254,0.3389606284349023,0.37706749377060966,0.365597001442318,0.34881545823062954,0.35939506676611604,0.3891977050220846,0.40581270477554193,0.407075701088275,0.40517536494417816,0.4093603424089629,0.4245115173439897,0.45827890097725027,0.522981556917768,0.6298110264391986,0.7676366678260987,0.8810096888397047,0.9383873334750295,0.9574239510028498,0.9562612263269618,0.9383631362948794,0.9050277109969256,0.8666871705284512,0.8434195417878796,0.8476714303091993,0.8695425211062192,0.8960003585143466,0.9193655407994166,0.9359115129575152,0.9452256065871582,0.9464973706612057,0.9319422555689646,0.8533096891966725,0.2071415556558785,-0.8403083489458072,-0.9663567453949883,-0.9897753258329814,-0.9964384026367054,-0.9976478386973504,-0.9956252750205683,-0.9883204095249809,-0.9650288948916733,-0.897421699131614,-0.8301501272654099,-0.8874868076411471,-0.94577550468192,-0.9692020483184505,-0.9776759281899924,-0.9786392373710413,-0.9716917024108978,-0.94322198589395,-0.7802435055148532,0.1752831279247758,0.6995133211844485,0.7050922417762975,0.4688694551035116,0.014851984842489056,-0.2879022529145,-0.30321552535532104,-0.09181291005911826,0.20670972194183262,0.39894749274402014,0.44160563129048797,0.37935385019943396,0.2888863365423621,0.2553442463121886,0.3003725634008348,0.3944902529613771,0.4764815248686805,0.5150500769517117,0.49854066888605186,0.42593953727422934,0.32418995031646763,0.24642948071018494,0.26218723187817883,0.42654683792478876,0.6521128122797395,0.7396309134858664,0.7058540747452527,0.6230010199027972,0.5115622380195868,0.3759465187578148,0.2277546476188997,0.1257392758985469,0.17405195970183343,0.29647502259519276,0.3894387467181077,0.44048109986592254,0.4584503023261346,0.4531762351880136,0.42986837808080475,0.3858645790300935,0.3353293279226558,0.33284935525036774,0.4269834494288187,0.5910301733523903,0.727643458288932,0.789637495062791,0.7792582100561753,0.6548625372139296,0.19397471408313444,-0.5356314567117318,-0.8273212434780776,-0.9076913106586246,-0.9325025360290936,-0.9380946380450723,-0.9307138533189331,-0.8930632656743164,-0.6660861177894696,0.5072407083230464,0.9112217771236244,0.9689007575339934,0.9822315009293197,0.9843540592285047,0.981170523470095,0.9679650076481835,0.8902752401778447,-0.20635688551695472,-0.8887232843883811,-0.9385526786979165,-0.932137405643721,-0.8908415893104118,-0.8039638278815464,-0.7402725760710775,-0.8204242148410319,-0.9138995910831432,-0.9467898801459871,-0.9464853100169462,-0.9073770894737504,-0.7256588285031099,-0.10611321099812206,0.47171610053606344,0.6657761482562243,0.7144563988240465,0.6838962568444872,0.49808980979567363,-0.15404298871004515,-0.7551427988699048,-0.893897806242674,-0.9127655048054584,-0.8816220499872014,-0.7714390314366524,-0.49502019360630234,-0.10724627892669537,0.08285976778378756,-0.016075539901098276,-0.28124225591487745,-0.5125953657948423,-0.6453764677687094,-0.6934443721448297,-0.6488905842487491,-0.3829658863177941,0.37425948356078687,0.8369136334710975,0.9411515548961481,0.9702125830748856,0.9815035820783159,0.9873150116094378,0.9908138016697327,0.9923041675660969,0.989321645501098,0.9473024106677759,-0.09934483180626778,-0.8487934801720435,-0.9026240189939121,-0.8969374771253941,-0.8630192585820019,-0.7718643646182352,-0.4739956383277163,0.2685983516148949,0.7307123579833692,0.8259416805268409,0.7131178453100064,-0.38607805263526784,-0.9246404730955092,-0.973692450775266,-0.9828306355574236,-0.9821305322558214,-0.9716812978635082,-0.9341579440143982,-0.7843742413481667,-0.24928432691062372,0.36293339600436697,0.5889029545230641,0.6486287701482671,0.6547596769989558,0.6544591647736836,0.6631372214531628,0.6823822130904316,0.7051048497904254,0.7264195234007201,0.7408424171375897,0.743488447543528,0.7361661416247863,0.7265330335243643,0.7250131646841256,0.7399563312931734,0.7742738437906614,0.8187710172941794,0.8551004860927283,0.8708054606262049,0.8668023320459854,0.8462417999675431,0.8048545868262624,0.7262670654511222,0.5715386102174445,0.2971586248660842,-0.055642082535560355,-0.3093863774178374,-0.3238225305151928,-0.09188036545509116,0.2461321160655307,0.4361506971334531,0.4478405447947097,0.33198991522037413,0.15036237713913442,-0.025218785384190267,-0.1626957731024484,-0.28704047134112626,-0.39472782367898046,-0.41320516679457775,-0.24959846539276073,0.04202455505145557,0.3110878963588445,0.4832500050009364,0.5731021241620474,0.6162823697892302,0.6433675378260204,0.6690516808356255,0.6894414422394015,0.6784977532173248,0.5400455836730272,-0.21786702832631935,-0.8618714494803681,-0.9033905382876957,-0.8417863163162147,-0.6792566458583061,-0.39722733358447126,-0.16578526553370335,-0.14744953902602345,-0.3123415535316468,-0.5371122078426306,-0.7135191458872405,-0.8112703642510122,-0.8404838827620109,-0.801777324451358,-0.6754492332547767,-0.42980278850517184,-0.059168856716591035,0.29282862174047064,0.5078708299503061,0.6233843645645459,0.7001603748630475,0.763930824707083,0.8112033222619817,0.8311220047711207,0.8023759908763608,0.6411764719196918,0.014134625860684133,-0.679823379545889,-0.8692445410120915,-0.9214366700275802,-0.9415951838767568,-0.9504078473741716,-0.9535240735511987,-0.953516179717559,-0.9497309053401152,-0.9367866926518998,-0.9042830650573531,-0.8483835548697052,-0.8156539094348897,-0.8552499258340842,-0.9179612157433665,-0.9572676073850208,-0.9756246323717225,-0.9805780079190991,-0.9719878854473186,-0.9371696224869788,-0.8339101055285182,-0.5708596303264881,-0.14853702216287462,0.2072120376941971,0.4258564705603386,0.5629114731359572,0.6528090160761922,0.7083293438945729,0.7456052933284334,0.7757017049172565,0.8075896119964228,0.8509559169815848,0.9072371771831552,0.9583965804920594,0.97417177227765,0.9579486727524957,0.9353756531707336,0.9149755385673981,0.8915570218524446,0.855619212002583,0.7970684790482225,0.7151002707491579,0.6316752532638333,0.5758144058043854,0.5534153442323078,0.5458333944105742,0.5283781325256479,0.4990022081552008,0.46602809345919033,0.4340107833598951,0.4163360818812887,0.41580241984672484,0.43370966059035243,0.4663847845089182,0.49298540184416656,0.481805734188116,0.4223221712288192,0.3523107361725399,0.3887411661089959,0.5823197309446159,0.6983213465134465,0.7077980683844626,0.6783105611986153,0.6252926945983449,0.5364185872321905,0.38059297998934993,0.10659064105329051,-0.2960979904323996,-0.6572348006572227,-0.8477502903856045,-0.9229984470731973,-0.9467601045828085,-0.9468418098990543,-0.9302358641689376,-0.8880809158445347,-0.7825770130995837,-0.5040014105909956,0.021677380320697315,0.4368737557773257,0.6224520281586964,0.699348991307663,0.7344463876750856,0.7475529658251953,0.7286626549161667,0.6250204306886861,0.3079500280493968,-0.21105507951813623,-0.5493841028945393,-0.6847145480273993,-0.7291138374654081,-0.7299864468789043,-0.6967177582070258,-0.6225750532162204,-0.5492500603101581,-0.6085295361556639,-0.7865749389787315,-0.8971592817663916,-0.9069004731219735,-0.8443510019413565,-0.7391525457095782,-0.6639465035715766,-0.6828681685155602,-0.7560783823636027,-0.8151990604483644,-0.8325740128054073,-0.7884987625779398,-0.6093289841749879,-0.1430387931849368,0.4128502589353783,0.7078617827825505,0.8359588735263574,0.8973026297365089,0.9261651988053706,0.9345619602558448,0.9283870032995337,0.9116570488226167,0.886879217557965,0.8578312815340563,0.8245675680461091,0.7791863662574672,0.7124883920361168,0.6276995992346224,0.5597789120255259,0.5316368182100297,0.5102040850024623,0.4431721348386429,0.2775213796008503,-0.016199822719064377,-0.34600700302320253,-0.5874755207707195,-0.7324714677243386,-0.8050059740068088,-0.8290968607366985,-0.8183441905485194,-0.7663170941310287,-0.632918820208023,-0.31811390880400936,0.1812253287512452,0.5245830461053279,0.5731085197296542,-0.12513654384881254,-0.9019386441244827,-0.9561920907851655,-0.9571397386745468,-0.9384300708976037,-0.873776891643563,-0.6640129819791295,-0.1881396042989158,0.25954372653506974,0.47225241321949835,0.5561585663088409,0.5777041600239824,0.5426837097370503,0.418700482497738,0.19273118856221388,-0.02691397507213212,-0.09629339262765987,0.07694409792219303,0.5255992389157911,0.8588362906862135,0.9552020267885625,0.9770731047743217,0.976032325303987,0.933739626118799,-0.034898439011329,-0.8874455781966711,-0.9237128196136406,-0.8932305797190643,-0.7906451230332558,-0.6229097400246324,-0.5504218074600805,-0.6374712846033205,-0.75852354815076,-0.8357944798307106,-0.8685763751524613,-0.8651053918401408,-0.8138437191764706,-0.6500349804630359,-0.21558378496490327,0.3146433405501782,0.5143642596618215,0.41044478546230856,-0.03837832636312855,-0.5394031389450866,-0.7261404588979987,-0.6624076389928721,0.10418570236552563,0.7975258283829396,0.8824129646352872,0.8728732638173372,0.827014541418288,0.7729034341539698,0.7490531008205227,0.7671285527695335,0.7983109644539533,0.8108600524486119,0.7936985714768469,0.737391213339978,0.6196742923847876,0.4334274141350707,0.25960244314601805,0.23595665576466265,0.38239232405218515,0.5692443028679804,0.6926109473030312,0.7567838913604267,0.7759735526024079,0.7469943713055559,0.6478321407567877,0.46814349383719217,0.24420990054393238,0.017857219518192212,-0.20074647659206526,-0.4042310477692506,-0.5663671903308144,-0.6761688258113857,-0.7550863200994036,-0.8050826819794137,-0.8182475404656246,-0.8138481169906555,-0.8131668172868101,-0.8208550652288453,-0.8358290778822799,-0.8573998059998055,-0.8827309266401984,-0.9067113777122631,-0.913177978931194,-0.8540259996623235,-0.6323937938365652,-0.2400990242591161,0.1272330103063346,0.3898677171850756,0.597051476890297,0.7629020572414982,0.8706409875555984,0.9262860167462716,0.9515581283905313,0.9616950284683143,0.9642110120893391,0.9622448332901016,0.9560457538427388,0.9431020054694769,0.9160643214105529,0.8576632011528292,0.7381701644047834,0.5433154886539107,0.3151553298576151,0.12184701299916251,-0.007845660014554123,-0.08487949955946339,-0.13005247754296972,-0.15982416825784304,-0.185792152825079,-0.21118746236755223,-0.2635289449100419,-0.3924314409458122,-0.5688463499233919,-0.7105080289524972,-0.7827716919060987,-0.8044971708935257,-0.7955307881802552,-0.7637395509950392,-0.709233145090878,-0.6436667080800484,-0.5992985529839145,-0.605359913671869,-0.6518612383673087,-0.7063586164867613,-0.7429394623697535,-0.7569850750754664,-0.7588498040733586,-0.7563866880800868,-0.7528509270877982,-0.7497271650410933,-0.7502325708458643,-0.7544694784443646,-0.7582026745913606,-0.7464324921501968,-0.6843047934225088,-0.5373853589107878,-0.28779376006065344,0.06846727377408139,0.4134666276227459,0.6342239913724171,0.752736536937099,0.8109482644745027,0.8346975088771902,0.8345296508878699,0.8147162375537351,0.7811944797319882,0.7437782175894748,0.7112025560711354,0.6849822041376061,0.657538792375199,0.6083765263934291,0.49880920493431663,0.22709578585782808,-0.3554801090205035,-0.8395259513228779,-0.972252320599812,-0.9864124448062277,-0.9570190223412027,-0.8961584158079399,-0.8180345721853337,-0.7454491041148494,-0.680658759662461,-0.6023814093761567,-0.49597223091931425,-0.40269670023768944,-0.4097853401284572,-0.5069317308782808,-0.5852479260527647,-0.5524853979684717,-0.28454106346312735,0.2952603461500366,0.6799494313785795,0.7987213416289131,0.8095319276983157,0.7197695951712461,0.3167649056499359,-0.5443012483692049,-0.8743013682871416,-0.9457985664542768,-0.9654812667892338,-0.9705425911136185,-0.9663616168350396,-0.9458887545041708,-0.8591705933906159,-0.43302458538554756,0.3174716307265666,0.5940688213342724,0.6185193436196297,0.442093523101,-0.124042770614754,-0.6870750791664392,-0.8537431552812754,-0.8724368234225702,-0.8070082578727809,-0.5569178346000171,0.11159966330516886,0.6674442963463676,0.8357829508567087,0.873844176147722,0.8752902588403267,0.8746125701956499,0.8895669500072282,0.915856249104692,0.940740851459459,0.9569307924121685,0.9603764603332234,0.9440606987414412,0.896589791502146,0.7922876030712798,0.556580332829522,0.07991188448671921,-0.4228169808112572,-0.6559390161724944,-0.6931848199757888,-0.5700394649995515,-0.2538894879825615,0.11296165525228215,0.28790420433450187,0.2558512086814842,0.11797605312239132,0.0005057885770789249,-0.04503578975471153,-0.032861503574989036,0.007900060745735555,0.057445999718022146,0.10786798162557477,0.15187665857470656,0.1859134498527876,0.21010861554188778,0.22228102916692838,0.18204099696004464,0.15165587773643133,0.28708901546038335,0.5983450409090182,0.8802463116514403,0.974547654518338,0.9653162372849431,0.9030574263775176,0.7752215178392202,0.5509562558879677,0.24816821532984898,-0.029449636193924777,-0.23642142923009568,-0.3917188353407758,-0.5127678184367374,-0.6012182847358832,-0.6445481814883578,-0.5943684052635645,-0.29181402838528014,0.2445309638841768,0.5236677229598206,0.5707146263067923,0.4946212857264943,0.3711037269522509,0.3008570366520341,0.2621277859393661,0.14361220836823455,-0.12130394801620283,-0.41303202495486885,-0.5696485091816683,-0.5807460690446409,-0.4417666709815981,-0.08813409827578611,0.323006290601989,0.527558595208309,0.5590293206594418,0.48863187611377196,0.35545274278366085,0.19251136904883828,0.024057483413586184,-0.1716673777410645,-0.4514230054798064,-0.7447889029520741,-0.8945544493872766,-0.9466448877310344,-0.9645707568706142,-0.9700746803016741,-0.9672768508739304,-0.9476041871718668,-0.8340021752218011,0.0011365073930531967,0.7313533240831774,0.8523719393418349,0.8609544982376567,0.778726118251352,0.2842426045063811,-0.6934876792363934,-0.9056888457799623,-0.9428395171287018,-0.9460526084946196,-0.9278291106799076,-0.8561314074936849,-0.5620213395278134,0.18815001920166508,0.6484099099745337,0.7893796356593252,0.8272460907936532,0.8075279625072327,0.7174001004280128,0.529833759067916,0.25838820765487275,-0.048949992470401285,-0.3801598422688735,-0.6637566313810941,-0.827471140873805,-0.8999492844375445,-0.9282400022091077,-0.9276200074902653,-0.8611634276569363,-0.03133430318608332,0.8783303684281895,0.9503945220589711,0.9603077614046522,0.9568305912948121,0.9431182631556383,0.908792398165162,0.8322226334476563,0.7206568235540386,0.6442041775046943,0.6202887248702484,0.6247682079394243,0.6359778164947133,0.6340842014340788,0.599942500836862,0.5080514898015939,0.32678651057717895,0.0516499989355804,-0.2293318984334373,-0.40829208978571546,-0.4772208938674062,-0.4726653920623132,-0.4380882172038845,-0.4115958291688515,-0.36332505782805047,-0.20843182119109063,0.08385857903352055,0.4057921763635796,0.5941445149657663,0.6252839460897385,0.46883488705610227,0.03278027260476373,-0.3929086360286903,-0.5052511633350767,-0.32022733880001725,0.18595637730129774,0.6075814661988795,0.7718535975044692,0.8307113859094094,0.8525240757687373,0.8567861908484898,0.83735468166486,0.7294978235321673,0.1792196806272622,-0.6071080790848039,-0.8137260264921627,-0.8625908187037612,-0.8737899733918673,-0.8710537183540605,-0.8517941528811274,-0.7543421651985128,-0.4552289545405402,-0.14504722068440565,0.026545188175948732,0.14006450428591963,0.25425813922939694,0.38849644752702045,0.5410182450773454,0.6822836390123421,0.7807490506118713,0.8266623937004695,0.8192664804431448,0.7375317648791565,0.5024149199080606,0.04722133416674332,-0.37934230155046433,-0.6049486717135627,-0.7083561091034803,-0.7524232304696545,-0.7589360972241739,-0.7263319687274665,-0.6294440117131378,-0.402085235467737,0.04525055051447113,0.5071522976114772,0.7024472557128056,0.7065418593930755,0.47750710878625896,-0.34471469379824615,-0.8613946725771165,-0.9535372588232157,-0.972472898902636,-0.9744859415833957,-0.968218598062155,-0.9516724326239859,-0.9139457227282614,-0.8274889614094126,-0.6452654561968321,-0.38388154507942235,-0.11336533499540481,0.12782598401213174,0.324731074480902,0.4690848525278904,0.5594846165764726,0.6041165529763601,0.6018917577454252,0.5501136459499694,0.4713861365664244,0.4207044900445377,0.41814885709313704,0.4459225805955845,0.4949883324769753,0.5615386599918181,0.6346260282029049,0.6905507667287227,0.7027152705629001,0.6587475581799268,0.5742300795587125,0.48156515968734276,0.4024449196074566,0.3449721871884289,0.30086341898495383,0.24714357894048247,0.1526807388108987,0.009944475654075406,-0.1512466817372528,-0.301712989938359,-0.41173760993417147,-0.47383885105938095,-0.4812026142958163,-0.38138385914423084,-0.04290947119879569,0.35561620016641843,0.5250332931894857,0.5637072027583776,0.5417085221076656,0.4771141278920754,0.3828628758088506,0.2713465842660069,0.15741542381543833,0.05096379477374903,-0.04860593419123469,-0.14391738855058345,-0.23254551516335917,-0.3088904187522017,-0.3689554181300551,-0.4180688617320779,-0.4647161885631935,-0.5168279632999979,-0.5830000611686554,-0.6726588411654701,-0.7718165323907313,-0.8091289806676956,-0.777522234254103,-0.7819121425978257,-0.8187734598666356,-0.8463967959326318,-0.8492149738532999,-0.8211979072652609,-0.7486598128736414,-0.5966646634406001,-0.3113290208801624,0.07627990849156457,0.39784232823740556,0.5931059910056552,0.7099017235453619,0.7872232424412343,0.8410579150718765,0.8762447169094026,0.8985259796702942,0.909425585178422,0.9023904248326036,0.8598120188926478,0.7078441642715698,0.21267464422533996,-0.46990838668821816,-0.7637986921989037,-0.8589936099755521,-0.8874359705327952,-0.8771911983009041,-0.8151843178264973,-0.6553533487000917,-0.3684876762955204,-0.046252884186925275,0.1940182862308206,0.32484720302466874,0.3329062657283522,0.13142820492884147,-0.4099632421870035,-0.7924969004941844,-0.8419638184015006,-0.5311286981744276,0.5927513776542995,0.8643931962301675,0.9046447145489082,0.901191931621101,0.8709256000971481,0.8037029654019412,0.6773452236873156,0.49734875973581577,0.35711769685509914,0.3466323638905133,0.4357920450650857,0.5421316096136686,0.6212125308447553,0.6662198487768282,0.6797875694221196,0.661041523410095,0.6099959369032006,0.5317239746804853,0.4443407198164055,0.38458702701978564,0.3733585143164921,0.40346374126134454,0.45821485140101886,0.5128840212391509,0.517643456051148,0.35309297304985365,-0.331122251176124,-0.8118489747509287,-0.8421913247625905,-0.7674891645947751,-0.6827295207501847,-0.7033557701177114,-0.804041430478108,-0.879298190044866,-0.9133096908193401,-0.9241356044626182,-0.9172516936407661,-0.887674626367433,-0.8268755204774602,-0.7293312796628751,-0.5848458311663864,-0.36831815818948405,-0.06590836901115879,0.2552853771608452,0.4837651038986712,0.5850162274567356,0.5842550108769559,0.5040199418255658,0.4085724261145183,0.4200020902834497,0.5508785671018026,0.6657323587175256,0.7097116999932521,0.6977125942851855,0.6296964470005925,0.47725547049924705,0.16387745786452682,-0.3206051292515746,-0.7053750111252839,-0.8837547231267834,-0.9546487516916953,-0.9829782971938529,-0.9937439326163334,-0.9952599119310095,-0.99062593855211,-0.9805681536760582,-0.9632611128854996,-0.9322660963593913,-0.8740829275493062,-0.7708388137918686,-0.6473351568590621,-0.5994235149337955,-0.6353136810823512,-0.6629480730608414,-0.6075984262534712,-0.3175364398198182,0.341597623922222,0.7093107880906622,0.8016458001204146,0.8240676293769665,0.829892973282076,0.8325647137311953,0.836348738528941,0.8435077891949271,0.8513497921158539,0.8554546695583287,0.8535938729923489,0.8491726318695745,0.8421690491891843,0.8333362158609626,0.822018736972701,0.8039214314757492,0.7730636016379089,0.7295309484104162,0.698775283469971,0.7119904635426728,0.7624879806585254,0.8147569889949899,0.8496264387429363,0.867427230229217,0.8787892364040345,0.8888105571185888,0.9007527479867546,0.9151765631246628,0.9316793767335563,0.9478354304651688,0.9626085666758483,0.9755614404875607,0.9828361008605146,0.979071846716499,0.9582031224074199,0.914859336180906,0.8530791147686738,0.769886200932378,0.6380687239232744,0.40173659392854233,0.07074106532455675,-0.17743614074254857,-0.29954088859666533,-0.37160848117252954,-0.4454105843818202,-0.5347010447851487,-0.6152001041822495,-0.6514770995517444,-0.6057496910318086,-0.4425200883371506,-0.18222493329688427,0.03206365622238848,0.0865243082179741,-0.044013459004978994,-0.31216893134520235,-0.5750765508590451,-0.7371503286487001,-0.8165138860246677,-0.8471629214949599,-0.8348717262677287,-0.7801541979104121,-0.6819194125821997,-0.5357190249609498,-0.3794624451308579,-0.2623827610756743,-0.19587749777532623,-0.1656078332098384,-0.1559342430087462,-0.1490740790310636,-0.13351208099997502,-0.08359116746610257,0.05246842122759662,0.30544716197916655,0.5750774193951257,0.6877124385921148,0.6592521288223356,0.5578952877335975,0.42339891014033637,0.2909118917462168,0.19775461616440904,0.1663080148965646,0.20344785469905866,0.3242902564677367,0.5388026757928239,0.7477521798132357,0.8455166809642816,0.8553121934372242,0.8017542961674741,0.6543535407967911,0.3631581699233474,-0.012783875301673981,-0.30283629458794875,-0.4532222016067312,-0.500243423796897,-0.4735970026690675,-0.3820424367757254,-0.23499931234450203,-0.05703100611375559,0.11176726556555117,0.24402454739077134,0.32989558490078624,0.353623502264349,0.26946650386405774,0.0030041738629203786,-0.3715162600040648,-0.6294237541931723,-0.7570491999876124,-0.8178074506534198,-0.8543207561770786,-0.8858291211963978,-0.9102469258166482,-0.9232976126391024,-0.9244085944217627,-0.912035716310985,-0.8730882996309739,-0.7510570937934055,-0.32977780308642096,0.4209943293564309,0.7648657182022489,0.8636244970190089,0.8904053571246855,0.8812201795023782,0.8318763058548948,0.7181330169583495,0.5309637601227503,0.3511378135757583,0.25618113252203817,0.23596808774774244,0.24099383104525263,0.24155798084973168,0.2359516473296386,0.23537381595022966,0.2707145109636217,0.36869464073675584,0.5312411456441343,0.7071797673025891,0.8333286534884501,0.8982067442350764,0.9221606486760663,0.9175799566568652,0.8827394226052987,0.8065194838129388,0.7058737470720038,0.6581964825078667,0.7057814506330107,0.7954053480000779,0.8604271638554322,0.8834227822838728,0.8714629538065284,0.8267070596926108,0.7477736047478245,0.6320684077123603,0.44315023925554076,0.05925371564348477,-0.481554576886693,-0.7612900061300196,-0.8276280346659014,-0.8128704704993185,-0.7550439271497222,-0.6633685038093972,-0.5492203012541034,-0.43728261680431507,-0.360224752608174,-0.35180092987270073,-0.44372874824795466,-0.6212993591778284,-0.785462023378535,-0.8770395779943494,-0.9168181863561325,-0.9295627687680676,-0.924861551996874,-0.9046642109629922,-0.875402978870603,-0.8530192866326748,-0.839608410091559,-0.8142628068924046,-0.7345137402509594,-0.45937368408521206,0.24869957962158057,0.7001780620951239,0.780230441312973,0.6889319042547947,0.3867843766480573,-0.01584801397190955,-0.22885597442689462,-0.24324476225972774,-0.11849585217756604,0.09081891050688096,0.3181249883291873,0.5104810898716265,0.6323326999695568,0.6786938151513764,0.6673510072287763,0.6147914223878831,0.5370336253708514,0.49565512232825765,0.5448930280094506,0.6408343737505425,0.7142509093510335,0.7471210394371791,0.7493665683113291,0.7249552003897441,0.6603799026138971,0.4923274881367146,0.000885318847739647,-0.6650977831759879,-0.8489567163143172,-0.8625170049930183,-0.8195099408391238,-0.697771219335889,-0.41249168132642583,0.040128489256433676,0.4330859067971204,0.6607129460526728,0.7765030277599378,0.8274974440715753,0.8260757271073518,0.6945079016781643,-0.2171756202480726,-0.8969097097192802,-0.9731311479500939,-0.989214394858887,-0.9942054982296828,-0.9933305289754476,-0.9801514366099525,-0.9285491704304552,-0.7926548498933486,-0.5977434787052822,-0.3932621544855762,-0.10436838192064435,0.17401288373526066,0.2741685424929287,0.2127773492338366,0.07986336846729487,0.010523333105073987,0.16200314067891555,0.5641741053213907,0.8423093457639838,0.9292854793164871,0.9550617040901676,0.9621639209880581,0.9584056439571722,0.9389422823148921,0.8807661865667002,0.725160540261475,0.5023807692180846,0.42718054673958133,0.5013935674902176,0.6017303529116015,0.6588450909220952,0.6382911255227779,0.4653016705585178,0.006978120530312034,-0.4737501712403555,-0.6746074768610847,-0.7258560444738219,-0.7067687050254481,-0.629428398755917,-0.4743418618487894,-0.2059210741501532,0.12442341333799826,0.3185754519569223,0.2771308252383928,0.01490799305565792,-0.30003834378191135,-0.4649258554070448,-0.4739947614638806,-0.3377658447149045,-0.05149995518326565,0.2860363373092423,0.5360835857730671,0.7108156269306304,0.8111717504101548,0.8176599866276836,0.7906407017299231,0.7654912325035528,0.7369520329017163,0.6817253932677575,0.5647282200425879,0.3503438491882593,0.05700340411164718,-0.20025970006317187,-0.3462170480629694,-0.3849478847540256,-0.30655859495080373,-0.13037070067739404,-0.0005488532642988693,-0.10846702482026332,-0.5257798667498985,-0.8408884978198518,-0.9403696080032224,-0.969569724338815,-0.978964236340853,-0.9807947839815828,-0.9766657170586152,-0.9617188436552228,-0.9188394505053841,-0.8052306298802733,-0.5624074923746861,-0.24105054173360335,0.05185764213487849,0.3312084334269734,0.6152472204374166,0.8196557535027499,0.921786327532076,0.9659114930061219,0.9824828228460033,0.9836901427090268,0.9681267051905424,0.9130983997998159,0.7709197069328497,0.5716186923217541,0.505429329640159,0.6150704539112194,0.744286970790315,0.8186511268040975,0.850432379589671,0.8490337042390209,0.8192994997622468,0.7681039628098275,0.696672951992568,0.5942172793107632,0.4396977123689047,0.2237671632831146,-0.01793744764739515,-0.19655880248577923,-0.17363723131389128,0.4271293409757915,0.8772684429161419,0.9111435378900479,0.9048182705270562,0.8902108667652291,0.8732709592590979,0.8596905350691327,0.845406845132238,0.7971685301759524,0.5536437366456677,-0.375990242123157,-0.8522360908765819,-0.9389600245644685,-0.9638830105609135,-0.9732032027045722,-0.9729650842574019,-0.9510015065961424,-0.7950360736313837,0.25306914298356714,0.8053026645122009,0.9002859825308362,0.9338858521675345,0.948954763773014,0.9448058721135707,0.86587478870584,-0.030538161301184957,-0.8288381327853939,-0.9147984133255559,-0.9289343485310803,-0.9263833892902608,-0.9150522306264617,-0.8972828568926982,-0.8642463525995671,-0.7797436406433497,-0.5539268730088823,-0.17269899156914742,0.017544247897338817,-0.16504268884999934,-0.5513401304538977,-0.7872857438455637,-0.8782662084217714,-0.9130414126134896,-0.9232849717901764,-0.912722381484367,-0.8606201973672714,-0.6837259692511001,-0.21543852642773234,0.3600773099184679,0.6951135355899678,0.8438695020157826,0.87343621901599,0.8038797449377205,0.6799071625686902,0.5507725836290761,0.4283802169524217,0.3273127448359749,0.28610813501940086,0.32395872263445213,0.41223125130803684,0.49978231336780427,0.5517280404555492,0.5447715613574472,0.44536335783985953,0.20691781788864852,-0.15257622443611496,-0.42429357055724937,-0.4930616344710986,-0.29378533202958784,0.2363090976049037,0.6395479597327302,0.7645985998924151,0.7643662072234296,0.6867552748224417,0.5412631941482299,0.3700072411773942,0.2556519230266685,0.2557598026183027,0.3557328252365529,0.4988945247433314,0.6330424206664093,0.731480665184082,0.7958233708334066,0.8338709516985205,0.8538732778955681,0.859216209532694,0.8463459555019269,0.7925697195577999,0.6545579383693386,0.4217473847352966,0.1893909590482904,0.08533225859856822,0.15281676719779028,0.3728060468996328,0.6263730539752953,0.7924006447006978,0.8707785360938938,0.8882244498401565,0.8357729115299647,0.6333271093798594,0.15047858845667672,-0.4283655726667141,-0.7592714488973208,-0.8951214384249663,-0.9514358178458896,-0.9766648832119164,-0.9881510058598321,-0.991911251759224,-0.9862423356995315,-0.9516855039789458,-0.7732635214512522,-0.016817350811319177,0.6371038854937092,0.8039422506861048,0.8391866620038586,0.8297359067078002,0.7979521728405624,0.7586440061100098,0.7324563009741449,0.7415104356562611,0.7773350878262966,0.8167555778729808,0.845990565061885,0.8673304557395206,0.8833087770744381,0.894746980089336,0.9026761065664993,0.9083103110114221,0.9099284638643257,0.9010272466668406,0.8540016232077186,0.49657167695074333,-0.8228808961463083,-0.9712623774115244,-0.9871607387092967,-0.990136748869945,-0.9887899619607133,-0.9823945391956321,-0.9657935106190763,-0.9287277990847975,-0.859620954494323,-0.7584590011157831,-0.6302998341155723,-0.4683134805782199,-0.2726461840768862,-0.03240103219879491,0.27252886927992115,0.5731747933496706,0.7703986704126943,0.8685319437558097,0.9143098442046206,0.9329651310958317,0.9351166656291552,0.9262108949003738,0.9095757837938635,0.8833084967685152,0.8358178187763409,0.7256774083844466,0.5128285339576102,0.30466458188917345,0.16113000216477041,0.014905070915966557,-0.13775035022108775,-0.22165267511224654,-0.19305254929683366,-0.0838829502048854,0.043632484204299424,0.14948395055375394,0.21821694820294274,0.2356542553029584,0.1882634269912155,0.06939771021206928,-0.08410930204948522,-0.23576777134313404,-0.3789815539202543,-0.5206874311714687,-0.6622529488452524,-0.7712466623886971,-0.8260196047039113,-0.8338071085763801,-0.7939895202447796,-0.7059435615145899,-0.5961438920013028,-0.49612558793799877,-0.3882887304610103,-0.2148328394520464,0.05351581635853771,0.3486093935912117,0.5592598474157248,0.6623797046090908,0.6882994925825885,0.6634203250171298,0.6243200186884461,0.6434187454108559,0.7529304441179644,0.8685571989605007,0.9322392898220923,0.9573730484182676,0.9561487590985004,0.8384150783725454,-0.7588780924701266,-0.9563100794364595,-0.976675779560056,-0.982295163398744,-0.9840924505297057,-0.9843630538533429,-0.9834488518094502,-0.9793100507059515,-0.9568418929261794,-0.7011424089066981,0.5892631715569825,0.8561520588121702,0.9091876687705805,0.932866676232964,0.9504408934873793,0.96478564254312,0.9739202856651767,0.9759836543080338,0.9706462713686979,0.959959859754713,0.9510299185524799,0.9521857591286292,0.9617127880872316,0.9699716275415531,0.9719635776649358,0.9664098132815531,0.9464082392119826,0.8716435780863019,0.41953398386674867,-0.6517316766114134,-0.9012114470619887,-0.9515733229738427,-0.9671043354691063,-0.9728091079933412,-0.9749198981505343,-0.9747590777001254,-0.9712847047547488,-0.9600213631714933,-0.9260217091713961,-0.8137048678157665,-0.5133549000764568,-0.25298688955548176,-0.2845941023821188,-0.41442128804345985,-0.47939381001783765,-0.44674410758507815,-0.30671586817536745,-0.07793014646726974,0.16271791535952437,0.34543816626630885,0.4651220966907892,0.5411056605012261,0.5879318197063893,0.6085634158572059,0.6079498211096503,0.5896979179571654,0.5416031960399355,0.3709507301798443,-0.04280278948212565,-0.3314758254378318,-0.4167316002227541,-0.39286823816068794,-0.26163245475016855,0.0502313104973157,0.5463839618437648,0.8525957054734303,0.9255370720526822,0.9285636426736616,0.9120655739405733,0.8823098580556074,0.8385897810365744,0.7831701260256616,0.728052344772994,0.6927362661819199,0.6903387711586296,0.7162365539953716,0.750810631521561,0.7666119651926182,0.7212138320410025,0.5074523339351388,-0.07062882323124059,-0.5488905109889064,-0.6821728286533939,-0.6620339015116964,-0.5305064016681275,-0.2799734213599365,0.042688059503464444,0.32805206484206556,0.5170273985110931,0.613973875796305,0.6457151545317144,0.6378772137820816,0.6166871065338925,0.598589732247452,0.593057164670102,0.590831991884871,0.5683564978832485,0.485321659389454,0.2826742816031718,-0.07501987550422055,-0.46538405374695463,-0.7335849125876884,-0.8906301958932534,-0.9640864218320007,-0.9770552448074951,-0.9660868131254258,-0.950696511374243,-0.930483651838035,-0.8825281869145036,-0.6449591565199327,0.2953761401449876,0.7470050745535645,0.82234137598434,0.7908411222410345,0.6350607916907792,0.22172948849622195,-0.29869126418975994,-0.5372407246982047,-0.563860620149627,-0.499188999751841,-0.4362731357137503,-0.43580689865146155,-0.5092186028176594,-0.6230498152732817,-0.7283053242175513,-0.7953609408325049,-0.8209280846562141,-0.8077032046376519,-0.7430464033301178,-0.6140009741280695,-0.47908808919235224,-0.4564131705782229,-0.5279497561721169,-0.5323879157472923,-0.3545952845781814,-0.0861073759198501,0.12528497499006835,0.27199451515684375,0.36985909348051416,0.4212165198657154,0.4268249055381268,0.3937929920735808,0.3324622795611404,0.2484019009758254,0.14186813044938645,0.01323621025400018,-0.11554937999711677,-0.21718964390848297,-0.27951733577120574,-0.27841026396227453,-0.1361824646159515,0.1331493831131836,0.37200611402788586,0.5122841398341828,0.5932730296030275,0.6513755779094419,0.6921484294880778,0.6991518233244631,0.6677035427176138,0.6051335083845764,0.4911656543289762,0.269395881801009,-0.10179961902379718,-0.4858074047263504,-0.6967347928655567,-0.7451799706112342,-0.6201866612712924,0.006876598377794534,0.7450260072307477,0.9177535504841082,0.9539958186169957,0.9562400213212203,0.9305801722184741,0.8395935338121574,0.6298954667647033,0.4311105355149595,0.4149605470841661,0.5150420531857642,0.6183263708127933,0.6823395851210355,0.709568295378959,0.7106642636237178,0.6992958432412599,0.6927394369094355,0.7045170547768664,0.7258212735671794,0.7380091923659062,0.6553233517197157,-0.301172507763065,-0.8440129725244352,-0.9135800761465522,-0.9335078243383419,-0.9355862659434306,-0.9193926533894031,-0.8553732320166422,-0.6133554520337208,-0.18968923672910853,-0.369611691590147,-0.8269756260366775,-0.948224598510825,-0.9753422640486861,-0.9837122962095488,-0.9856731110939465,-0.9775552824566357,-0.8644793329305762,0.58450974655956,0.8921452020470996,0.9240679216138369,0.9215236027209373,0.9061855433513306,0.8897102026148132,0.8831285169515166,0.8864475495634855,0.8879672626399078,0.8727418573589234,0.8335347747434279,0.7818433817070771,0.7481121709778823,0.7489430927317989,0.773861847247405,0.8081473048578366,0.8433763089796938,0.872517364069628,0.8885038916769121,0.8897589617334681,0.8780335073862053,0.850879934809167,0.7878723437120109,0.6380978169996507,0.35877364738775225,0.15501585583242772,0.319952590544549,0.6703763230655162,0.8607310835935439,0.9297663874119259,0.9535540514163657,0.9532654607702731,0.9129017426560864,0.6624154980595782,-0.4031210593964786,-0.8515308562722034,-0.937939932823875,-0.9643404544516057,-0.9737542662078396,-0.976282161499747,-0.9747973808443028,-0.9685663348085172,-0.9499630617554854,-0.8785139913287863,-0.48899243475278814,0.2993278133154984,0.4972432179849447,0.3804996463985862,0.06944033105833336,-0.34234727539472964,-0.6721020197780795,-0.8424172814751979,-0.9141863362360828,-0.9433315916870689,-0.952399551524504,-0.939210449729113,-0.808609839885154,0.11328258746076583,0.7183605838754924,0.8306073647925735,0.8584015995323822,0.8561354814839416,0.8229387562889549,0.747086842320782,0.6294220985894446,0.5121128977928613,0.45919191586118,0.4737329243399996,0.49032842617418876,0.4245257474924932,0.18969153146600226,-0.17048368864198646,-0.4602794427614583,-0.6215806710036733,-0.6959817934915979,-0.7029470992872698,-0.6245463598734154,-0.44981731094831817,-0.2657946294361585,-0.15954143977067628,-0.10244497836764503,-0.02207049661837446,0.17141957055718865,0.5328342495841013,0.7647900452696477,0.799679753806351,0.7978696815650217,0.7958689489751782,0.7947238548641175,0.7941113874966561,0.7880931034193507,0.7699078088721327,0.7424815774239565,0.7235887458152517,0.7256094505952835,0.7433496003422232,0.7588498080036188,0.75597602843683,0.7292329641205004,0.6837672310648699,0.6338472137987192,0.5843375644234308,0.5145118662548511,0.38349268333538755,0.14858433385391973,-0.1887016721423936,-0.500245706209134,-0.6790675339872578,-0.7362978999159814,-0.6677554061086078,-0.3199670429220528,0.274993683123454,0.5141613797827581,0.4928291785211127,0.3605586323674269,0.2184701516980236,0.15468180664445053,0.1986523774910461,0.31483544244162864,0.43643233219418065,0.5059884731580948,0.5048940742243443,0.4333795428817376,0.30629340107656006,0.1580425742620469,0.017208883580024013,-0.09951580809842542,-0.1712283435739566,-0.15593899338472386,0.02490398760493493,0.37807299579370984,0.6857751339587171,0.8342911882066734,0.8961952638560441,0.9252440576097543,0.9409468157191272,0.9498103367330688,0.9545212811173241,0.9555452601492821,0.9512145859930322,0.9324623289559241,0.8529079869999255,0.35073902121763095,-0.6723657591144143,-0.8906780629306411,-0.9330901526078604,-0.938308823573038,-0.9208160858922624,-0.858731618744542,-0.6924853681947026,-0.5094517915334332,-0.5610194604476437,-0.7448020254541139,-0.8742921645891981,-0.9358805961118063,-0.9638546689931681,-0.9769732111234856,-0.98335386402561,-0.9861721100688344,-0.9863139822685292,-0.9831054116923821,-0.9701795177031648,-0.8787587674297608,0.02118698025394972,0.6534467194544857,0.7304346252824959,0.7159838398924796,0.6808857559080773,0.6586691774765525,0.672099798626252,0.7182147087520964,0.7730458522004923,0.8124121181260257,0.828372440844975,0.8198727095455561,0.7945153712832966,0.7632316289428525,0.7236373186871723,0.6738239416642102,0.6203751968420231,0.5732491749488188,0.5300454188549365,0.4887894488364884,0.4590863742683458,0.4839689307398669,0.5870247136957613,0.7091154993976522,0.8023226451426961,0.8616231872474897,0.8964101143713005,0.9133222563098679,0.9156302294546237,0.897125165817553,0.8036043937550137,0.07197678102890447,-0.856061359697412,-0.9521544237805774,-0.9670800053043159,-0.9687330193595721,-0.9670293828431341,-0.962511837518293,-0.9418170967098254,-0.879173277066656,-0.7563807822415776,-0.5746569924561151,-0.3552912860566785,-0.11124650064891323,0.26960388166758953,0.6725697124061175,0.7118958622069875,0.6664114512519078,0.5790049467085493,0.440431849494281,0.26968588519798586,0.12419725693074676,0.07277938629395284,0.16128832557597972,0.38918553777741016,0.6448158846141375,0.8123624870512545,0.8989161084712406,0.9409420963779489,0.956546103077684,0.9562017945968411,0.9491026320179968,0.9412691454380632,0.9306535482847903,0.9055834534171627,0.8316763870439484,0.5970641835715275,0.0592338514674117,-0.4017317406807005,-0.5829125956816738,-0.6161441895842104,-0.5558241198706094,-0.39620298333045006,-0.1584044585550464,0.05145193362671895,0.10464138955629324,-0.0891447650700535,-0.4893064726122678,-0.7894168654955598,-0.9108359148472649,-0.9554271999436686,-0.9702233069644335,-0.9605333452755699,-0.9086775666268141,-0.7951133869399691,-0.6320470351143643,-0.4400378383830343,-0.19423847869430647,0.14397798186772512,0.48238942624923536,0.6858743211082394,0.7782665611772756,0.8137172492684238,0.81563109388773,0.793895363951074,0.7684808296819656,0.7627559046251292,0.7851326049131462,0.8249484544339578,0.8705564755649051,0.9097793964611293,0.9340602800051148,0.9416371698309536,0.9348001399863574,0.9084018584710115,0.8404180781995346,0.6763531331535246,0.34850775175190263,-0.06244697708340664,-0.36287024407608165,-0.5431742269324155,-0.6766324324198905,-0.8025357789341482,-0.9019938114232504,-0.9475478390017957,-0.9550644935206569,-0.9442828426775715,-0.9166654035329337,-0.8527993852752005,-0.7031797506332921,-0.4139005672509252,-0.07912955734799883,0.13707262181686633,0.19991053644959336,0.11857449868580784,-0.0965644950401183,-0.3556207707688677,-0.5038228092419803,-0.47985618029862176,-0.23557694154748135,0.22112136548113603,0.5638449367904294,0.7100501169057756,0.7665286654996275,0.7807698911667413,0.7664397375671905,0.7139563737560441,0.6219427767602262,0.5467626253459854,0.5425733876525403,0.5700592636370458,0.5398488687233154,0.3583347532912277,0.052391620838983466,-0.19113081591197129,-0.3483593223457041,-0.486081932467541,-0.6375744532024319,-0.7715435880521974,-0.8524275148896876,-0.8729263565416137,-0.8077774809048559,-0.5023453538120639,0.14944844306599775,0.5433181777254678,0.6695841590121973,0.7015327669991587,0.7072952654183775,0.7158678735821451,0.7321650915227595,0.7513085963807311,0.7674643302567532,0.7991780334728192,0.8465318757796796,0.8795215459675175,0.8837011631264857,0.8602984970565979,0.8038904613808426,0.6896615242354286,0.4634237651496514,0.04704919003567614,-0.42827698955050075,-0.6894038183581114,-0.7623807050056111,-0.7126235008512138,-0.4828741710661201,0.016728033590985406,0.4630594548098148,0.674600614007898,0.7775928080800091,0.835577740580645,0.8663595469627591,0.8741816671530716,0.8455879012015265,0.7008453026869998,0.16606508890757812,-0.4795157050754834,-0.6826234213552945,-0.6815350933364385,-0.5410138768109503,-0.21781637412348911,0.24076415930053635,0.6063936530824863,0.7944451890454495,0.8664062485217959,0.875199760532051,0.8283507564976808,0.6672518001825021,0.20207015823311514,-0.46116550835580905,-0.7734265114735887,-0.8567299302017864,-0.8466373464757118,-0.781832620584026,-0.6839942961311964,-0.5838019145355006,-0.5131083775885391,-0.4735271006578823,-0.4183099091497012,-0.28123608454117016,-0.023124812692734902,0.2897282873363721,0.5033698562441702,0.554652762354198,0.3728772572974138,-0.23947039544705154,-0.7399547119938886,-0.8767251280868916,-0.8976233550065491,-0.8349467528016449,-0.5235878397690117,0.12139881700394406,0.47460113047832336,0.58156160326871,0.59086843035965,0.5371800871258953,0.4107546097083953,0.17077205578237728,-0.20392800302891287,-0.5475676817923832,-0.7230207935841476,-0.781056858722012,-0.7758162357554738,-0.725785278160161,-0.6398354402279748,-0.5277621200188507,-0.3705754084459769,-0.17891783119435092,-0.10137995726973018,-0.3207853631860791,-0.700734072926637,-0.8788447377884391,-0.9264536108070887,-0.9326993007785065,-0.9102201655938005,-0.8047629773844308,-0.041688599386156475,0.8755079755111645,0.9671066296981777,0.9762941768484433,0.9669177964869263,0.9317695911011591,0.8067909554215597,0.46165740024723767,0.028946536704085524,-0.268991480279594,-0.4074031737704825,-0.3779093424676364,-0.14480988990605712,0.26365952104417273,0.5739831380835179,0.6987294608787716,0.7023350415073201,0.5767894984351974,0.24773932269192342,-0.15624963430378683,-0.37630600713361695,-0.44268024807404194,-0.4246318480604038,-0.34173020313066627,-0.18623894103382665,0.0392597595034504,0.2735524301789491,0.44099120971021927,0.517200488551629,0.501947381708887,0.3382214988254787,-0.1080639287223383,-0.6487196644572907,-0.8720377403651688,-0.9266056801101628,-0.9317542701984544,-0.9115776480461224,-0.8491876341394634,-0.6445024891872952,-0.07394588380206193,0.46660859196096405,0.6644174010272207,0.7385958937705184,0.7785900158294506,0.8012562578392047,0.8114486343166657,0.8166876108735304,0.8210507153321204,0.8188410643644191,0.8000760594822202,0.7579386095225961,0.6420645616717137,0.39351504232856,0.23864474559198762,0.23578623068972773,0.29761991617587624,0.37079812873432627,0.4273493291644881,0.4556168685651224,0.45440117250744205,0.43218538871867973,0.405463329129929,0.39706434525365264,0.4268676154213827,0.5111319171552462,0.6380025346710998,0.7406337391606316,0.7872145967002567,0.8042910989451345,0.8078234835396774,0.7990257051630104,0.7748587343692224,0.7356776278759088,0.6849121272087262,0.6149698813278669,0.4928815678605572,0.21734967481508494,-0.3735367586595651,-0.7702758500925831,-0.8597754674146937,-0.8759243430326827,-0.8721558716281061,-0.8635600946344294,-0.8579337677177882,-0.8620458755255674,-0.8731307383273694,-0.8805811645450904,-0.8541025254300044,-0.7243683438695372,-0.4633980539304068,-0.313140280353887,-0.3085863154417788,-0.3302281426621499,-0.31864361327714275,-0.2566448456145017,-0.11826279179316763,0.1189100041879371,0.373411521770497,0.5149008911261008,0.5257816191085658,0.4505842750145236,0.34015931137059113,0.2505086681952299,0.20070919063646575,0.17229204608466142,0.13185026903066527,0.05334487282394386,-0.06665725045298901,-0.19180159802270155,-0.26874748531439524,-0.2602530216243252,-0.16375832259203218,0.016153416917146963,0.22865324953987695,0.37734849167608125,0.3753490382431329,0.1343474103027418,-0.2598559720648788,-0.4455633555317895,-0.4631047920954124,-0.42061199538277255,-0.3789456789084041,-0.40191424267010945,-0.5180391207719002,-0.6649457947666412,-0.7738059415138375,-0.8403710263763041,-0.8844488154784156,-0.9137273800452544,-0.9193481607938648,-0.893864443767264,-0.8483619396060491,-0.7980235952748558,-0.7453803070789959,-0.700807423606703,-0.6761066021962941,-0.6726001575275738,-0.673789468882056,-0.6516700616130534,-0.5434235334810511,-0.2302893896825563,0.21724068988604442,0.49726520963421716,0.6170604261433982,0.6652789644597434,0.6804505678694382,0.6701391944194389,0.6351025875224875,0.5902008193074034,0.5494120954590429,0.5081436138372053,0.45287019189958205,0.37180110227039787,0.2650009900839237,0.15081013705824642,0.06483954823727188,0.026686603745155076,0.024994575187308393,-0.007245264725616467,-0.13805157400244866,-0.33082300471797027,-0.4787790331404627,-0.529787924144008,-0.4855744045587328,-0.3559093327844805,-0.17960804018379706,-0.02681623271588646,0.04900891430696198,0.01915634171628308,-0.14354793302789373,-0.4380481945093828,-0.7166504459132258,-0.8127148104742342,-0.7549844892728298,-0.6127833452455446,-0.4260602727994412,-0.21520026139178716,0.0394744586374406,0.3214675085556604,0.5510195360536049,0.6862924235465127,0.7473193249064327,0.7566298672398696,0.722118131306797,0.631332475687968,0.4516177359670988,0.13930737171560806,-0.252469936527531,-0.5457184276935415,-0.6904578872945304,-0.7435301065316041,-0.741842698779691,-0.6895516115407593,-0.5670082730863586,-0.3479749802363704,-0.035139159241272755,0.3009057114845882,0.5666584276993849,0.7194136581703708,0.7777665705637178,0.7676821070531142,0.6811022708177004,0.4689099674136632,0.09073066838104406,-0.2986624200793627,-0.535818311863143,-0.6483183973972282,-0.671216604764884,-0.4290839567225629,0.14399529946696124,0.30882857793196966,0.23977037995439374,0.06736361710969406,-0.12208754072261487,-0.25930336214137506,-0.3293868999113434,-0.33558597111130667,-0.2704170855068752,-0.10443667752704094,0.18551143689040223,0.5213052217039152,0.7438922108259353,0.8445799298246294,0.8860720782211942,0.9024843804201251,0.906349253765512,0.9008235651295864,0.8835001166460998,0.8363572670340423,0.6590010872920925,0.06730395120266007,-0.3458407383750395,-0.28810562545239055,0.06115846301977793,0.4943422673967577,0.7477785559170489,0.8427342316637976,0.8431727941175169,0.6668813526623499,-0.3410349718868469,-0.9118312798276662,-0.9808431504492641,-0.9943513038685624,-0.9978974166851206,-0.9989678600835781,-0.9992256232169445,-0.9988945747791278,-0.9969664229465454,-0.9771849188916122,0.7413083302251529,0.9678181675713285,0.9777811925436737,0.9747618993883623,0.9599763259977272,0.9086898000335046,0.6860468227027287,-0.02169832194166799,-0.5280873890041826,-0.6896299947103987,-0.75317563224658,-0.7866563550178133,-0.8054463479022504,-0.813603943096599,-0.8049893752553929,-0.7672214235796604,-0.6734986233042047,-0.4774566168398219,-0.18537951209071973,0.06648350467482869,0.19465410826648913,0.210260947666987,0.12188656921377074,-0.09781861780969113,-0.4471924584704612,-0.7120758873699753,-0.7855899534763372,-0.6537104800874266,0.08344835758795824,0.7887577101420065,0.9279797929783139,0.9596355715181094,0.9680558757685844,0.9693790872124418,0.9692760413159592,0.970279897235486,0.9720679365652047,0.9739270137454822,0.9752358195373597,0.9744626496313604,0.9683300147027352,0.9491100166065616,0.8941592542635618,0.7294079533034563,0.2949044180777997,-0.2419100202080065,-0.5110812585191972,-0.5774282073549506,-0.509661982700876,-0.31609413888998916,-0.023245744455723052,0.27981797233227057,0.5123717909929377,0.6569037395143077,0.7298325352756982,0.7473295520484994,0.7281840620555465,0.6854887321959395,0.6027677034259655,0.3948059280182991,-0.07329223540638873,-0.5558282341567434,-0.755944338860877,-0.8002631161279463,-0.7557945332614036,-0.6009746368263714,-0.3138886027611174,-0.019446054507053483,0.14030278801078808,0.1571059164230228,0.023654082592537148,-0.24819845877896843,-0.41760044994216533,-0.4223200583025524,-0.381219461606009,-0.36035344094057237,-0.369224294721214,-0.376124766386348,-0.36705115309072933,-0.3518526773859849,-0.35118453727501014,-0.3938499640235772,-0.5046205454158447,-0.6805712239695745,-0.8300575401254581,-0.8714576587990921,-0.8312245320836956,-0.7602871135331373,-0.6814950295971103,-0.5958882529161226,-0.49720250203437766,-0.37426185087997416,-0.20385500082420238,0.04450504368312876,0.34693733931537574,0.5984152639407271,0.742770418653745,0.8042924120436764,0.8192013470418034,0.8073253500140812,0.7752530807198182,0.7285169913933072,0.6725937199570894,0.5878537001357064,0.3384311256957645,-0.3364956114235205,-0.6189973473563689,-0.7282945783272008,-0.8154136240759179,-0.8783741130371575,-0.9157849539749314,-0.9334753555146236,-0.9365644439437943,-0.9220891011737979,-0.8727042349245839,-0.7377585504913587,-0.5153310091143452,-0.4249755282543551,-0.5145024316100565,-0.6170933855433092,-0.6527797113722841,-0.5904015869919329,-0.35271210360415833,0.06477154626602628,0.3856809350060592,0.5243073393049565,0.5541726167796007,0.4981037150454046,0.33889754010637646,0.08356869627290928,-0.11576455953031121,-0.06715527447636888,0.17519417621626782,0.320454571198522,0.2576407467957883,-0.07660299011828033,-0.5178453636098319,-0.7590374279326711,-0.8572729172413435,-0.9001948863349667,-0.9229888389146004,-0.9364452262385975,-0.9414397467030504,-0.9300822877209122,-0.8651033137738728,-0.5399685153132978,0.348316408533284,0.7833283338274212,0.8986480798158183,0.9346993824998989,0.9396557193665589,0.9218064325119097,0.8738057947960562,0.7810567892512832,0.64414885398779,0.5346723605036304,0.5684619174751661,0.7148675812047772,0.8288508627211265,0.8758845397495219,0.8862353783339969,0.8739361384732333,0.8405091088516148,0.7719372689652948,0.6269555131051291,0.3293273987906816,-0.11683054571334466,-0.4570538579872612,-0.6000771906246726,-0.6498843399830179,-0.6495906943958741,-0.5928043825860096,-0.4667283433237097,-0.29168634617930417,-0.08486784244792095,0.1401622941368729,0.35904598949914907,0.524644645424413,0.578928431082636,0.5281483901802806,0.4859597670587876,0.5181673792529938,0.6132919238736457,0.723273144108072,0.8043875046572418,0.845033872313515,0.8594616282437537,0.8628780300462773,0.8576678519556016,0.8348741476575011,0.7675518614652134,0.6219696135827615,0.42030573531217,0.24747782611541122,0.14152631387753223,0.09632927915156494,0.08511674866237125,0.08494418418697042,0.0781065270838641,0.04561797308165629,-0.020487760216599135,-0.11445533807080287,-0.21417274012865456,-0.32807553741272566,-0.4981244378342858,-0.6960186760771614,-0.8278282928924559,-0.8762876515805007,-0.8474211769517939,-0.6337250306828947,0.047647159048335434,0.5631687758966593,0.7127135066490263,0.7430051985502092,0.7151330414891524,0.6235268247079004,0.4305954971025746,0.13502759997264036,-0.1481536596235059,-0.3457021104148517,-0.49949685237458835,-0.6323078899346771,-0.723448141501263,-0.7631618768112066,-0.7568422926067209,-0.7017507424075105,-0.582197170898516,-0.39292359934530857,-0.18186661168188462,-0.028844081164775073,0.02919252161519857,-0.02623826090013273,-0.2619160424732733,-0.6756918808689596,-0.910629826795934,-0.9706039393183707,-0.9858754087323506,-0.9910223894882082,-0.9930840984287159,-0.9934494884205927,-0.9896884563420011,-0.9630219575224711,-0.591389364334185,0.23889665113065836,0.4569758391558902,0.5396572453958235,0.6142826259598029,0.6891995077210747,0.7422754876277587,0.734661858353104,0.6182260136239361,0.33090048918033327,-0.03439715991547937,-0.25579860074217814,-0.30730594666635963,-0.19482215417129897,0.09775141725541113,0.3766209505160201,0.5177921661833115,0.57931643159859,0.6040555492311908,0.609700523488928,0.5997823043150208,0.5607471633460293,0.4628954857907008,0.2843855884488124,0.06992900999503047,-0.11225186543546892,-0.24571814919518917,-0.32614188770863756,-0.34871483837620987,-0.31013850644782404,-0.19212054103959877,0.02743851764200285,0.3079457572860345,0.5378449257923964,0.670463691057732,0.7320746332140906,0.74499403232273,0.7091455743833189,0.5922888580295556,0.32823634237660654,-0.08101096911065714,-0.43213254766967063,-0.6261068832360417,-0.7108676079390389,-0.7316745799183284,-0.6985589019108216,-0.5715899494012603,-0.2508324060220507,0.10831710703409357,0.2355567481844626,0.22012009518993483,0.14536166747718468,0.04258780920442818,-0.06962976725175421,-0.1615755384802683,-0.18862839303520545,-0.11434576671928307,0.06966245862244157,0.3196556801730749,0.5381436547110606,0.6687423550926768,0.718051984884573,0.7018907035468405,0.6140968267295818,0.42418044313720515,0.12501220402392513,-0.18555280087591997,-0.3884527225295002,-0.47257645266737947,-0.45746402805804387,-0.362428584889225,-0.2168574569557746,-0.06495666688961894,0.038137012437543374,0.01182899850549669,-0.2063725733160861,-0.5453234040879646,-0.7887978934220227,-0.8936358249610207,-0.9325005261182692,-0.9467190871391126,-0.9505571273893061,-0.9486009777790338,-0.9434383683408718,-0.9344396410077846,-0.9152439042849497,-0.8755102862082891,-0.8179486998961529,-0.7659105113623321,-0.7098696142868806,-0.5991265134825811,-0.34838152909077025,0.044658342978357086,0.3059249634446725,0.3716774474445439,0.34127584782062065,0.2791640587895436,0.222010294976989,0.19353460576616457,0.21498244675886488,0.2877913487432919,0.40258075447901187,0.5444111377914271,0.6740762078381415,0.7574870591841212,0.8018347902303402,0.8215718949347192,0.8280187970396105,0.8263930505470675,0.8182172571139352,0.7997606834815357,0.763689503179457,0.6994828823384805,0.5905753820584527,0.43547713818546785,0.32016906928791344,0.3701160489143744,0.5526725383938259,0.7182883622819519,0.8114522818059585,0.8568732373404152,0.8768601427301662,0.8790485027473525,0.8472111720381936,0.7154071028301152,0.3192304298143746,-0.1684591463740926,-0.3874862272382359,-0.4447424393624079,-0.46932764478746525,-0.5272475653247484,-0.6174640228537365,-0.6908679078947307,-0.7247892280323694,-0.7162379799647319,-0.655069404346387,-0.5315764857400002,-0.34398829836559375,-0.1032516459164157,0.15992512397407074,0.4229588686033804,0.6496780245220362,0.7875829097897389,0.8406034861666771,0.8372372319382815,0.7691363153330394,0.525426728759411,-0.16821468005929016,-0.7435733091029607,-0.9031802094737323,-0.9473371284903367,-0.9579250229750372,-0.9515466934834823,-0.9313972659413929,-0.8998179959704599,-0.8542128707494547,-0.7899710446649849,-0.6679080331588745,-0.27899096950752555,0.5897180650145689,0.909496094570423,0.9582192793437193,0.9600059421592562,0.9487340911401296,0.9273438123788329,0.8738563191859113,0.6474359641823869,-0.3318906156976796,-0.8380317480773026,-0.9134896547267499,-0.9103845343884629,-0.8427374089834094,-0.572094189263642,0.14904946276725084,0.6296976091654446,0.747455300033308,0.7171959325120992,0.5006625963411627,-0.14534665864545027,-0.7168867153179318,-0.8786416525041468,-0.9178412921429207,-0.9157064333270711,-0.8634562190459131,-0.5425589517394017,0.5418982224857231,0.8645439767078739,0.9241551316741987,0.9419823229651946,0.9475885972443954,0.9467091709714432,0.9392415830285341,0.9154817562316866,0.8050077043773952,-0.15659436462140708,-0.8807754063163195,-0.937600359340061,-0.9040263227293293,-0.5226133476640364,0.7262381507574328,0.9157191757418409,0.9320732134997904,0.8439289714659087,-0.0741165384883535,-0.8478494205831606,-0.9441490787358995,-0.96874157635223,-0.9779275887010139,-0.9809804172310802,-0.9805442971750477,-0.976796261450285,-0.968464832066069,-0.9532419135581328,-0.9280598711893258,-0.8854367087400169,-0.8152090626050745,-0.716576285306607,-0.6225448050864208,-0.5459154520867164,-0.4340177320429445,-0.22593965046856454,0.07517264532174522,0.35032893606394655,0.5178303618027739,0.6024484036135951,0.648788738845331,0.6887271637041553,0.7393125949742805,0.7980155866560849,0.8510236442597268,0.8909251602132431,0.9187059642793892,0.9335316949925082,0.9242211381596492,0.8350387538654044,0.4213630236180781,-0.30749995429136545,-0.614284053497714,-0.6761333432011729,-0.6183064696974394,-0.4151847406902826,0.023653446633782382,0.5318531706095354,0.7936790801528635,0.8840533139628973,0.9125868366604252,0.9177184506480849,0.904783374804334,0.8529188674402268,0.6177531329871165,-0.36806889304577767,-0.8632082149795652,-0.9331414958277214,-0.9307661264516754,-0.8765391731548999,-0.6557740703515416,0.20432308176741187,0.7906914140086373,0.8943082186535734,0.9130573119056855,0.9144305044213478,0.9175270505449641,0.9291863837429157,0.9465328917018514,0.958788319964343,0.9590222929093883,0.9456473510057322,0.907131869137256,0.7575298863934455,-0.18906026224573386,-0.8736390409864836,-0.948081199632193,-0.9572120111280201,-0.9507562408277408,-0.9301807650533289,-0.877680723321244,-0.7306309148639533,-0.36323885016446683,0.1455067472360189,0.5223903674521786,0.7509798646425075,0.8631110509194607,0.8966273319597646,0.8726820010701706,0.7317204791520726,0.15655415934806646,-0.6019670904848834,-0.8419989734090824,-0.9099897135592836,-0.9297752720251802,-0.9072748768619843,-0.552982667414434,0.7564569195854944,0.9314126292184471,0.9622987250320039,0.9699959385824374,0.9652135211248019,0.9393436742663421,0.8864784252113727,0.8233721750618286,0.7619081694139939,0.6850490907303395,0.5578617995873704,0.3676136361758524,0.14952465489704808,-0.001605653691967633,-0.04125362926828357,0.018539174188673554,0.1506012554060466,0.30317773402411685,0.41957484183790605,0.45718999557926604,0.40261005475681094,0.24886760380476752,0.002265927634546392,-0.2854758706345503,-0.5405422914153075,-0.7095737822882079,-0.8037652713805551,-0.8495539594079949,-0.8584224719369132,-0.8089461361861962,-0.560331535918857,0.25886599619194806,0.7551702471077122,0.8526665839081126,0.8352718637401843,0.6798479150033865,0.17531469912525383,-0.48159885216486603,-0.7799709105819763,-0.8879346867159152,-0.9311484605042691,-0.9437662526302774,-0.9162852536661212,-0.47667298311396783,0.774035815932036,0.8745038696300667,0.8558119869909142,0.7935409026667098,0.6786505164224726,0.4828554478614548,0.18918616357464138,-0.15406785503157117,-0.4437640706095991,-0.6277831410439675,-0.7271674542161505,-0.7745019817982847,-0.7857021783771347,-0.7630974356802562,-0.7037337936919882,-0.6010695075680622,-0.43457064011942514,-0.19869505862534387,0.07723782703182516,0.3766215667114354,0.6366099575948401,0.673503277281932,0.3846626274164446,0.11080745334574084,-0.015600895392167214,-0.04417519673638546,-0.01849248851428942,0.03319118428222126,0.08841339916098676,0.1329148835004046,0.16517344113232016,0.1883456489360897,0.2019368436978702,0.20282847877352334,0.18161446928238748,0.1379055895419785,0.08139244304040791,0.02732952329334002,-0.0136397049938163,-0.05392397801779082,-0.12248604802287563,-0.23473569178338255,-0.34339174889209667,-0.37003745764543444,-0.2813416188766071,-0.0755466282575169,0.18542944695384078,0.41052049745133096,0.5665873085016508,0.6570191027096313,0.6890635585385119,0.6659089873168844,0.5861876213601371,0.44636349446862517,0.2606200834244679,0.057184880561996373,-0.18182781341854243,-0.48665123404070454,-0.7574667030707742,-0.8949742315474088,-0.9466546556051048,-0.9648634162940297,-0.9688115804009084,-0.961802926849739,-0.9318677359578192,-0.8163539716575173,-0.48230985452803204,-0.26431398005194756,-0.48797419409700704,-0.7250438308800715,-0.8056949058311901,-0.7907237833826064,-0.6147278425432107,0.06818684315484633,0.6882519854590674,0.853343161639984,0.8962459659156828,0.8870146059344577,0.7996871286088304,0.5412868536916298,0.1242758402368697,-0.1912935656608464,-0.3152286799130559,-0.2908961574722415,-0.12494562821112554,0.20373143423660453,0.5829264966777798,0.8085821361928435,0.8946125551977435,0.919390193415552,0.9152441859280153,0.8853453706924261,0.8085411146452102,0.623967207440125,0.25359272870979105,-0.17455221537738166
