0.8204296989331175,0.8121063306614732,0.7903251658283911,0.8221399234843638,0.8651541628914147,0.8966088799085508,0.9113027788869091,0.907073471492856,0.8628613132704231,0.6728475426786966,0.10747316258749684,-0.4290953540200165,-0.6717782840522383,-0.7950405609730147,-0.866490156719028,-0.9048942909023734,-0.91911280635991,-0.9160822754928233,-0.8922048337820256,-0.8059041524385588,-0.5272466791600677,-0.036103776127510034,0.28271147784827627,0.36681494451775304,0.21979293788891624,-0.3818653486230627,-0.89566696941021,-0.97038372416526,-0.9746634770674032,-0.9696349259634707,-0.958792046062827,-0.9353496836821694,-0.870569785986603,-0.5464353621943737,0.6180954125268587,0.9072885601813907,0.9562228385787512,0.9765961638774073,0.985583097812557,0.9837701071013984,0.968086138315759,0.9224185146842833,0.7765997334802526,0.33511631549727694,-0.15646456835850678,-0.27910897099701903,-0.22867217984527838,-0.1582147744561714,-0.10572167554856483,-0.058623926077990114,0.010736494224451535,0.1478291776789433,0.3695961015979713,0.6043432188291329,0.7543581641065414,0.8281410036291585,0.867654318127888,0.8904675065638745,0.9031849642702905,0.9074612523080757,0.9046547761327792,0.8957500941909539,0.8830834784619607,0.8715509715848253,0.864685080735319,0.8603743238384527,0.8477074060869416,0.7793676797414577,0.502380851729187,0.007817122003852334,-0.3494084174352836,-0.5349093277460136,-0.6464008408502507,-0.7326252095514342,-0.8099441104357883,-0.8797366717927119,-0.9332929680616002,-0.9663777997343422,-0.9796857321227708,-0.9704319770399649,-0.9183042600129843,-0.7766092087463824,-0.5244459192554134,-0.26405458980705865,-0.11851468864565715,-0.11360008417227559,-0.20967941858438677,-0.30508534184403374,-0.25820379040671176,-0.05050307743000252,0.24043865103738252,0.48564710470268496,0.6179324060923026,0.6585165550987228,0.6247524000487739,0.5149621873017605,0.3234722227984647,0.14015519617642655,0.14733154248075073,0.3998498698912817,0.660078368542566,0.7852676787788504,0.836204571316982,0.857801431251768,0.8648569045865454,0.8625709698605668,0.8543157474104885,0.8461616845538342,0.8443081268682718,0.8530920356708236,0.864186413291822,0.8600825760019978,0.8133327722001864,0.6888403046987764,0.4885977388379706,0.342356549653873,0.30661143881496594,0.258925617257371,0.10637389259674623,-0.08147661288845783,-0.17153012131477377,-0.10303743190623275,0.07028599862246218,0.16720486595019537,0.11487093883338076,-0.11085786368933515,-0.46632045796369204,-0.7474316239936769,-0.8800774672416884,-0.9302320069063837,-0.9452408543753846,-0.9449628184510885,-0.9341269269704843,-0.9072889355616198,-0.8562380754826672,-0.7867989160952436,-0.7310639547865709,-0.7072389666385647,-0.6783576428449685,-0.5944942385496773,-0.4360577874782121,-0.2500900019334328,-0.10956916284918482,-0.02954523420905645,0.027297997619877404,0.1007153929860253,0.20853315037997405,0.3323580909814316,0.410854733036906,0.36140229865652473,0.16750078059844223,-0.026677692008106692,-0.11181664169124736,-0.08567299668080808,0.025334154933307276,0.18078708882723973,0.3393553546328549,0.45559279693404936,0.4901294727113944,0.4134280713069826,0.23088041213905822,0.0386078903441663,-0.12833633356287824,-0.4028014040868678,-0.6638286135629313,-0.7457144086450922,-0.79809783110112,-0.8430445658597242,-0.8813857406939313,-0.911704193297008,-0.9315622448908484,-0.9348198111039185,-0.9170906355825276,-0.8811503781314322,-0.8247445324044218,-0.7394357075613531,-0.6255073391939469,-0.49435391616936847,-0.3272978847748537,-0.026618792905187583,0.37965746103213827,0.5706149494180617,0.5987997900869638,0.5695787736832172,0.5265713302806972,0.5222562911867358,0.6124206661059282,0.7870959463281644,0.8775422813949948,0.845626369115558,0.7842510947965476,0.7607498453053034,0.8134440370746823,0.9133633269142455,0.9721029044628908,0.9834636723723734,0.9843224506705008,0.9861967581605695,0.989265661133105,0.9912850328571093,0.9902100593320426,0.9833979168043552,0.9655957217337239,0.9305429980133576,0.8898948499273136,0.870340266155935,0.869855053552513,0.8607061077201221,0.8053952853696694,0.5454978553428851,-0.3122286390316756,-0.8082420620391831,-0.9240795970285484,-0.960381067694209,-0.9736771317732736,-0.978203337593997,-0.9786798785882144,-0.9770172462536839,-0.9729339935982128,-0.9633283635061309,-0.9386363330514885,-0.8660224831571659,-0.6474587529944801,-0.30886944954398265,-0.2771342866430478,-0.4863574211271222,-0.5646333045666342,-0.35987339953496567,0.22302281574405683,0.7014788192045844,0.863313143569182,0.9085405100402346,0.9134259478885974,0.896857036098939,0.8620495378367888,0.804481405616525,0.6916758571615242,0.42759687738014074,-0.01936278522284696,-0.32483875079724894,-0.373998013389788,-0.24138278164316893,0.026665619206662685,0.23076643246021758,0.2568176650616538,0.22545321704641608,0.26023251285252885,0.44001125953935244,0.6551189835809951,0.7760108481310447,0.8351407509183698,0.8610171598603341,0.869268296191435,0.8722157635192909,0.8781432692562242,0.8885845201865706,0.8982526920167325,0.9016279668441903,0.898199799991675,0.8883407418216671,0.8610909153252618,0.7867592920012885,0.5787057939154121,0.04606794460663844,-0.5856844951050417,-0.8528459923132116,-0.9366134804693412,-0.963184194410744,-0.9650489680467227,-0.9558596282223125,-0.9451709272681351,-0.9316481012521928,-0.9094620608808046,-0.8684545210294777,-0.7902568636009363,-0.6413336408059935,-0.3595217941096978,0.052380567873427375,0.4008649643159652,0.5881647774029912,0.6747522932075193,0.7254284001711765,0.779928866343801,0.8444085222032153,0.9017801002500647,0.9372310001706756,0.9482284320950696,0.9387807839467721,0.9130232400220656,0.8769569971319157,0.8403630984162467,0.8085455341023989,0.7779235374521046,0.7329058856481319,0.6540856363741467,0.5180387264274119,0.304031920886166,0.0034804414554081347,-0.3416772744574718,-0.6250783034855047,-0.7863861046663393,-0.8605514279397741,-0.8901885738608339,-0.9042482364466471,-0.9171762258131799,-0.9289170656552674,-0.9358977789275287,-0.9353062614774796,-0.9272726864685611,-0.9145458284046825,-0.9037604384637616,-0.9034501929907771,-0.9134200165551639,-0.9180543538243298,-0.8876903688130854,-0.798714060941068,-0.6461788896756447,-0.4482607540009399,-0.23861758685873627,-0.050262965592202086,0.07739338156271097,0.06957570635211364,-0.22012743496057793,-0.6499260356266787,-0.7868128321082843,-0.8177134818360006,-0.8419596297319482,-0.8686877436999305,-0.8912359728671132,-0.9071183043242617,-0.9169790642121284,-0.9206510517628804,-0.9164571154393959,-0.9019908027744065,-0.8680591427252065,-0.7849219121641436,-0.5997559461034391,-0.33051584390968947,-0.12687578873470595,-0.05960558502788871,-0.09841231408578065,-0.19493579528730035,-0.3064887912232771,-0.4049202142747656,-0.49440205620527045,-0.5824614498316727,-0.6634512991424177,-0.7067198525940305,-0.6328644604556516,-0.1877204310420228,0.5431945032836965,0.8206882846393465,0.9098811176808838,0.9392039301497601,0.8974037697342568,0.7586236738478472,0.5914984176355079,0.4812190401860828,0.4586066818858843,0.536769000609452,0.6990693356044565,0.8564116957284844,0.9318307463780384,0.9481023787660668,0.9406661271334109,0.9160629138282951,0.8262603560665209,0.46211759864277613,-0.03543677912837275,-0.2355309413712631,-0.23020882971906378,-0.05521860559243967,0.29910142709369464,0.6503365162260953,0.8277656099109969,0.8970653775173874,0.9216507344660744,0.9235107683934959,0.9074303011095317,0.8720652546626574,0.8150228918075143,0.7278206390801699,0.5822573935675703,0.3352846615265706,0.004575463698480612,-0.27873221162907313,-0.41895903948689295,-0.4377299731577871,-0.36424412261259137,-0.21329531537398105,0.014683869055540835,0.2823355744606084,0.49605840051932193,0.6045693926272637,0.6374080813593993,0.6441147845269622,0.6567321623007168,0.6872968106246652,0.7342631750922006,0.7842928932686608,0.824665088507252,0.8492608177665424,0.8554789446830741,0.8295504697874803,0.7274405990841691,0.36718067905809093,-0.4088106306701351,-0.8001834808240329,-0.9069706003075183,-0.9439759979405979,-0.9558859984840434,-0.9583936407933401,-0.9581055765301304,-0.9559177030105194,-0.952530577094031,-0.9481893040810174,-0.9393633101221506,-0.9120181291276815,-0.805932995646073,-0.3933732342229411,0.24770377200304108,0.5533676021411633,0.674996422847993,0.7546041864093681,0.8295162533684024,0.8934095881872482,0.9324671415492175,0.9445877084288853,0.9348106780276729,0.9291778861721813,0.961267012062807,0.9460040758691071,0.9168434909461113,0.8930899009329599,0.8568736219364682,0.7862350873563483,0.6308654653573531,0.2897881177226297,-0.24205518169661944,-0.6560097765592364,-0.8501796350221273,-0.9288449201237635,-0.9629066330492965,-0.9794835540276279,-0.9783875957771504,-0.9487143318114136,-0.9079047252764285,-0.8776737690924518,-0.8530045637923387,-0.8205689501169477,-0.7657102170137369,-0.6574622736178335,-0.41461049302545067,0.040698277647948165,0.4513749431626256,0.6145832876944691,0.6236394303808044,0.5355601975644397,0.3814176560569551,0.2135841854456291,0.048858494064936905,-0.15431352547325333,-0.4574833429756672,-0.7405291913539972,-0.8350888163191748,-0.8473891245622264,-0.8406432611617042,-0.8161601527587101,-0.758450763683891,-0.6483803902179824,-0.4734639776136955,-0.2144232668866375,0.1391288394727188,0.49749703689709435,0.7335050806349065,0.8581715492145003,0.9234822555433441,0.9591932839597382,0.9788220875456574,0.9890007225952006,0.9914163452075001,0.9793901349290062,0.8749320736620215,-0.24519269774111419,-0.5246803171482735,-0.2666635844557539,0.0474693618950031,0.20641642386477416,0.19082572311796717,0.024949438787495015,-0.26123380324548884,-0.5527373977404263,-0.7356429400067468,-0.8154577468035916,-0.8341032078551962,-0.8196622050067787,-0.7846148393513581,-0.703432847381392,-0.5787640341598334,-0.48791391975771303,-0.4598812528948071,-0.47972899198708774,-0.5058917477649724,-0.46216182805011646,-0.17911212362762416,0.46697092253260725,0.8415178676147773,0.9495577830397597,0.9785241365340402,0.9844890065119016,0.9825747853943343,0.9775876176202198,0.9734671904387614,0.9722472499460458,0.9712884752665333,0.9621086326322807,0.893083122262988,-0.35897082968489114,-0.9402197444577767,-0.9738498106953625,-0.9778575501683631,-0.972512491003532,-0.9568366245071644,-0.9207318428895868,-0.8298996212309321,-0.5725746216877288,-0.0563946213527231,0.3228125716935288,0.34190971334390535,-0.14896914388560517,-0.7491911395303971,-0.8336554355497602,-0.7696296095761849,-0.6006616136268428,-0.2989399361036364,0.08529515513399671,0.408396041161011,0.5970509563755574,0.6574064305671671,0.6036612498513468,0.4177389602036861,0.08846921874214295,-0.2504287888824971,-0.43327826636860034,-0.4767398273600791,-0.44441225510092003,-0.3778266408791309,-0.33923845459736485,-0.458306293058588,-0.6909293576763432,-0.7951080751438044,-0.8532872303765364,-0.8819386665725902,-0.8844058941556896,-0.8629126447310486,-0.8012602235970151,-0.648806432672709,-0.3500205979792166,-0.00794267022007699,0.2117005327472206,0.3171306780948443,0.37734369096508374,0.43192863234865625,0.47802610675238866,0.5033649764153301,0.5099715152576968,0.4959204100113255,0.44752303299045804,0.33625385063276586,0.14780452846014125,-0.07660117192814726,-0.23423695839644373,-0.3127267938818282,-0.3582705469161922,-0.39025707232909945,-0.4177818256445405,-0.433912629099455,-0.44546726263764963,-0.4828305660264542,-0.575746963934617,-0.7023075628638024,-0.8110377961533562,-0.8777887403905046,-0.913789978685299,-0.9217104833553366,-0.7560680135219773,0.16939244095762768,0.5629865701257221,0.6062978224325245,0.5444120172671499,0.4704077381926555,0.50420091709028,0.6558712445935573,0.8086821685486234,0.8952728780382044,0.9284211538690129,0.9250724027692481,0.8964363805696285,0.8585087823329737,0.8345353392100409,0.8397505888900255,0.8707569334293467,0.9092912561720526,0.9376395300929181,0.9539092788599353,0.9597320951274022,0.9508414382295404,0.9000722366386436,0.6705819157631329,0.18459701914419455,-0.02262110669503691,0.01777552580209036,0.10662633804396718,0.18486479810728526,0.26148244669457926,0.3508440752790619,0.44103699774763144,0.5090005631396111,0.548794824782262,0.5705879031649955,0.6142034881631075,0.7080178569525749,0.8141377836085482,0.8740360890045491,0.8913007843829647,0.8797634968607193,0.8301167910230507,0.7027238956641402,0.41800877851743223,-0.024348469382904796,-0.4584513764958616,-0.7550462560836064,-0.899441785557002,-0.9481239938572553,-0.9585389328800251,-0.9588074858514674,-0.9554309035383263,-0.9452596492653486,-0.9274897029731951,-0.911406638743611,-0.9084092921380306,-0.9205838705477897,-0.9357972939468262,-0.9250291998848992,-0.851928652892148,-0.7076012422334135,-0.5433871074768957,-0.41327342955307345,-0.32102507221015114,-0.23750778162114528,-0.12924274921776432,0.025106366939022018,0.20410881596126926,0.34860166514574653,0.42124937828891773,0.41788113280907485,0.3347768970961978,0.20088491136573156,0.09741450856532334,0.07952139237787087,0.13686571145915175,0.22021060916574017,0.29863131956765254,0.34992727862044887,0.3589276258113406,0.30535838552707584,0.17580869133070332,-0.0064554828197901076,-0.18352259083549854,-0.3066139030465905,-0.3851899794953712,-0.43604788362866764,-0.4399051710268006,-0.3455257671308387,-0.17695427210342152,-0.042624747457716515,0.00465566488486685,0.025331225058266998,0.10089409404607753,0.27914172284838007,0.548531019169203,0.7838679881572566,0.8943166473518782,0.9291140292819546,0.9383680065288098,0.937144558586852,0.919388722277826,0.8563197509412571,0.6650039884626728,0.2154015884184165,-0.3078803515866826,-0.6013352736804352,-0.7223881406806437,-0.7574804808863707,-0.7434887400209172,-0.7000373230763441,-0.6487621868285705,-0.6063646654353496,-0.5774986260860828,-0.5579651685127226,-0.5381716654134189,-0.4859376350175868,-0.3306298205665671,0.05262563207908107,0.528425896763755,0.7351722303798002,0.7774097511802842,0.771026386932095,0.7568404873274628,0.7544138163918561,0.7704629725635551,0.7817487000512987,0.692921630675945,0.28151232473802457,-0.2329119631842505,-0.5281169548498242,-0.68174289900859,-0.75988487494064,-0.788746648520152,-0.7704687098014324,-0.6700639214597154,-0.41797357537158086,-0.03539713450018655,0.23701430924678904,0.1725044055785007,-0.22646071563460496,-0.5734462684428306,-0.7209683224055213,-0.7520877039048632,-0.6873382364301777,-0.44410308144155014,0.04650281299793992,0.4598304778649066,0.6425696866126648,0.6797231556609117,0.590677091687674,0.36011047320584555,0.06777090954887614,-0.12709679063859688,-0.17226166371495283,-0.11192714321186611,-0.016819279081623107,0.0739292067264753,0.1518472466465064,0.21898875426681658,0.270354209794624,0.2883204512331819,0.2607789235917269,0.1975510744265947,0.130550398501968,0.08733929151122855,0.08060969081222691,0.10136336278700667,0.1271990687961884,0.14001764830243785,0.1328147456939156,0.09079430817277025,-0.009403234978638255,-0.14167081429705938,-0.23315179022402077,-0.28403628007061255,-0.3153754286301143,-0.34004585798083103,-0.36101589379370197,-0.365706038207812,-0.32275820622502294,-0.19072450995665013,0.04754788523141584,0.3157327467992719,0.505699903159691,0.6009528063620485,0.6247984066513403,0.5840267983143899,0.464883744682916,0.28977608249164166,0.17752155074238837,0.20822353241070163,0.34160977377146323,0.4844653333258022,0.5732507514638654,0.5794245602075542,0.4930321972067048,0.30847455075057095,0.06703826855084825,-0.139595900288984,-0.2384204790776313,-0.19388173190168892,-0.02335724819224969,0.1353887544159239,0.11904240821363668,-0.21909885852933308,-0.7396982040911577,-0.9472470935801889,-0.957429482009904,-0.8787499742095424,-0.708884536778991,-0.4257321581965233,-0.04959587141245061,0.3201496983512534,0.586286256624614,0.7374997814674438,0.8076931157134575,0.8278405829958128,0.8314386702896445,0.8364844287022937,0.8312978289059818,0.7950647514691983,0.675868924740109,0.33256149571638405,-0.23162612801392876,-0.6193383068806368,-0.7961692055989212,-0.870555017422888,-0.891838161723704,-0.8685334474872155,-0.754687169124006,-0.38462233740980445,0.24663245847318327,0.6381695664270943,0.795165660789167,0.8647509707452912,0.8966151091837249,0.906698588812869,0.9067763548751372,0.9142716891242597,0.9184723453018997,0.9073382902898982,0.891196412985613,0.8849347072215902,0.8942039070919667,0.9184561160092196,0.9337000784716337,0.7702622603572993,0.23292635141672027,0.06025024011742235,0.4052975106935725,0.7217911396303892,0.7864583871559042,0.795750817987751,0.7933984065434438,0.7669963810721978,0.5296044690163277,-0.5803302850119066,-0.8900541881042743,-0.9395626733401132,-0.9547891692922162,-0.9592000456086097,-0.9565031359441304,-0.9443175460064204,-0.9192729420466919,-0.8902453216042372,-0.8764741701415785,-0.8736256581001337,-0.8669253266483647,-0.8459213845696681,-0.7946470851005014,-0.6735475532328207,-0.41284629095574094,-0.050157104868965845,0.16254261977132037,0.019564136231342125,-0.47878194613907843,-0.8145841282128466,-0.9153266614981004,-0.9445779908254671,-0.9519870631672144,-0.9487597173404697,-0.9306940898540076,-0.8705396135271589,-0.6772860669029425,-0.1939985219996741,0.3379115230380044,0.6210436324608662,0.7576365810969768,0.8393296527018451,0.8942273194045803,0.900366039536129,0.8371788569054476,0.723553224899563,0.5468148629457931,0.22755411798199607,-0.19873973694544597,-0.49316546659564936,-0.5908472482037846,-0.5491934089034656,-0.42969096094510656,-0.300880443037817,-0.20825289182964365,-0.14982567721446458,-0.10015690502564956,-0.025308028091254313,0.10636031577182604,0.3020525832384508,0.5254537992962489,0.7213411379038588,0.8493238742368939,0.9118654326471186,0.9411758111101457,0.9572622461881778,0.9665613485194195,0.9712645593616549,0.9727031314027043,0.9716992140233366,0.9681919835863874,0.960875273642737,0.949426992689422,0.9371520290338392,0.9334792680928551,0.9405756106979214,0.9218913048697337,0.8391150505961643,0.7353289863275576,0.6906411821741908,0.71007106395932,0.7332616173500928,0.7166052956995789,0.647094035168673,0.48224946922733763,0.19190941694745034,-0.056216655136567234,-0.037346452974414746,0.28747322483446114,0.623918170803125,0.7759540866500838,0.8351810868447567,0.8569807035562813,0.8510757580815442,0.8068189607492866,0.6591097477302499,0.2599255100267843,-0.25338409656006516,-0.5381481241708741,-0.663520671728851,-0.7231185465807293,-0.7556151197288823,-0.7737001082785191,-0.7706877731800704,-0.7321638954599831,-0.6319453652819848,-0.41393363354171475,-0.07617206055097889,0.2237899302441686,0.3706853460251507,0.3621388914297772,0.1918596850409874,-0.1458665785889987,-0.5156837466248735,-0.7408431064920966,-0.813222801570404,-0.7394077073314778,-0.26190874292385863,0.47000291738142275,0.6676409620788782,0.4557061564786789,-0.466214622539425,-0.8842079132882071,-0.956491066475495,-0.9739179108793578,-0.9792611734798455,-0.9800934783850846,-0.9788672244840059,-0.9754122035272934,-0.9651862477193316,-0.9290397648145766,-0.8814010605308829,-0.8786556340581961,-0.9054847729960028,-0.9331985031301079,-0.9480139846242974,-0.927459260022071,-0.8063857953238573,-0.4997142760314486,-0.09482187244614851,0.20997135728539967,0.3753264239859826,0.44000992338698924,0.43498524099232444,0.3815123689713448,0.30948968078998507,0.2675120942623644,0.2823256377100214,0.34880397488951537,0.4348519202923267,0.5271571538997775,0.636818150641423,0.7843674105426762,0.5261281014400827,0.11015981956168792,-0.03386364348683931,-0.07837115867054364,-0.04631017111791493,0.13546584756814953,0.3038396183451945,0.36846437601086035,0.43817494968725934,0.5344099628811786,0.6412877539273325,0.7330782728824501,0.7939403338789893,0.8194903795561339,0.813663479345904,0.7736228625592837,0.675736662058985,0.43206773447222757,-0.03754391459214118,-0.3148455335334835,-0.3400507804255809,-0.30725249262606585,-0.300108890730899,-0.34194938777406136,-0.42425891533839843,-0.5217318605521898,-0.6086690335678437,-0.6568416860446227,-0.6245694154210791,-0.5012133537482653,-0.37228370999793053,-0.31546507488950887,-0.32650489567736374,-0.3684003958353794,-0.40305828428561946,-0.3815609386378216,-0.2019287977874627,0.22660929093959684,0.5297691755834347,0.6296233281963611,0.6809745413505609,0.7296211105011828,0.7847932008503864,0.8188698750665715,0.8095947827246636,0.8012042434354295,0.824212425430424,0.8756557137842993,0.9345666639475593,0.9692182896873468,0.9706115567677263,0.9602853836156968,0.9438804673276655,0.9022625079632566,0.716885233248232,-0.26890582018595605,-0.7952401460336209,-0.8442247956879217,-0.7721907997006799,-0.5466454435820374,-0.23931678758336328,-0.06412151456179604,-0.0317846171938255,-0.07259159319427964,-0.13186569043761462,-0.16014852808114816,-0.15467161258058698,-0.1261960562330425,-0.08361050125163264,-0.030335151326220736,0.030373165189818738,0.10382501061868428,0.2010364176744451,0.3226140380903856,0.44476947736163075,0.5108722682871366,0.46823810444141867,0.3072896652165525,0.07745697877707935,-0.129370291352128,-0.24886986157258512,-0.27701589648639985,-0.2683726753905796,-0.29059555535130105,-0.3907301503243413,-0.579509699858386,-0.7558207204167025,-0.7778639337240502,-0.7013966471514888,-0.6030665126858696,-0.49444175904201965,-0.3741192199859349,-0.2572853652606606,-0.1739626301682856,-0.14545781552621354,-0.15745084906409465,-0.18487966614291937,-0.18557761920305604,-0.11054306703275175,0.09328538224837032,0.4066240060899959,0.684111988337111,0.8291680681687706,0.8792037545585003,0.8857758571205957,0.8725346737142775,0.8511842546299163,0.8282861557310973,0.8077258398883933,0.7927823998246568,0.7866958412861621,0.7892124776636,0.7998834965067341,0.807515570291536,0.7983947548086751,0.7652755985095174,0.694269181610403,0.5697828434425661,0.3769298309382896,0.1462920986700593,-0.0522646843636972,-0.1905410975492756,-0.2819102121400216,-0.3446830556405166,-0.38710402152880385,-0.4186967446740516,-0.4532672444569025,-0.5179622082232627,-0.6389322113456168,-0.7971653383360418,-0.9012711006080324,-0.90455953882749,-0.8578235714826739,-0.8071600882692291,-0.763938490105047,-0.7156116978927695,-0.6530139945255539,-0.595186339795799,-0.5847625074412329,-0.6412170094067648,-0.7360534173365382,-0.8166658356162005,-0.8567717749455345,-0.8565600024178587,-0.8185478853394683,-0.7410840130135264,-0.6295173095477636,-0.5025328109788229,-0.37658714621336076,-0.266270673448786,-0.18130274620467116,-0.12390149804297063,-0.08669610974150041,-0.06527451522442133,-0.06298245748258754,-0.06553015193709605,-0.046427429762969624,0.02172174986263722,0.14119702107807952,0.2838904925126733,0.4243607460220963,0.5622757470583312,0.7076652659125039,0.8389806497754789,0.9232205656519419,0.9592352510499887,0.9643317201378082,0.9500252854166557,0.9135933299195859,0.7714064187988983,0.1002825186955232,-0.5862883048130659,-0.7448812302292808,-0.7516003667040226,-0.6912411801711507,-0.5969850801016419,-0.5297433701958485,-0.553570706683918,-0.6699911799112942,-0.7580532265379062,-0.7451557131069578,-0.6827980350971455,-0.6049259142238911,-0.5205560647207901,-0.4551766970394494,-0.4594010199335389,-0.5351647013031344,-0.6242687705804861,-0.6715710920410222,-0.6621904927979381,-0.6091930275571577,-0.535950167377288,-0.4426608910024636,-0.3099559190451762,-0.137284950428306,0.05341654770549071,0.2444083672426866,0.42192425148018853,0.5313175645308938,0.4928769021693349,0.307085601905792,0.07557301517862032,-0.1013610732068535,-0.1969526946651773,-0.19522825710152863,0.001959303551461718,0.5472479545168972,0.7406830968375412,0.7653572671673209,0.7715588770901759,0.7691488727298825,0.762097388333444,0.7490818031133508,0.7317073774751295,0.7204450493833907,0.729539570444304,0.7643805266167445,0.8119659922967861,0.8646286659317305,0.9175931452438814,0.9583111508746909,0.9762858955627314,0.9743437306314896,0.9625749244631605,0.9462635951140639,0.9108489747922692,0.7419749251586547,0.011284120104780167,-0.45019116541558335,-0.45928358184370843,-0.22929869582495202,0.19905622711650148,0.5222052269051332,0.5486304425927887,0.34134319324227014,0.04518196123714742,-0.20809145656042116,-0.4040692724580024,-0.5659325696747035,-0.7088173174851102,-0.8237073606572565,-0.8750793473951514,-0.82624659857602,-0.665695168575566,-0.3989273940525226,-0.07874938598353275,0.21142633625057927,0.4385776971142898,0.5986220752959218,0.6974005920627143,0.7327695309259534,0.6654054508776232,0.18589110998542063,-0.8082570769141662,-0.9639227600418959,-0.9712279552377996,-0.9536178471685782,-0.9080796727890585,-0.7859177188618375,-0.44956582697966163,0.09483183613691705,0.4644282904813682,0.6393900744010067,0.7357935941010073,0.8017073112673612,0.8513744049634774,0.8858466188971728,0.9047666600903288,0.9056203476248702,0.8792709707240891,0.7979796614815231,0.5797806615243262,0.15251613373974868,-0.2266194021377737,-0.34560008071342213,-0.23614490928959156,0.065515194683711,0.37363755556012573,0.5430436790529369,0.6102768300227638,0.6293026083451015,0.632107467971191,0.6422418578468659,0.6626226080926279,0.6636291435686512,0.6226415872709654,0.5343968790578728,0.3742188006608304,0.05480218444032276,-0.4748350176405567,-0.8446522109719125,-0.9493122708248805,-0.968418694970901,-0.9694149417186447,-0.9650224819040346,-0.9520409928589523,-0.9232982533929905,-0.8755915103645693,-0.8169996053477806,-0.7587021705077265,-0.6922861182261315,-0.5940552472366964,-0.47307236079414283,-0.42051537135129763,-0.4606972024986883,-0.5300115515430284,-0.5791359100443177,-0.5860904433856454,-0.5487473606025937,-0.42724207449452084,-0.07262351451569224,0.31873056250497717,0.4523877392624141,0.49129432928631994,0.5138633134330508,0.5378278303704043,0.5734827495170737,0.5790044155271509,0.5099748280593831,0.4005983559376029,0.230257214214946,-0.12557102517076107,-0.5793961950561944,-0.8192218099104559,-0.911601290120952,-0.9523921107371952,-0.9605516956690667,-0.9155338409545665,-0.7921978613990855,-0.629223786415352,-0.4993678575660618,-0.4308371207113337,-0.41309095852335265,-0.4241081043067482,-0.43940581805513923,-0.4493719059537465,-0.4491626455007844,-0.4254786675228459,-0.3439347347383766,-0.1745274808592525,0.06295701318262911,0.28237596445507707,0.4382963097536171,0.5317307996355406,0.5901927162623357,0.6312187446295028,0.6641759953469466,0.6958316903644458,0.7353607179394583,0.7930349752544782,0.856903347935298,0.9042134491459839,0.9291088418269016,0.9389624038280647,0.940422777725303,0.9327321052100249,0.9061214751201884,0.8340623702321587,0.7413335650924119,0.7236689709808107,0.7673369600084344,0.8122348850926264,0.8264196667220357,0.7843262926664349,0.5670501153997871,-0.18134225905230253,-0.7594174512253693,-0.894607575391343,-0.9232428555256854,-0.9216422269616872,-0.8979281100145037,-0.8300613247308993,-0.6935559459525183,-0.5194906724158869,-0.36553759607217245,-0.2289595718721808,-0.05952246103314733,0.2627609446651108,0.7052847385877994,0.884539981532702,0.9210882619646633,0.9343126657977149,0.9427229363061941,0.9430165557694727,0.9249946265520034,0.8705906086385052,0.7513756253379145,0.5261445618817203,0.11614163526605394,-0.4214013986466742,-0.7573903202578564,-0.8812292475804762,-0.9196306594110439,-0.9264047686114174,-0.9164108661878334,-0.8927451655882395,-0.8441490795685299,-0.710922906093104,-0.2273271112507203,0.509100677318005,0.7133559559038651,0.6753425181879906,0.4717877118638608,0.1515919213529442,-0.0072916456340699045,0.14770430933067527,0.46154685400469414,0.6532521146332874,0.7209556982718318,0.7271172532894908,0.6949469898885127,0.6227821787597911,0.4813285305793447,0.21200787216453668,-0.16184881774233517,-0.41108093594373846,-0.5078056963871032,-0.5633227789755828,-0.626840018309142,-0.7030111444200037,-0.7771503207029412,-0.8329268283373605,-0.8603923302863916,-0.8594301838396248,-0.8282694462900372,-0.7525122712527289,-0.6045390415316132,-0.34346678842429224,0.05634973883265817,0.5114852784169462,0.8143739769386594,0.9258809334841436,0.9454200009559149,0.9397277613678127,0.9315532866974009,0.9217288123164467,0.9063788999685449,0.8870344295038229,0.859344530098391,0.7752257359533514,0.46048294114125826,-0.33537351007024957,-0.8348093816682044,-0.9500453410796836,-0.9274662696007895,-0.7926618569769704,-0.5133507820061065,-0.12598135780184366,0.2610931899486214,0.5659086227154766,0.6061887175850651,0.35820108398876876,-0.09542879436494775,-0.593846533909281,-0.8767829705329785,-0.9620516205923434,-0.9759176341449695,-0.9690122372366097,-0.9514057454316505,-0.9223100457032706,-0.8824238515399523,-0.8356156731519677,-0.7678747754565544,-0.5900417594019464,0.0765743314229436,0.7461499706640755,0.9000991879060284,0.9429765851541483,0.9607414223756204,0.9698720543255221,0.9738724431640043,0.9690599386184644,0.9366232411688934,0.8147900745542236,0.5716191801950397,0.404389393573138,0.38964244842908397,0.40000813904586924,0.31571272608351686,0.05712307240367348,-0.28426505237379,-0.508686069464837,-0.6127746851350122,-0.6545539207219078,-0.6668224583658795,-0.6673743763873292,-0.6677928087633683,-0.681709466249037,-0.7146595195986185,-0.7574378692982496,-0.7911189067050031,-0.8122508577382299,-0.82548765777386,-0.8341916138826609,-0.8253050519864016,-0.7395139986931187,-0.4871250370223108,-0.1990520070414229,-0.01884337559578482,0.08089074339761254,0.1454106113105924,0.20656832333602643,0.27976241013171704,0.36377119831744087,0.46047610905060465,0.5689299565094342,0.6698754943159488,0.747079170308538,0.794648134649613,0.8151931057948698,0.8149895562568272,0.8015862354417147,0.7832089293777046,0.7642235665018257,0.7481238074531211,0.7223884206639728,0.6679231871325153,0.545308559878946,0.29737320386279903,-0.08668883291898884,-0.46425735521156664,-0.7024289002784241,-0.8151531726240487,-0.85413731793656,-0.8378545662830997,-0.7287792822038646,-0.37685419253018787,0.25357257441831055,0.6036671668925564,0.6983925318968665,0.7287417138250669,0.7632096611984873,0.8035088601659343,0.8358785233372402,0.8529102190528212,0.8519990188756683,0.8387237670779463,0.8213845773876863,0.8116483441004854,0.8164790284494685,0.8314489363698769,0.8395509451983094,0.8019203723709691,0.6220453778298476,0.331877886054715,0.11995660863388004,0.0062071027153633865,-0.021628233854675525,0.07012984150554058,0.3435204400659019,0.6797941443510424,0.8279565254655089,0.8499097231202626,0.8048219458324912,0.6098638188974813,-0.06056722700237746,-0.670963691870661,-0.8336991086390195,-0.8807441191332677,-0.9064775692784482,-0.9327236218844445,-0.9583561917400211,-0.9766802607101679,-0.9834617293279376,-0.9793361270061042,-0.9655266381941824,-0.9397391079823598,-0.8943055279240196,-0.8208551837339274,-0.7440538115501512,-0.7392483146370703,-0.7991728589120376,-0.8529554493097704,-0.8734344505732453,-0.8614490907757142,-0.8246813451032612,-0.7746992282135066,-0.7177837217394777,-0.6615487577486069,-0.6135659066558999,-0.5300395461743904,-0.31541877487434433,0.01961518754960413,0.3148867927947674,0.48604937172232887,0.5608154749827904,0.5770920497349967,0.5591364372064381,0.5131385643350359,0.44756695932549706,0.38536974498335863,0.3447609155544177,0.30826559983430935,0.24250507277918176,0.14762077097163148,0.07747779232051816,0.10244748125788289,0.33843807607720033,0.787052045008169,0.9742284457654674,0.9824770488755868,0.9740252665591741,0.9664960959215083,0.9451404401086877,0.8450133265870916,0.4546048331221177,-0.08800970112704584,-0.30395621528586275,-0.2650729844872078,-0.007776874905093459,0.3982595863759957,0.7041987100666999,0.841637167506502,0.8880337679305208,0.8787396032346361,0.7667577453588595,0.0470985935568173,-0.8225522898745103,-0.9546275626216101,-0.9806418027787338,-0.9850503508442986,-0.9809512422579034,-0.9734529878163676,-0.9653156823212785,-0.9585872401117711,-0.9564029519505831,-0.9583540055204512,-0.9582453341129781,-0.9461771135809022,-0.9117747409230894,-0.8343624285618305,-0.6590570992982608,-0.24730021497185742,0.4143585209492957,0.7999811694411388,0.9113415756793694,0.9322496402357012,0.9231106613014167,0.9044597168376419,0.8890352109405509,0.8830092197758173,0.8857479461921475,0.893695444854808,0.9026202778273411,0.9134838741445047,0.9290490518429568,0.9452928300726459,0.9565353696739233,0.9608390154997108,0.9560797881973023,0.9310746999752678,0.8274164234119931,0.33150369756615644,-0.4950230711358491,-0.7723809869311299,-0.8453607361256533,-0.862672245587291,-0.8563422260791432,-0.8369113070538602,-0.8138668031166024,-0.7977665071091283,-0.7938225824648292,-0.7989293683200431,-0.8011010444567699,-0.7859418713593033,-0.7367065596584547,-0.6202744334329068,-0.3970315143469012,-0.12937051677931288,0.0015446141432328589,-0.09689806987624532,-0.3668559374238445,-0.6150768460422658,-0.7538332041467326,-0.8240167573289299,-0.8667297951306617,-0.8957628959860436,-0.9113294216125747,-0.9100308022384046,-0.8911423688636894,-0.841379437848194,-0.6856000911251816,-0.1284947513037686,0.5372710072569282,0.7512313274479013,0.8323855611597852,0.8833596144394656,0.918857511840346,0.9389225310786538,0.9455285795448848,0.9426087333869847,0.9303834957595338,0.8998993904383651,0.8143770252423691,0.564011034196736,0.03783533715306969,-0.47590772780056817,-0.7518254420904934,-0.8669191626566837,-0.9034680270052339,-0.910247184303421,-0.9015108453115434,-0.8762189292890684,-0.8395766045091292,-0.8100210794688159,-0.7906381724401849,-0.7556804417730169,-0.6728892413985597,-0.5498066572166931,-0.4178375457123241,-0.2598390166224996,0.018239036974005227,0.5232135504136999,0.8661590087821838,0.9377082445472373,0.952442239622718,0.959553382157971,0.9639950953615596,0.9664768367323506,0.9670796930236882,0.9644580009373153,0.9596713253788087,0.9577987220110213,0.9616626762633628,0.9669040869989862,0.9675212560330586,0.9610320891920391,0.9426184291347427,0.8839187055631137,0.5451002027133726,-0.4777037961107226,-0.7186287964707088,-0.7183398967653939,-0.6835751343712567,-0.671144365258127,-0.708410802897569,-0.7803588887042823,-0.8493922285348187,-0.897160265548335,-0.9264234742474502,-0.9449660971093986,-0.9586654627281688,-0.9679536181664019,-0.9716550809917912,-0.9675228174051977,-0.9476899057151892,-0.8906414394493796,-0.738099546215053,-0.32629767202921667,0.37070051527062475,0.7465991250714795,0.8513464167699998,0.8767266802522766,0.8824585884909137,0.8860113332581097,0.892298316592413,0.9000596380885368,0.9083779755129316,0.9156977567629736,0.9189091926898884,0.9159452772551074,0.9044593981179804,0.8804399801388618,0.8228712243068727,0.6806397847251183,0.3804552951715464,-0.019004582355015776,-0.28860674031504313,-0.38058013870513235,-0.3001738100083258,-0.05265403733645919,0.1822633906141582,0.2358216212743255,0.13517791265662282,-0.0716988451763994,-0.3128084212792065,-0.5167611637334165,-0.6523573915833183,-0.7328971231593637,-0.7830629804840532,-0.8239522835201946,-0.8604512443642611,-0.8828449675475989,-0.8819041196509321,-0.8455535839576841,-0.74135150604558,-0.5095707931775423,-0.17207308540363414,0.06227238173900386,0.0879904228977227,-0.018985592070913663,-0.13994518138313786,-0.21121517213620283,-0.2027621480435583,-0.09332181901936823,0.10265810837759944,0.3376508982244347,0.5639404569403471,0.7210492558467871,0.7779363448466191,0.7800263580552914,0.7823687839932867,0.8029463993945326,0.8205468256165619,0.8013472208819755,0.7027031041272453,0.43901285214669744,0.038887945650107794,-0.22072907586974125,-0.26250158407367913,-0.1350104773337622,0.10593082619938465,0.32735462686842304,0.44342732176296035,0.46159881397651165,0.3884250430684639,0.20513381898830507,-0.06604560898493535,-0.3203600678054011,-0.48178108657841884,-0.5505441172771623,-0.5415934551729221,-0.4620881586726588,-0.32547424005256237,-0.1665544150243782,-0.02689838447517189,0.08065225253526623,0.18171089847305436,0.2930168704899633,0.3937194020580572,0.4444636967104657,0.40171762563791896,0.1999730226463343,-0.21618676435690928,-0.6513654138333681,-0.8630369678696226,-0.9311424699655333,-0.9518617842570805,-0.9582566892789662,-0.9585921531587229,-0.9533630699773898,-0.9389266680000553,-0.9060929739881235,-0.8423325487669143,-0.7405088592298454,-0.5314538139585272,-0.010632293083055026,0.4991173669687499,0.7573142753730465,0.8549589508992282,0.8759219309041035,0.8608645314909625,0.829331374840577,0.7916646083631009,0.7593327269409875,0.7405741749088507,0.741534550919953,0.7514464538737646,0.7460149514921112,0.7011681539643585,0.5905436058689779,0.3725423099216746,0.04488118849528091,-0.2695197277245591,-0.44705093012659186,-0.49705196398473817,-0.4832446135160206,-0.47249696898990934,-0.5245955890898171,-0.6546298493826772,-0.7860596681790434,-0.8564188813088137,-0.881256584368665,-0.8893927991262904,-0.8896015631997234,-0.8843729764586449,-0.8684198163988298,-0.8182886161469509,-0.6391087324748153,-0.31169047166647856,-0.21319504500537,-0.37878091285556603,-0.5683300881444754,-0.6474221411721957,-0.6148628451579552,-0.4670496943651014,-0.1857415106100114,0.16001966951166918,0.4474676730999602,0.659401159860055,0.8059660630245516,0.8978449900903338,0.9434966619760928,0.9567345187799009,0.9514350890757142,0.936042150198737,0.914734456947409,0.8943777756532866,0.8823032370500911,0.8796432767982987,0.8800281475508256,0.8703768853801902,0.8369033838973295,0.7665930254438079,0.6606641809549024,0.5480958100375265,0.465085393555011,0.4372444243939701,0.4702329978940861,0.540358730094413,0.6008675807322064,0.6207903159220985,0.585054759418142,0.43323661578569744,-0.1567559950301198,-0.8759951720794513,-0.9664600392546915,-0.9748463019260669,-0.9770700583015376,-0.9785517238525615,-0.9802727312874446,-0.9822262066451165,-0.9802835917264022,-0.9585657326769144,-0.8327931929021182,-0.39572406745973004,0.042844846072369214,0.23211407252358562,0.3001509567029752,0.3023067119693895,0.2454851143386436,0.10761962281119486,-0.13479258078351877,-0.4401053779938334,-0.7033804948014121,-0.8429539500595992,-0.8872455361232368,-0.8663257094795435,-0.7194072818224079,0.08750905652131097,0.7628963277771971,0.8498427189957619,0.8467065994744429,0.8055855424273528,0.7021144937358587,0.41980327287546015,-0.23497977931050967,-0.7362008935841414,-0.8817189596977358,-0.9151484434240841,-0.9089315901553024,-0.8708855121993859,-0.7914895174152835,-0.6923379666401527,-0.6669449058436631,-0.7587836520453873,-0.8661602584318745,-0.9215867206453655,-0.9447117472211132,-0.9567759902725289,-0.9662787754299809,-0.9733237591016574,-0.9753851477764643,-0.9679559572342237,-0.9375377720695034,-0.833398897308448,-0.4493305782607239,0.36844802418741757,0.7942082724612418,0.9064197003458365,0.9310735958625381,0.9249982937847541,0.9061097556087343,0.8828046304423023,0.8585700251636524,0.8345407806567976,0.8125358819692972,0.7929515681970306,0.7744265515335106,0.7284319509439103,0.5453912885366886,0.3022940507161362,0.2531111490512631,0.35399794736049395,0.5139491263276389,0.6541309225635723,0.7396304161679653,0.7836798482568784,0.8050910988662325,0.8059357921772351,0.7693216785584345,0.6641730269441593,0.49307155424556876,0.35131132889057215,0.30654614980748074,0.3536262555359461,0.4622970359097854,0.5948968084212707,0.7149333283612136,0.8033303376420625,0.8598727691066009,0.8841393734412083,0.8775589683015145,0.851101955206807,0.8261699013480438,0.8301638141114809,0.8676997735322132,0.9101972349497485,0.9381177218704866,0.9484462910880319,0.9443391154596048,0.9251299763667185,0.892924382013255,0.8530551662503607,0.8114207843919491,0.7705940368240705,0.7181727390177107,0.6220077128898223,0.4217771747282371,0.13935607930045532,-0.07413279871563297,-0.16415115989608947,-0.1982756315800773,-0.25589237491510153,-0.37490695923060324,-0.538853744794541,-0.6840208547223928,-0.7618161339908853,-0.7519522214677226,-0.5631552224117707,0.06505692542128987,0.6140522985210389,0.7816565007671356,0.8201703086584531,0.7944153598691164,0.6498099271490472,0.2367532881433049,-0.29125614545052686,-0.5647974496094332,-0.6713406335217085,-0.7160324552504408,-0.7464733196660862,-0.7802009119668891,-0.8083219775333558,-0.8208848352019481,-0.8157949192855357,-0.7764774971398721,-0.6791735149196181,-0.5617976899800611,-0.4866477923678539,-0.462361072432174,-0.46513569903776475,-0.4555679595855354,-0.4123112655298675,-0.3309608375985733,-0.23107452559759994,-0.1535722562016417,-0.1276771659361412,-0.16650722891948833,-0.28377847335865797,-0.46913684618855317,-0.5997047176781629,-0.6372269446860493,-0.6538535236220868,-0.6786018810557302,-0.7184405551907931,-0.7670814456964745,-0.8092664628615728,-0.8167246203755246,-0.7789865674519718,-0.7189366941744849,-0.6352188352671193,-0.4459048739074052,0.08128882184721695,0.6563951350421958,0.7518768302776193,0.537340324707262,0.2025364287826801,0.03037756548011007,0.03244841840003474,0.14977749933484277,0.35187696118809025,0.5962869512336673,0.8057135417792001,0.9185403428005184,0.9559979010649566,0.9544322311840685,0.9274117496011147,0.8621934055025516,0.6820627405438507,0.14676290741604353,-0.4921523313154268,-0.698985929737543,-0.7487197140236934,-0.746011719609132,-0.7177903895934279,-0.6810911373055133,-0.6377753875460229,-0.5776184544543447,-0.48279570970462654,-0.3299428020308476,-0.11915473818787174,0.03801820580867812,0.004508135571031122,-0.18344136327515811,-0.42466658256750267,-0.6192898670348621,-0.7120851489039199,-0.7457802179928636,-0.7489483543225258,-0.7197463090000509,-0.6344519510698967,-0.44250765469049375,-0.02374676759021349,0.6062783477061916,0.9039903374836201,0.9456027629297431,0.9304874614646916,0.9044935889435936,0.8765272518530559,0.8528727247717978,0.8409977123791308,0.8468596130801006,0.8697410968557705,0.9012925367113909,0.926204081631589,0.9236364264510698,0.8657801217092793,0.7547792428281433,0.646765775294445,0.564218566505278,0.4871870152235165,0.3509931689783257,0.07458658534539525,-0.2962516482416474,-0.5052623348018959,-0.5479568431054175,-0.5236649119148451,-0.46907976495996473,-0.3873334057600129,-0.28031842489949604,-0.18996954090098553,-0.1836984087905218,-0.2819502374918737,-0.35763820928737183,-0.32421588334672274,-0.187137647645587,0.06017716148508618,0.3654779336139296,0.5945600801715479,0.7173937920325006,0.7810358964104788,0.8224687170125246,0.8571068187220775,0.8877430591842502,0.9117409383834987,0.9275030287815015,0.9314852396084472,0.9053596696402262,0.7452667736141498,0.13387031864366775,-0.3854989822488841,-0.5400786865100651,-0.5719708907401161,-0.5615514006224022,-0.5370247408438632,-0.516223120475233,-0.46754833350516595,-0.015996757731932917,0.3112934404835993,0.4984951152558942,0.6514707076946927,0.752344327357852,0.7613476449221089,0.6329654087854033,0.38992933537516977,0.11319414088797576,-0.15122739492959555,-0.35747330835701074,-0.5018106300624898,-0.5964818710457944,-0.6514824806173046,-0.6718464448167099,-0.6654260004113279,-0.6410713429063347,-0.5993503472991721,-0.5316837127062298,-0.43362717377674975,-0.30139810189035054,-0.1316510298818725,0.08730062565596426,0.3295232745979283,0.5387379113436147,0.7022394243227302,0.8239860690667252,0.7117335638263094,0.3955283757981854,0.23099489325287262,0.21171353586666647,0.30124839338945963,0.47976306100802035,0.6583994697004001,0.69433940524714,0.6307308651670643,0.6285666191067774,0.7929114314129901,0.9411386170476789,0.9180954035413539,0.83827399230059,0.7110237767400444,0.5110093739366406,0.26700688920447296,0.0668655142113028,-0.04878984230170948,-0.07741997888667447,-0.012577447406675294,0.14420059595586968,0.34088410320849005,0.49220867020208614,0.5689118861921459,0.5908845183472626,0.5697910283121229,0.4813113898711533,0.2670165615779951,-0.01753158890366397,-0.22079136296794588,-0.3355284514925475,-0.4125898689297333,-0.49362766156365623,-0.603329348023412,-0.7351419044818924,-0.8446357817252196,-0.901949337266103,-0.9182144843984662,-0.8982092459179228,-0.7174509083260983,-0.05031581450490426,0.18964734465135388,0.0940366731609118,-0.15214388893281813,-0.43436182958617875,-0.6019687293833542,-0.5928984770112421,-0.4294882976335704,-0.14875328637184268,0.10750889557913353,0.19768531648804133,0.08820159243724147,-0.23513056698981935,-0.5804776566521471,-0.7407759519384512,-0.7724525507789685,-0.7352919220044195,-0.6344661721140665,-0.4485548328463196,-0.1279322851302017,0.34146860186399813,0.7538297043681808,0.9280299650140903,0.9499745358889493,0.9159139294690274,0.8719505395825708,0.8356745112058545,0.8136636921252117,0.8048478245937338,0.7967178009963688,0.774374818541757,0.7174756221416531,0.5999649319874577,0.4110754554759199,0.19662111020081308,0.00020875497010224773,-0.2447027772539843,-0.6049880121381216,-0.8670774751617751,-0.9464003670649571,-0.9625076335351151,-0.9646669049807236,-0.9648508964576008,-0.9648848577628317,-0.9637709077952686,-0.9597985495077682,-0.9516310447845358,-0.9404147050634328,-0.9325796381649084,-0.9306830012545005,-0.926487933567241,-0.9142872858055077,-0.898397378438658,-0.8922451065391233,-0.9011839169924106,-0.8935233351193771,-0.7465187124363367,0.2206167716527854,0.8447307053116617,0.9322383133295834,0.9483758796487195,0.9454281386225415,0.9348484941569573,0.9296035618993516,0.9373434287234547,0.9517862090287013,0.9628982939160672,0.9690019274451388,0.9708291969085798,0.9697212999800207,0.9676149480827554,0.9653285850502556,0.9614957188431028,0.9524897727436867,0.9329633401076867,0.8996267087220615,0.8523514156654809,0.7693882872474539,0.5181851973318832,0.08054525959137031,-0.20299976705322792,-0.3319107152391615,-0.38221181574236607,-0.38439136490204956,-0.3434683462983292,-0.24647466079181857,-0.06401303586668557,0.22883036896011089,0.5020405043254789,0.6112132957842984,0.6543893188470352,0.7002265252627217,0.7473498650870518,0.7790751078982273,0.7926064556116447,0.7957734669848318,0.7903570047693694,0.7698032202208283,0.7001845405099462,0.5036624649740918,0.06872849673789998,-0.4437849790851232,-0.7187753646120567,-0.8031439690459408,-0.794850111109802,-0.7295395056176157,-0.6245273657868488,-0.5051709917441808,-0.4207044990562547,-0.42349719443585687,-0.5073166481104219,-0.6113409419049652,-0.6808330810698187,-0.7082375333501543,-0.6972934094397166,-0.6445378346595831,-0.5426137896205607,-0.3847093513246871,-0.17011821216371434,0.07325026632718692,0.2847111471196596,0.4484232584881683,0.5795645934862597,0.6797063862052914,0.7446454466441952,0.7711523368508547,0.7602269771136009,0.6996996529206374,0.5482264634733415,0.2177498264135921,-0.24454035747616282,-0.5196712358667178,-0.5854023110618574,-0.5462730854367829,-0.4418625844649951,-0.2862739029977307,-0.08304729618102238,0.13521828219916068,0.3021722176034641,0.35538344506346553,0.25163999455461894,-0.035495437437564316,-0.344317411181484,-0.5441660860383174,-0.6570287804884117,-0.7263516586445927,-0.7745942031744486,-0.8076676943005141,-0.8151857528304604,-0.769583146096511,-0.6357755099830196,-0.43879028938800757,-0.2699436793954862,-0.13121061578827092,0.03063645567786279,0.20846115749590552,0.3271400387113459,0.3113367765913028,0.17978580111423048,0.07826423864958144,0.16002209298476378,0.4082823662879607,0.6495791029054057,0.7794824924156989,0.8382483114379592,0.8677055425674978,0.8875799267453421,0.9026955332078185,0.9143854384169106,0.9148583956835323,0.8840982978897324,0.790197712632609,0.5372978224364018,-0.0400820920566911,-0.5776787245174556,-0.7850575052123022,-0.8520707230245076,-0.8620552402284818,-0.8286217277533496,-0.7375544506851038,-0.5625704724753009,-0.32021277542636417,-0.11193698169330643,0.008976481754109707,0.08790710313196219,0.17973647864200434,0.298391582349603,0.4157826760688333,0.5023022953134726,0.5485056130538866,0.5559890799897796,0.5271415057145443,0.4570098038610059,0.326250795994675,0.0838381034069678,-0.28915833713948963,-0.5914208820817505,-0.7351665376094745,-0.8279866169182272,-0.9114509172837032,-0.9720478891689064,-0.97921195188937,-0.8945339312822326,-0.7438285341462975,-0.6224684385237602,-0.5552640007026666,-0.5028101623696961,-0.3961054265864484,-0.18330215352149262,-0.0053726798430442976,-0.07124452849754201,-0.424929034400994,-0.7599962487555826,-0.875976363758051,-0.8902888635831661,-0.8465410294683922,-0.6557814545237639,0.13172171811144986,0.7982106501346328,0.9153152876625764,0.9196809744237032,0.8832105948328051,0.8077863895704663,0.6631927680478547,0.36434811013689616,-0.11333718552162374,-0.49093667968845467,-0.6363337817305009,-0.6396841039015773,-0.5514746071342428,-0.38788553528144526,-0.19277319877876778,-0.01992889013839677,0.14378479274585862,0.3287956096487114,0.5155628055268369,0.655552744848185,0.7383287277636787,0.7780242188591822,0.7876061849632702,0.7722288275445136,0.736849703282764,0.6872662565034702,0.6201496280750471,0.5199468486774969,0.34717721901226833,0.058586058454382035,-0.32448561670607573,-0.6383071349287794,-0.8041056191472747,-0.8777168670576813,-0.9121050060025733,-0.9319183089870786,-0.9420311156380573,-0.9334707677744657,-0.9021802113599804,-0.8657443905436061,-0.8399668086957585,-0.814929743190939,-0.7638577662068493,-0.6497964924559168,-0.40252535662256084,0.034517242143364546,0.47605657919175925,0.7265396374056527,0.8435833414800428,0.90130779771184,0.9326176393956062,0.9495138503689052,0.9586352678608526,0.9637156738467821,0.965966815544729,0.9644699301516773,0.9533728323804417,0.91906055054441,0.8397322006593405,0.7030049024452593,0.5262586435228002,0.3415906899554073,0.17065458415868423,0.02516902548698889,-0.08937494529489015,-0.16858974122383258,-0.2729968532467524,-0.5250777347014424,-0.793347528344041,-0.9034613244416108,-0.9370212758639754,-0.9443472277860777,-0.9224365155624605,-0.8392574169623699,-0.6614966461899304,-0.4224825447062905,-0.21495637651141816,-0.08764622998620587,-0.014218181590336079,0.06538319268827272,0.15870251029953464,0.22449970396348382,0.24716739642543348,0.2460273376825619,0.23246894369247278,0.2086142762044899,0.15775799628090792,0.04213326851197899,-0.17041790084480882,-0.4052116783971958,-0.5538284386111876,-0.6346502401973882,-0.6899795034989574,-0.7414899597234472,-0.7911185527872736,-0.8332011174402956,-0.8608334588669838,-0.8784450481047179,-0.8952156765605253,-0.9109046128435951,-0.9206667065710997,-0.9174639459660375,-0.907037594290528,-0.9048678795395421,-0.9157423045796661,-0.9370580728176406,-0.9538817826168327,-0.8648862563064587,-0.18721877003662155,0.5072808181899336,0.749806523220929,0.8187734701853341,0.8148833503999358,0.792770641565598,0.7803323908533917,0.7883674466769204,0.8160748371311096,0.851585718357739,0.8602535037235305,0.8070567428681956,0.7033493566969375,0.5842725690495814,0.45996034520530793,0.3465087062462927,0.271284244028452,0.2507725697426034,0.29334809506989634,0.3640408425199561,0.40667422970110156,0.39269561328174535,0.3240031866416132,0.22378677347320622,0.11629338889384024,-0.001566330989423335,-0.14353843432689312,-0.28964062360255505,-0.3976451696290061,-0.4525657511366591,-0.47989760522665303,-0.5326235778731637,-0.6450469628440212,-0.7801349944598697,-0.8744895397930206,-0.9192278548824174,-0.934926729654494,-0.9349822526093964,-0.9252166902650714,-0.9021824559417762,-0.842037208912378,-0.6317175755243585,0.04419789681155179,0.6209817220801347,0.768882526095089,0.7779795364830869,0.730618480375452,0.6558975557785844,0.6215246115360178,0.6757689616674492,0.7789342821080506,0.8634419656905368,0.9106721028549156,0.9348296235313538,0.9473701410346856,0.9516708712228089,0.9455829680969043,0.9200094868067894,0.8481860219252914,0.7292813609057274,0.6944758462206083,0.7565447498470997,0.810556299679968,0.8337021133506409,0.8296038844266277,0.7886074490764564,0.6878250557923936,0.533474597002429,0.3922183562748715,0.3193772868039773,0.305486033360008,0.3248329674564355,0.3562926794227496,0.3780110346120717,0.36348021887278825,0.29599247325663847,0.20772547888498824,0.14311882713605872,0.09098452166640893,0.016091882312753793,-0.10424289377800064,-0.2868601220686147,-0.5454657460567512,-0.8232451978343827,-0.9539172636805067,-0.9457652022304079,-0.9090246668629967,-0.8731918515407171,-0.8309492800066434,-0.7710059317861527,-0.6802917096891566,-0.5547910728797474,-0.4195501876812631,-0.33223673191780145,-0.31369181822826026,-0.3177548147549254,-0.29045410351124384,-0.23116019164280793,-0.16378957976595687,-0.09290684200583914,0.003818218320727103,0.13678313478203027,0.2473652917641939,0.2749630355567848,0.24542848048049956,0.2089981677519206,0.22010050723996855,0.30841272565125877,0.45372840482059934,0.5822840866052121,0.629269041890718,0.5497845340013935,0.20968965601306083,-0.3907967848919375,-0.729012844090776,-0.8243866641923262,-0.8083390327291878,-0.6689587996475754,-0.27931237108491985,0.20802821091006182,0.30395516742774925,-0.04106273915007981,-0.47787209527767416,-0.6271546561846111,-0.6387472581644549,-0.5796641426980713,-0.45090846106140475,-0.2495700555556568,-0.032855462964984296,0.10515788899262071,0.13475745644018713,0.07690789451577719,-0.03837348886359748,-0.13777165610278974,-0.16780146986721567,-0.14151898447005803,-0.08273337392220195,0.012933477388276401,0.1530977433994495,0.34419959716298165,0.533826359036866,0.6646658382449006,0.7452941689443472,0.8026399451362292,0.8450483223303112,0.8738429817790435,0.8877222507653597,0.8883033229066802,0.877529565813786,0.8604689519558807,0.8394854742724062,0.806930880442752,0.7138122695944588,0.4600152853269629,0.19408485827539268,0.19084615666736032,0.42197332969972795,0.6974468240378554,0.8742634269072578,0.9537629383310503,0.9841279389863421,0.9921295609108617,0.9861269678329837,0.9640869370704254,0.9074715642349465,0.714582973936613,-0.02277340151962742,-0.7069875574026706,-0.8783663785746851,-0.9238821878530147,-0.9349914761865026,-0.9306587644139485,-0.9148872879656639,-0.8815888694500223,-0.8100434076295894,-0.7229486468166358,-0.7194926406159724,-0.8239537691190979,-0.9313206852992543,-0.9647801595960184,-0.9622140155069195,-0.961509182517319,-0.9697281498100928,-0.9809611642804931,-0.9856505667095058,-0.9681809443249156,-0.8903284568653146,-0.6488509397482402,-0.0900810940911625,0.5106098024981052,0.7944862110023436,0.8942362247196552,0.9267051370830172,0.9330259137334086,0.925903295370791,0.9090825561211852,0.8840792057989129,0.857395126568786,0.8387070476809882,0.8364957419489856,0.849459986474042,0.8642339832076691,0.864266560922866,0.8318600359531001,0.7237776367248637,0.39518340342686414,-0.2224826553589972,-0.5730373134096655,-0.629345857721057,-0.5097436650080813,-0.23329444180732886,0.07713847740610472,0.275895437452504,0.36783204277813075,0.40526976155670824,0.41303290322959463,0.39307188758344097,0.33451056290480613,0.23881340781335464,0.16762428476280497,0.11448708106650508,0.026517056683696083,-0.11658774314112379,-0.2894303603299069,-0.4262735105292828,-0.4756223281997772,-0.3890745541999675,-0.022110980229302243,0.5712075629641239,0.8164120584861158,0.8409332377833113,0.7596225557280698,0.476801423773198,-0.11077313908639316,-0.521773425345923,-0.6610620094747791,-0.6812686168037314,-0.6458972185856675,-0.601786996795588,-0.5898040699644793,-0.6135310485117221,-0.6465789496678156,-0.6439814754691633,-0.5766605491704017,-0.4595830379482574,-0.2944874154015463,-0.013114356291201971,0.42700140700076367,0.7864846627812291,0.8968029295679619,0.8086381107141152,-0.5520039716497661,-0.9320184041981093,-0.9632510192746108,-0.9673896653892622,-0.9624088027787041,-0.9484067626933803,-0.9212371703535455,-0.8734136815927358,-0.7844280621358816,-0.6003226654679201,-0.2543509225768168,0.13204876722383035,0.42712313666966434,0.6479608781841615,0.8169267018033072,0.913410825920915,0.8990956882824518,0.8093610903900911,0.704399497232485,0.5999646037213399,0.46559569301349674,0.2666674929288816,0.08182427017285757,0.021796514873314677,0.04494679714463881,0.10112992856515082,0.1679452851946922,0.23826645319037917,0.31102525382836216,0.4011775069875454,0.5148741769840721,0.6424934390012093,0.7655598898880933,0.862702374093307,0.8948797976321837,0.8507611488217104,0.7536024245572961,0.6258138124154095,0.4818150490950687,0.3395554306239932,0.21987533806173512,0.14100849466149282,0.10710405424716099,0.11550554634821081,0.17388491563473404,0.2799253326375458,0.41016810585575314,0.5247281139139685,0.5894734797800467,0.5808731590890239,0.4846824113370983,0.3193041679624056,0.19616203173619143,0.2573774198481603,0.5025724923736636,0.7337038557856101,0.8497463521662919,0.8909372466967418,0.8875917631067135,0.8384234202459776,0.7031977867027525,0.33456343178887,-0.23398517426234486,-0.41705436075622143,-0.391614916261069,-0.3343327273323699,-0.2891658798474273,-0.26062145381025037,-0.24806323810251246,-0.2558440076888899,-0.3006894749217187,-0.3967652518289157,-0.5168714665011305,-0.6194303369086432,-0.677249665408456,-0.6754750360302564,-0.5994999505097909,-0.4128695234663531,-0.08624463635572739,0.312375203715717,0.6293398773566533,0.8046386837499984,0.8755275162374967,0.8903272119258073,0.8693500627771629,0.8009678978406627,0.6210172025231226,0.20727906220106934,-0.2946802176481864,-0.5582400508999151,-0.6317029878288116,-0.5866082642936516,-0.3992521321349862,-0.06747492564286262,0.1186852619464487,0.05992349840997974,-0.08614677006718618,-0.21894623389117132,-0.31243437618016934,-0.36327926042983694,-0.3788963973583537,-0.399274064877667,-0.5235357681089703,-0.749584728123669,-0.8894044811486824,-0.9389597715961548,-0.9499514767391666,-0.9300185006157219,-0.8032001873712111,-0.11233134055099774,0.5942271653234396,0.7622312060349068,0.7998447268422368,0.8008669364462777,0.7876686289322004,0.7641033610599346,0.7202799874019296,0.6237811890246345,0.40780409954499053,0.05335002318465436,-0.25199274646408915,-0.37917362815568556,-0.3579572890448439,-0.19255496670845706,0.1856960972171515,0.6501121499917778,0.8197280824422477,0.8009680952851173,0.6883693006309595,0.45309240404699047,0.07855822228150314,-0.2827772387425807,-0.5149319079623979,-0.6470060003539766,-0.7277696973367959,-0.7834275601864393,-0.8236181842911366,-0.844834389879778,-0.8372467288128185,-0.8081688055443706,-0.7680506699941755,-0.7028574645332292,-0.5582070863274848,-0.24231626070907716,0.2073126850397624,0.5153401668767059,0.6260929436831798,0.5774004424924565,0.29627791766289935,-0.17065390162058744,-0.4578754242066334,-0.5409818948250867,-0.4911370976673312,-0.3381688023768661,-0.12066798590420563,0.13104861336713688,0.3901250511006125,0.5938975164648266,0.7134452484916596,0.7716699096751047,0.7725366218513929,0.6660552062729709,0.2570992354080465,-0.3139194740864571,-0.5417311089792543,-0.5708283641370725,-0.5124078144118456,-0.4105969300840742,-0.29194295498799805,-0.1741881322235259,-0.056172583985873756,0.08082039155079175,0.2641850179952579,0.4804662085013666,0.6630678746602624,0.7765677240427962,0.8369320802838061,0.8643027086301274,0.870879994479579,0.8626725211029956,0.8426172191481816,0.8101392308167862,0.7628022565602595,0.6840153270174816,0.5487780450103512,0.3568977157077686,0.15870952701405644,0.010253710881689089,-0.04896935399425084,-0.0025650208636611087,0.16638857743405988,0.42719055807661754,0.6568382725888183,0.7600764043971999,0.7429888075779844,0.5774727129084274,0.18245682454379225,-0.25243540020381505,-0.482694606759634,-0.5390369319078877,-0.40662494448204095,-0.043196803517559404,0.30316426152638704,0.510042197843813,0.6389507682480496,0.7268570654260939,0.7886609676329085,0.8255471423111178,0.8383341099091768,0.8417402427499555,0.8502462604676185,0.8568068658335114,0.8400163830595395,0.7498818863638664,0.40119860692780607,-0.304503143777097,-0.6870554144910669,-0.8079947252478566,-0.839072555127758,-0.8103820574032216,-0.6887087789271992,-0.41326473909520584,-0.07421056373833423,0.14409412674437358,0.18810663353719212,0.08458196601565685,-0.10984335107779938,-0.33052727618525235,-0.5421229523002684,-0.7362117045280087,-0.8738394557967639,-0.9287875974244787,-0.9298344802737167,-0.9121491375801255,-0.8954925549313745,-0.8889336597059344,-0.8975440894639085,-0.9248259475964208,-0.9644003410050167,-0.98809527589561,-0.9799099517970876,-0.9526048742892405,-0.9133074754024045,-0.8410626915732581,-0.6748040726090133,-0.3402718856202854,0.00449956040844679,0.11564415668117463,-0.016773117124188653,-0.27890799309569736,-0.5064611779007283,-0.6485618756531752,-0.7282260542029643,-0.7591865930961734,-0.7571996829865769,-0.7380787020273776,-0.7336523044945806,-0.7573816899112001,-0.7954175795771323,-0.8241867503684702,-0.8208896662851541,-0.7533256176506113,-0.5533736090836711,-0.1481887548239962,0.31331414489285575,0.5816734125782673,0.6879537328869941,0.7322644166418971,0.7707724905318567,0.8199217309232625,0.8649382501131918,0.8872964856431381,0.8827967727074562,0.8595550682913565,0.8383272461837445,0.8413968498100874,0.8715509699971995,0.9055826815293893,0.930432271050786,0.9468631133862709,0.9546811368513509,0.9464643783456973,0.9151815315041029,0.8560152638246777,0.7454933545428182,0.5337104079582612,0.20027979509794996,-0.14734870711610287,-0.393720076036512,-0.5397361398820376,-0.6200534653281276,-0.6620303615362627,-0.6864655230445116,-0.7110939191786002,-0.7408912807251469,-0.76888255509329,-0.7797181287790552,-0.7610092272032711,-0.7129353360774457,-0.6508391014796142,-0.5961354354310558,-0.5724014595467113,-0.5500959119142299,-0.4295286537763193,-0.21220427282840912,0.0442774538112544,0.3092217706082987,0.5349254043509062,0.6863301770384619,0.7650620361670417,0.7655519511421042,0.5953074658229472,0.12131676233403935,-0.22656267866563534,-0.2968994617379599,-0.2477116369823731,-0.16903564297250862,-0.11730533296837341,-0.14467915925363378,-0.34424852301267994,-0.6521236978524522,-0.7530863283220978,-0.6830696772282575,-0.37531901912661236,0.028445531541662277,0.2977336121528222,0.42660498877305797,0.4541079989780743,0.39635247220519887,0.2335861963649781,-0.10024718730907807,-0.521892068684584,-0.741578476243372,-0.7916608421492164,-0.7745167243601562,-0.7048571951168269,-0.5482988334991079,-0.3282029239494888,-0.19123459613895932,-0.22002027568793942,-0.3902226024767127,-0.6191757659706985,-0.791861180743612,-0.8454134954653144,-0.6939252091887936,0.0723694751386219,0.7817423394885,0.9288711898467272,0.9430310610544642,0.8658031991719177,0.39986859587364565,-0.4931145955946169,-0.8101097334966824,-0.9029346713092842,-0.9405546486055368,-0.9573464430457977,-0.9571034731418985,-0.9150967615763465,-0.6250040490749588,0.38428734790202046,0.7884945367058489,0.8430348824268824,0.7301404749561246,-0.04447273750428245,-0.7789334315816323,-0.8904451549792136,-0.8819195464189551,-0.7277389481382269,0.14169236417861866,0.781338157070408,0.8851547283063397,0.8978713958974722,0.8718145884501007,0.783928776595713,0.5069887626590134,-0.16512246609254871,-0.6592059597771712,-0.8131785898828813,-0.8508574906458262,-0.8231234861535583,-0.6801737961793839,-0.3684904828319907,-0.09349502719985553,-0.00014921072964403415,-0.02850147584005396,-0.10172395374819004,-0.14554590687219632,-0.10888731607105309,0.04205427623174937,0.30591802261773593,0.5410064414528442,0.6656917970460223,0.7612748035608182,0.8494694756196113,0.9151081893382734,0.9553428611663078,0.9760665535439054,0.9845404669639861,0.9851572185087032,0.9815480094064841,0.9754115389863023,0.9683192098463106,0.9600907419166927,0.9524978451138028,0.949456592154964,0.9515978904585785,0.9554153596275013,0.9569040280415149,0.9516235652010084,0.9327111984614832,0.8709100705843504,0.5937567831547055,-0.2364999192462979,-0.661061085458455,-0.769540325893032,-0.8034661996919469,-0.8066662670303715,-0.7851415137638073,-0.7260038392220091,-0.5755022214299857,-0.19950408008104703,0.31069375659227993,0.49938047588187323,0.31554525965542934,-0.23885690752488384,-0.6919390965028233,-0.8616009002719105,-0.9217541006132048,-0.945879612570934,-0.9564375975725302,-0.9599308923701882,-0.9527252654816101,-0.898698378517822,-0.3918569331732841,0.6300860171826174,0.8192387418376162,0.8558311419587604,0.8629708106055989,0.8626865050896227,0.8638251620501286,0.8680551779179947,0.8752698886845847,0.8898912916697947,0.9111075906559497,0.9143645627517474,0.8866275773780399,0.844848886651163,0.8022855413825645,0.7587380500099674,0.7110052721186396,0.6501634357099337,0.5506510306182636,0.3594100629243872,-0.009893958352850108,-0.5317361575222115,-0.8589008625837576,-0.9557092913873674,-0.9759102437335075,-0.9766741872789168,-0.9718325014491894,-0.962930591809723,-0.9475318336669725,-0.9177070129314131,-0.8477463581840887,-0.65602866890229,-0.2467590260150242,0.09204655404694642,0.17478782017712835,0.14145985111816822,0.08450945378253316,0.048765399700417066,0.05808893342875875,0.11878587245201086,0.22510296553809886,0.3668379303028161,0.5150786830984289,0.5617705627770039,0.32370572745966947,0.09093361171898835,-0.0050835281330467354,-0.011580005813336873,0.019456212039743563,0.05450144622638427,0.08573942816681857,0.11893518788984682,0.16543251273128015,0.22905483928370368,0.3044922071221944,0.3789496251103665,0.44123202905621056,0.47818008352381414,0.4728553783465605,0.3903860133034516,0.13195589603370114,-0.4019544496551317,-0.7836387354447613,-0.8943830073836364,-0.926275622379349,-0.9331977257204814,-0.9235767495233423,-0.9004886751144346,-0.873155992412461,-0.8556632306285346,-0.8535404117183679,-0.8590028038831407,-0.8570227851528073,-0.830263367853072,-0.7411732110287849,-0.5420146107046094,-0.2898852382582804,-0.1281873475103958,-0.07101103894128608,-0.06342217566397367,-0.051860671215124575,-0.02078359652469855,-0.009561595970728405,-0.08481625193397255,-0.1575545198034997,-0.19801382615941662,-0.19816687752020876,-0.1185067032040678,0.2085534612805689,0.7285976273262936,0.8090169238111642,0.8126152483034822,0.7605479846863652,0.299585111737479,-0.13269373517712732,-0.3053711867462152,-0.38212109906068537,-0.4070997701774685,-0.37420626594399004,-0.2386285952296129,0.022331030239898023,0.31741420587207836,0.5526467979683521,0.713461167903786,0.8153145958973875,0.8761996064233418,0.9103457836015715,0.9282123697095231,0.934326148485542,0.9274799704450448,0.899677904744104,0.8267889301138451,0.6474926139441719,0.2840625785501573,-0.027095738080599542,-0.10179751021090067,-0.07876470389766592,-0.027059022597713124,0.03578341828327292,0.09893083527252114,0.1493789732564266,0.1765663118560378,0.17073584595592378,0.10968609521263799,0.0172714104795257,-0.05071680941444745,-0.042279836623938666,0.08253080094799856,0.34909496335744483,0.645248989134116,0.7978980275996849,0.8275773357372334,0.8272235475802787,0.8398666353838469,0.8709686183208537,0.8937216244031058,0.8596561200888171,0.6830380097602572,0.14567456418847724,-0.5549755045514233,-0.829172500521813,-0.8974023399267544,-0.8958310938453177,-0.8494019354538725,-0.7491435477672383,-0.5844566811813349,-0.37964110002460927,-0.1608599298567396,0.14176897995076584,0.6232351567019594,0.7999874293704559,0.7298707613021099,0.6959789518574253,0.7301209239110383,0.80423277551143,0.8541577525398353,0.856531245741504,0.8460598730343752,0.8455381398069616,0.8595126336208954,0.883409122540736,0.905296339558129,0.9167901668322407,0.9083915771544296,0.8557914387196355,0.6315576355800943,-0.13479080293716691,-0.7324026642589571,-0.8992085783303579,-0.9581768437542092,-0.9827413090649937,-0.9799109361693213,-0.9482812282973524,-0.9033431820859045,-0.8732009629255351,-0.8712800420595089,-0.8858304670876358,-0.8963196027619706,-0.8945011249548865,-0.8759840931269268,-0.8379815186253207,-0.7738401641470711,-0.6678910663365012,-0.5082683105402267,-0.3398821237892785,-0.2542167839424062,-0.2666643820689424,-0.3501421414285362,-0.47699485796243335,-0.6152613252084991,-0.7327566381874182,-0.8181913044330237,-0.8688559920743633,-0.8805259782824506,-0.8498276002100801,-0.7960558778730709,-0.7747744599209838,-0.8190622979817975,-0.8847366170310248,-0.9011105453546638,-0.7498290322972688,-0.06286772954929526,0.41457925281564606,0.5405412811566626,0.5659757870730527,0.5426841040432849,0.4762333088221948,0.37519393086512115,0.3182562367326167,0.41391523395846563,0.6501100204273393,0.8520288803613061,0.937924519557961,0.9626484760208541,0.9702601287550194,0.9699779961587437,0.9544487823340048,0.9114840789538811,0.8424766738209213,0.7702314168680252,0.736634961889087,0.7489931051305178,0.7718391768489703,0.7647080346513454,0.7140630079453315,0.6082024131830012,0.42485173934212844,0.17865910512650776,-0.03623794504767974,-0.15957670172910748,-0.2050585227769618,-0.21587185615492527,-0.23993378967910753,-0.3290756641399724,-0.4928094106249647,-0.6472646512451412,-0.7154663187183203,-0.6665946173008255,-0.38952893121564736,0.22488259409842226,0.6502914388691476,0.8046095694821296,0.8569242343464704,0.8693783478921614,0.8535378415136231,0.8118908537756953,0.7565041701738977,0.7146528880822143,0.7062715358260121,0.718016015093395,0.7059476968314505,0.6426268150774465,0.5438927163116497,0.4371407627563184,0.3343685758853626,0.24151966885689796,0.17060770338392328,0.1444798440349847,0.1497019441404346,0.14514391498408888,0.10573326658888407,0.024669680123067396,-0.10137669646988215,-0.24834730143208442,-0.3841419123238914,-0.5006988464746276,-0.5982309747730626,-0.6782664228015705,-0.7428450201719489,-0.793649833617917,-0.8162975796043501,-0.7429206845580532,-0.2178538542734005,0.5974802396042825,0.7926397976286721,0.7474467861388104,-0.3197133155370594,-0.9504081963215575,-0.9714990904208497,-0.9712902130062252,-0.9695260783736643,-0.9688069516306779,-0.9689015723982473,-0.9680924936088297,-0.9651231713787638,-0.9639902072465523,-0.9674721260124575,-0.9675354416293324,-0.9517139741282924,-0.9019081856850905,-0.7818066847195613,-0.5449612322164766,-0.25990532692765717,-0.10585278299223605,-0.12107815775281036,-0.23341393293950788,-0.35476116404140234,-0.42788826893622006,-0.4129845354255382,-0.27716191577686544,0.009240440700990598,0.34159855891753016,0.5681138160039113,0.6913335191647535,0.7647070017540639,0.8185165900315178,0.8625902796491688,0.8974194452049948,0.9221148433896525,0.9392445523841493,0.9517401459610835,0.9622597404097235,0.9711043006872492,0.9770216766954435,0.979273845001422,0.9783432036309774,0.9756926308788914,0.9714223300674634,0.9643752000925209,0.9502984940673106,0.9275030395518267,0.8970703593233451,0.8644000145702933,0.8354057295173991,0.8027744717449422,0.7381630448199568,0.582276412385126,0.315946962436019,0.1263999214658496,0.23666461647347056,0.49188217645483373,0.6342579783449444,0.6673164330976165,0.6269641668865862,0.5084171573226325,0.2684262474820553,-0.09299895910969229,-0.39903114810751644,-0.5302360880357699,-0.5237453984856083,-0.4044081269488758,-0.1577531692158876,0.16816792638536646,0.4040816769300309,0.4140278942772255,-0.07544383178373924,-0.797585979551097,-0.9470928022995808,-0.9726101825504476,-0.9766718073786703,-0.9741689927675699,-0.9668840294416478,-0.9521305918933174,-0.9168307408484869,-0.8204498648058535,-0.5860771695916173,-0.22799215081808408,0.05634917269075863,0.15554363515606756,0.08317696107231791,-0.10243932300348134,-0.27936270148753456,-0.36290392533688665,-0.3390522832024006,-0.22674335413832394,-0.04042533798343558,0.1684014232665302,0.31459573786461836,0.3116949069368084,0.1809546669947352,-0.040205781913436135,-0.3282431007525772,-0.5679156055217032,-0.6788359036824518,-0.689611076508832,-0.5803838278356455,-0.3001239458901125,0.008915704264979426,0.1971013075174848,0.28282425831484853,0.30140458823210753,0.2691676757943664,0.18712032674540777,0.0650945496383846,-0.095744996640019,-0.29603721473295036,-0.5069536144090181,-0.6785176256978531,-0.7893946191718275,-0.8558118026670031,-0.900029368221624,-0.9359441133387566,-0.9602328107730317,-0.9680009508895118,-0.9612765863926503,-0.9360744365275208,-0.8438823563427651,-0.26346550434416116,0.6868409984624689,0.8779275161648921,0.9330658026432854,0.9573441284094418,0.9381202773594086,0.8531065712885573,0.7588890262454102,0.7410927215782511,0.8032651004285614,0.8818109573763375,0.9302753838795595,0.9503287569140586,0.9495361673570896,0.9203565864324652,0.8307817463661923,0.6545640864916925,0.466828706291248,0.36497056610763406,0.3764331114446634,0.48872209436199104,0.6492018422040734,0.7796482707940944,0.8524687178779871,0.884241476427179,0.8844230156560731,0.832764074784911,0.6241196574965534,0.09409339039992015,-0.3587169632016158,-0.5413856886367661,-0.6221817174069243,-0.6735452280093034,-0.6461335673792981,-0.48321434246806794,-0.3497536897289317,-0.28900673183499004,-0.2621401376472362,-0.25872705781096195,-0.29388756592677107,-0.3655083437610915,-0.4717861821615028,-0.6265887755209185,-0.7993862918119334,-0.9152052674381758,-0.965036564254348,-0.9811883517187325,-0.9840907327952733,-0.9797853225154116,-0.9645992697845622,-0.9242538233722171,-0.8512975414282358,-0.7964425542935227,-0.7940237664693833,-0.8125252403010474,-0.8224414810082442,-0.8105024517056619,-0.7590294084074564,-0.6303905442307265,-0.3677830969205954,-0.007483237778728622,0.27503416007887377,0.43674914713748786,0.5154955849672366,0.5287219801996097,0.4719883882806676,0.3339333471848298,0.1405123614030836,-0.01659367895061636,-0.05883730183503665,0.013312131797011023,0.11799935661164146,0.17913595358779144,0.19543181654128844,0.18191197443736812,0.14926914678169684,0.10702037760162027,0.06717620286751264,0.04306895405799459,0.051026716353361264,0.11586872619322225,0.2997203270127627,0.3558549159420904,0.33614432467727345,0.3921919382863385,0.5121734945907687,0.6534625385939208,0.7570543240823259,0.8110522800457984,0.8441452340370854,0.8752329512749154,0.9044111348680204,0.9226172066311062,0.9186594908408098,0.8737978838000567,0.7482093407786115,0.5235823144061055,0.3195433968403746,0.24091553203070243,0.25528481321942376,0.29106525315826676,0.3008577013546337,0.27420615416443295,0.21812550636313657,0.14620766391823053,0.07139721639035958,0.005779494816004747,-0.047587612339778186,-0.08290868294859438,-0.0885288947948719,-0.06442834915011174,-0.02120019874873988,0.024914877545789246,0.05747872569270339,0.062237506928957714,0.026723940584180084,-0.0514320895272128,-0.1623808669939391,-0.3120548510015176,-0.49235204761855006,-0.6682493975179364,-0.8010494793391381,-0.881444106389686,-0.9214461957798152,-0.9323480499597401,-0.9159325789658387,-0.8565502422792961,-0.7426206528979908,-0.6106745781707428,-0.5266605800539885,-0.5055969008507566,-0.5245211941636114,-0.5563304716298997,-0.5829840544793079,-0.5728476976939061,-0.4944572429890348,-0.34902647737987735,-0.17743522293574088,0.013639261640873342,0.24607786408814633,0.504030326688306,0.6543201173581982,0.5867656573460487,0.43511752264530035,0.32246239412920613,0.28428691996374117,0.32464150548593207,0.4285448401207703,0.5394965777766006,0.5919409794779356,0.5709395125890312,0.4885382558793338,0.3591285448270027,0.24252340751617896,0.20506000862893842,0.2630529235024418,0.37099992784352837,0.4797686640636677,0.5431051932259815,0.556232235175083,0.5487835193156716,0.5661086099378342,0.640289929035906,0.7582170147340463,0.8672943614670787,0.9294055778577845,0.932805625914083,0.9112179694415685,0.904228504227119,0.9061390205844699,0.8947125144274564,0.8359852019989041,0.613484085384941,-0.029158293905045558,-0.5779514842157685,-0.7648395622488252,-0.8339513068064964,-0.8720679164111824,-0.9024856880624209,-0.929014180951618,-0.947956664473975,-0.957950333293976,-0.9597914343597682,-0.950593564282358,-0.8917307633995454,0.1336466945302159,0.8894517270872709,0.9225241796055426,0.9057760775326029,0.8583497233601078,0.7632993618018035,0.5924028454331334,0.335221592401462,0.01463128157231255,-0.304847642699779,-0.539737249749366,-0.6739888031027267,-0.7596551392021684,-0.8270329579575161,-0.8819874936788,-0.9136859839791377,-0.9260140632509355,-0.9385948837461541,-0.9552694817998111,-0.9671209144960686,-0.9704411174147224,-0.9663745195056757,-0.9492519505794845,-0.896697906482321,-0.8083453662013127,-0.7477432786549447,-0.759077266450865,-0.8404048494798498,-0.9284762820892607,-0.9735824065828076,-0.9764134756731772,-0.9522659967991663,-0.9088470396914069,-0.8442540573994272,-0.7398238026644315,-0.5532074231990164,-0.2565215838559459,0.056263844899857945,0.26925798074525503,0.38853565411834917,0.4422352140559529,0.43927915870474815,0.38405695659973,0.29503856726822014,0.19410878639958504,0.11021188604948703,0.08123512762334455,0.15125456759238895,0.3288831161382455,0.5419988703067276,0.6512459002234104,0.6536747334223986,0.6317957700230011,0.6135664809833767,0.5998361074057299,0.5836880427361891,0.558716892209309,0.5254327068529261,0.48922630825418106,0.45353742005785186,0.4158030932949435,0.377031746187112,0.34301398348735485,0.3343064126044364,0.3679973360731046,0.44918189362844757,0.5569847252541927,0.671388241583799,0.776937596045215,0.8573467933057648,0.9103044376262474,0.939688004098199,0.9541732553824179,0.9606856731665768,0.9614642334295362,0.9551079610492107,0.9363662506618973,0.8918766607151233,0.7914170654867946,0.6188830976634879,0.4853204796926399,0.504627563931846,0.6203075888750919,0.7447495693083461,0.830377467225027,0.876612472570791,0.8962689467118392,0.8834568222464312,0.6598929020844705,-0.6955490913457034,-0.9018112238028464,-0.9131603523818101,-0.893015883612828,-0.858136183673905,-0.8237592919724415,-0.8033710328889302,-0.7975127687588683,-0.7957188208327806,-0.7871911042393508,-0.7587450342413528,-0.6894125867703996,-0.5546103873673417,-0.35353774057756965,-0.16221456203189705,-0.06977077039474514,-0.07224423805338447,-0.13969610243332217,-0.2728525763943248,-0.48200669784949646,-0.7320916044725241,-0.8961419576008407,-0.9236602745146543,-0.8998854458118074,-0.8775029466678483,-0.8689802766228841,-0.8724901289615501,-0.8728962842579762,-0.8539141942891527,-0.8063566599194928,-0.7283004045612623,-0.6135797270938672,-0.44453213586406876,-0.1748740814870942,0.23850602766463613,0.6366420928516926,0.8342374498471786,0.8995783416238069,0.9133632662092603,0.9055910124377031,0.8913365703252988,0.8878689176685981,0.903521915296751,0.9268278622702678,0.9440772808285254,0.9538660491911698,0.9598178361565893,0.9662462691651933,0.9749584650324346,0.9847736465509701,0.991909996308921,0.9915326709013154,0.9804956422932545,0.9556513844950882,0.9080278878877457,0.788375729590439,0.3265689978109978,-0.6183736266604212,-0.9013153814393053,-0.9522371340165281,-0.9633117198309229,-0.963526132708098,-0.9585397891319849,-0.9465757423728574,-0.9163328186768738,-0.8242552154433773,-0.4675150838092084,0.328116728140739,0.706942779455482,0.7884419639102408,0.7594392127587534,0.6048932059832918,0.19837987658553907,-0.3470214651526756,-0.6726057344581234,-0.8198407437109958,-0.8864650191450106,-0.9162953607004948,-0.9312911830572931,-0.9422341289322552,-0.952775292806593,-0.9628059570114931,-0.9711047340072065,-0.9759378810590018,-0.9759509441926487,-0.969801670622147,-0.9541925141677735,-0.9217556191323066,-0.8589500185145114,-0.752118961031784,-0.6002858233891412,-0.40311568045851665,-0.09520340299382708,0.37941510012170226,0.7666312194938323,0.9074736839460709,0.9372798020353337,0.9307035812233164
