0.00925677151932034,0.010498290571545034,0.012757625705012722,0.017276295971948092,0.02443458400044499,0.0333824474867814,0.04272178082018992,0.05039457740022803,0.05449941028356537,0.05370529027187349,0.048470789821802314,0.04047363290570049,0.03211856089803078,0.02483724106649535,0.018976387480822695,0.013943215563776697,0.009368623004811191,0.004861136506138787,0.00027535769439530314,-0.004634780625240217,-0.009701506607647355,-0.014332021458642992,-0.017844055961883046,-0.019745476003782833,-0.019991546511290467,-0.01880594975109591,-0.016658466103119073,-0.01369448800549384,-0.010339040060796507,-0.007028334090581631,-0.0036393313903801024,0.0006780113787446771,0.006303978570244193,0.012701696511552002,0.018540182560698726,0.022566718714049406,0.024199700711915614,0.023819418083821774,0.022667382980561996,0.02196274001640445,0.021951552797426187,0.022197623304933828,0.022164061647999046,0.021190980639807924,0.018719136655767382,0.014804445086476966,0.009704163658422573,0.0036419905115844978,-0.003359710958369678,-0.011155534510444905,-0.01901846550309935,-0.025572767932520703,-0.029655233279332106,-0.03048290804652818,-0.028066986354517768,-0.02333580723700954,-0.017888797936365504,-0.013269463402917544,-0.010092976454719455,-0.008292220679332262,-0.0069388570430473015,-0.005194022179404126,-0.0022859670639520844,0.002232701822697171,0.008127103952586498,0.014815632305455228,0.02171666950889681,0.02812557950018429,0.033035719614191765,0.035261499992155255,0.03433316095844659,0.03053031397321644,0.024602357777965975,0.017690133355546128,0.010867385980660614,0.004581516074128362,-0.0010556366109917682,-0.00605525377253357,-0.010260750232240438,-0.013481979154920984,-0.01593145560243559,-0.018380932049950196,-0.021221878344536902,-0.024129927248701416,-0.02634452730911723,-0.02740708536484268,-0.027082718127348387,-0.02537144630092611,-0.022765383294868782,-0.01976785044173935,-0.01708349070569537,-0.01553998575536349,-0.015841971653470677,-0.01821315827242921,-0.021803489505655922,-0.02537144630092611,-0.0279886965259617,-0.028894661121713842,-0.02808936079247429,-0.025807651221050082,-0.022597609517347798,-0.01869410516703564,-0.014343208677621254,-0.010137711527771327,-0.006390798567003303,-0.003326156202865481,-0.0006865373370750617,0.0016175365962170128,0.0037202837908558587,0.005509856488123142,0.0066730781202181235,0.007433648207407211,0.007959330175065513,0.008026439686073908,0.0065276753299383684,0.0025570621587608774,-0.003303786595910369,-0.009511365293600435,-0.014421505407607907,-0.01704993595019117,-0.017653914647836128,-0.01670320807760153,-0.013951738830549152,-0.009019231180015744,-0.0022859670639520844,0.004738103322814144,0.010733173860074411,0.014938664108493753,0.017555914333529342,0.01943496683890319,0.0214258639283373,0.023964824324816822,0.026973544396924513,0.030194773319605055,0.03296861010318337,0.03456803734554538,0.03433316095844659,0.031369175959390774,0.025027382380542272,0.015318946736587591,0.0033288153240698757,-0.008728425599456234,-0.018481596316462786,-0.024364810537230792,-0.026154385995070313,-0.02474509316532463,-0.021389645220627303,-0.017273632019742288,-0.012945103066853836,-0.008538284285409314,-0.004232127009905149,-0.0003845470220523018,0.002948530625546861,0.0060355425966397945,0.009581131855384048,0.014849187060959423,0.022768047247074583,0.032867945836670784,0.04345997853985166,0.05267628697165224,0.05954377632102021,0.06344728067133237,0.06387230527390866,0.06086358520180098,0.05525998244118364,0.0482470937522512,0.040574297172213086,0.03247647598959868,0.0239760046423645,0.015307766419039916,0.00684085051745299,-0.0006753524645832001,-0.006726342671329978,-0.011233831240431558,-0.014510982455142237,-0.01670320807760153,-0.017933533009417378,-0.01859344090052305,-0.019007278284121087,-0.019264529109176403,-0.01945467042322332,-0.01951059961668404,-0.01899609796657341,-0.017732211377822785,-0.015663017558402017,-0.013493159472468659,-0.011916099766632583,-0.011211456802475036,-0.011166714827992578,-0.011423972554478478,-0.011412785335500216,-0.010909464002937267,-0.01031667252427057,-0.009768616118655747,-0.009086340691024137,-0.008515916748883379,-0.0086725033074261,-0.010450891546287358,-0.014030035560535807,-0.018895433700060825,-0.023950973153632756,-0.02767551650744567,-0.029062434899234827,-0.028201205376534554,-0.025997792535097004,-0.02381675413161597,-0.022675906247334454,-0.02255286754286534,-0.02275419607589052,-0.022295616717810027,-0.02052841569792703,-0.01724007726423809,-0.012374679124713078,-0.0065809405711932814,-0.0011674846457673266,0.002702464949040633,0.004592700532534389,0.00517431100351035,0.005498672029717115,0.005990803382729571,0.00655004493689348,0.006941514093822522,0.006863220124408102,0.006315163718793278,0.004984169689463431,0.0027807589184550524,-0.0003845470220523018,-0.004567671804374882,-0.009544920049104632,-0.014555717528194108,-0.01849277663401046,-0.020371829139384307,-0.019924437000282076,-0.01741903826073734,-0.013582643421433574,-0.008985676424511549,-0.0036281462418310175,0.002724834555995744,0.009983788921434408,0.018003306472631573,0.026324823724797098,0.033964058647900426,0.03945580992302692,0.04202831817358005,0.042162544097027424,0.04112235357782791,0.04035060110266197,0.04064140668322148,0.042128989341523225,0.044455433985999306,0.04646870551338994,0.04662529207193267,0.044343582500508454,0.039802537795616565,0.03378510455283176,0.02706302144445884,0.02012842948551306,0.013283307672671022,0.006796111303542767,0.0007563050030875679,-0.004299235830770484,-0.008034969854276949,-0.010797619418877,-0.013056954552344686,-0.01523799295582572,-0.017430218578285014,-0.01949941239770578,-0.021434387195109757,-0.023100923948480165,-0.023973340690158693,-0.02367135479205151,-0.021915334089716187,-0.0188730592621043,-0.01555117297434175,-0.013012212577862229,-0.011703590916059728,-0.011647668624029594,-0.012318756832682944,-0.012799703727289374,-0.012430601416743209,-0.011166714827992578,-0.009556100366652307,-0.007990227879794492,-0.0067151582129239525,-0.00618947141426424,-0.006659234540607702,-0.008627761332943644,-0.01167003616055553,-0.014510982455142237,-0.016009745430991658,-0.015372211977842505,-0.012374679124713078,-0.007643500007204849,-0.0022412278500418613,0.0022886261851564793,0.005330898942339191,0.007277061648864489,0.00878701184369217,0.009939046946951951,0.01080027646965222,0.01197468601086852,0.01401032507478509,0.017142076949931306,0.02151534097587163,0.026526145356391695,0.031100744816787786,0.03400880062238289,0.03424368391091226,0.03164880122240261,0.02672747388941687,0.0205422668691111,0.014088621804771743,0.00789222066405712,0.002109669329515586,-0.003303786595910369,-0.007934305587764359,-0.011748332890542185,-0.015271547711329917,-0.019052020258603544,-0.022798938050372978,-0.025595142370477227,-0.026724809937211068,-0.02576291614799821,-0.023100923948480165,-0.019678373394205022,-0.016725575614127464,-0.014980742130770407,-0.014723491305715092,-0.01522680573684746,-0.015752494605936345,-0.015674204777380275,-0.014924819838740272,-0.0137056752244721,-0.012676671924250846,-0.011703590916059728,-0.010126531210223652,-0.0069388570430473015,-0.0016372477721107882,0.00527497527002294,0.012041795521876912,0.016761794321837466,0.019121793721817743,0.020631743916645427,0.02320425216719856,0.02798018016061983,0.03450093473596757,0.041223017844340494,0.04623382222486056,0.04859382162484084,0.048034578000247755,0.0448804585885756,0.039612403383000226,0.03278965600811471,0.02521752369458919,0.017600656308011803,0.010352884330549986,0.0034630329658005454,-0.0035274826654614856,-0.01108842499943651,-0.019633631419722564,-0.028794003756631836,-0.036970107866371726,-0.04250659421455009,-0.04390469982531751,-0.040907160070757495,-0.03437522517786207,-0.025695806636989817,-0.01598737789446572,-0.006044068623984485,0.003619620214486327,0.01285828997152531,0.020877807522722478,0.02676102864492107,0.029926335275571484,0.030127663808596664,0.027118943736488973,0.021347574099781233,0.013864918833790043,0.006292794111838166,0.00019706393202380062,-0.0035610374209656824,-0.005059804537673456,-0.005328239821134795,-0.005585490646190109,-0.006413168173958415,-0.0076994222992349814,-0.0090975279100024,-0.010339040060796507,-0.011043683024954053,-0.011334488605513563,-0.011737145671563923,-0.012754961752806916,-0.014164254582552594,-0.015830791335922998,-0.017452586114810948,-0.01871647270356158,-0.01949941239770578,-0.01976785044173935,-0.01939874813119319,-0.018347377294445997,-0.017061123169169433,-0.016177519208512642,-0.01609922247852599,-0.017251264483216355,-0.019432302886697384,-0.021881779334211992,-0.023559503306560654,-0.023604245281043112,-0.022049553111732973,-0.019286896645702337,-0.015797236580418803,-0.012072686325175306,-0.008336955752384134,-0.004467008228005351,-0.0004404711774686926,0.0036531749699905236,0.0075343124739198014,0.010755541396600348,0.012813547997042854,0.013551745716704595,0.013059611603119907,0.01157202894481816,0.009435732515819584,0.0070757331158393085,0.004883506113093898,0.0031274881713308123,0.002020190211552081,0.0020090057531460545,0.003362369389431014,0.005666443736808923,0.00785867280998351,0.00838435477764181,0.006471751657622119,0.0027807589184550524,-0.0013128874360470815,-0.004299235830770484,-0.005059804537673456,-0.003818288246020996,-0.0013799962569124163,0.001203698522475918,0.003038009743510366,0.003910425795045837,0.004212416524154432,0.004413743676893495,0.004670994501948809,0.005017723754824568,0.0055881497673945036,0.006751372089632543,0.008731089551662038,0.011091082050211731,0.01341752669468781,0.01563212675510362,0.017656578600041932,0.019278380280360465,0.020296196361603458,0.020575814723184708,0.020486337675650376,0.020352125555064174,0.020038945536548145,0.019244825524856266,0.01794738418060144,0.01619136347826612,0.0139096608082725,0.011236488291206777,0.008350800022137615,0.005722368099268231,0.003552511393620992,0.002243886971246256,0.0019866361461909426,0.002948530625546861,0.00506246365887785,0.007746821324492658,0.010207484990985524,0.012187194861441377,0.013562932935682857,0.014166911633327813,0.013585300472208794,0.01110226926918999,0.0066283395964509585,0.0010023713697368546,-0.004265681765409346,-0.008169181974863151,-0.010193640721232045,-0.010092976454719455,-0.008124446901811277,-0.005529566973873859,-0.004142648582084702,-0.005070988996079482,-0.008404065263392527,-0.012710226679755044,-0.016378847741537823,-0.018481596316462786,-0.018325009757920063,-0.015808423799397064,-0.011200269583496777,-0.004936770664205754,0.0025682473073099627,0.010106820724472936,0.016090706113184118,0.01961392093397185,0.02020671931406913,0.017958571399579706,0.013059611603119907,0.00625923935633397,-0.0014023658638675281,-0.008515916748883379,-0.014153067363574332,-0.017844055961883046,-0.01947704486117984,-0.019286896645702337,-0.017318373994224746,-0.013593823738981249,-0.008650135770900166,-0.0034044494821368425,0.0009352625488715197,0.003552511393620992,0.005084832575689904,0.006907959338318325,0.010296962038519854,0.01629202774477871,0.025060937136046468,0.03589903344530441,0.04734112225506847,0.0576870913521723,0.06492368301208644,0.0675185657005961,0.06518093383714176,0.059062829426413783,0.05060709315223147,0.041234198161888176,0.031626426784446084,0.021951552797426187,0.012231936835923834,0.002948530625546861,-0.005227576244765263,-0.012318756832682944,-0.018772401897022294,-0.025315517107465393,-0.0318474589017914,-0.03724972622795297,-0.040180149570074014,-0.04016896925252634,-0.03775304756051592,-0.03406205206077663,-0.030136180173938536,-0.026187933849143922,-0.022441022958805075,-0.019197419598168005,-0.016837427099618316,-0.015383399196820767,-0.014589272283698307,-0.014153067363574332,-0.0140971450715442,-0.014231357192130402,-0.014634014258180762,-0.015293915247855852,-0.015607095266371884,-0.015081406397282995,-0.01407477063358768,-0.013314205377400001,-0.013336572913925936,-0.013996480805031611,-0.01524918017480398,-0.016859794636144253,-0.018571073363997114,-0.020025101266794666,-0.020886330789494933,-0.021333722928597167,-0.021177136370054445,-0.02019287504431565,-0.018582260582975376,-0.01670320807760153,-0.014600459502676567,-0.012486530610203928,-0.01031667252427057,-0.008426439701349049,-0.00739742949969721,-0.007296772134615206,-0.007721789835760917,-0.0077106095182132425,-0.006614495326697478,-0.004064354612670283,-0.0006977222095669234,0.002322180940660676,0.004111752947784901,0.004279525345019767,0.0034630329658005454,0.002836682590771302,0.0034071086033412375,0.005006538606275483,0.006784926154993681,0.007623789521454131,0.006919146557296586,0.004950614933959234,0.0025570621587608774,0.0005437935299710897,-0.0008990493623059867,-0.0017043565929761233,-0.0017267261999312348,-0.0007760161789813435,0.001203698522475918,0.0037985777602702786,0.006147391321558412,0.007702079350010201,0.008272510193581545,0.007914595102013642,0.006717817334128347,0.005006538606275483,0.0030603793504654776,0.001818863748956076,0.0018300482073621027,0.0028590528878694723,0.004212416524154432,0.005230235365969659,0.005733552557674259,0.00575592216462937,0.0057447377062233435,0.0056217045228987,0.005431561828565664,0.004928245327004122,0.0038097622186763053,0.002501137796301569,0.001807678600406991,0.002389289761526011,0.004067013733874678,0.006729002482677431,0.010073265968968738,0.013585300472208794,0.016459801522299696,0.01757828187005528,0.01629202774477871,0.013026063749046295,0.009055449887725744,0.005521041636672227,0.0034965877213047423,0.0033847389963861255,0.004503222104713942,0.005990803382729571,0.0070869134333869845,0.007679711813484265,0.008127103952586498,0.008798192161239848,0.009659428585370701,0.010576580400101102,0.011426629605253699,0.012276678810406292,0.012958954238037902,0.0131267211141283,0.011997053547394457,0.009200849227290208,0.005096017724238989,0.0008234138239529029,-0.0025767726445115944,-0.004030799857166085,-0.0032814169889552576,-0.0012345934666326615,0.0008234138239529029,0.002076114574011389,0.002299811333705564,0.002020190211552081,0.0017964941420009644,0.0017405697795416562,0.0015168730198474808,0.0006444568992977038,-0.0012010394012715233,-0.0035162982070554593,-0.00512691335853879,-0.005093358603034594,-0.0033485258098205927,-0.0006865373370750617,0.0019307117837316342,0.003876871729684699,0.005207865759014547,0.00641582729516281,0.00789222066405712,0.009860757118395883,0.011952318474342584,0.01352937818017866,0.01440179492185719,0.014826819524433486,0.01546435297758264,0.016750607102859204,0.01907705174733529,0.02248842198406275,0.026336004042344777,0.029601974939507777,0.03142510515285149,0.03111192513433546,0.027957805722663306,0.02214169411147311,0.014536013943873976,0.006516490181389284,-0.0006865373370750617,-0.00618947141426424,-0.009578474804608827,-0.011300933850009366,-0.01184899025562419,-0.011345675824491823,-0.009690319388669094,-0.007632312788226589,-0.00618947141426424,-0.005909850292110757,-0.006334874204543995,-0.0067151582129239525,-0.0061335470518049315,-0.0036505165389291877,0.0010359261252410512,0.007511938035963281,0.014536013943873976,0.02018435177754319,0.02292463380561731,0.022197623304933828,0.018428331075207874,0.012679328975026067,0.0054427469771147485,-0.002912317438981328,-0.011938474204589104,-0.02074092454849989,-0.028066986354517768,-0.03252973432942301,-0.03345807336313167,-0.03135532478820671,-0.027809735529462455,-0.024566139070255975,-0.022698273783860388,-0.021915334089716187,-0.021434387195109757,-0.020651447500965557,-0.019253348791628728,-0.017217709727712156,-0.014790600816723487,-0.012598375194264193,-0.011245011557979233,-0.01107723778045825,-0.01215098305516196,-0.014421505407607907,-0.0175308828447976,-0.020573157672409487,-0.022798938050372978,-0.023839121668141908,-0.023760831839585838,-0.022877227878929048,-0.02131135539207123,-0.019085575014107743,-0.015998565113443983,-0.012039131569671109,-0.00707307606506409,-0.0008990493623059867,0.006303978570244193,0.013495823424674465,0.019088238966313547,0.021772591800926944,0.02123572261429038,0.018103970739144166,0.013585300472208794,0.008529761018636858,0.0033847389963861255,-0.0014471057679208098,-0.0053394242795408225,-0.008146814438337214,-0.009701506607647355,-0.010092976454719455,-0.00933240429710119,-0.008281033460354002,-0.007867196076755964,-0.008348142971362394,-0.008963308887985612,-0.008314588215858197,-0.005093358603034594,0.001203698522475918,0.010017343676938606,0.019960655707992075,0.029065105752871214,0.03507135867810833,0.036749082650456996,0.03434434127599427,0.029355911333430722,0.023595722014270657,0.018473073049690328,0.014424162458383126,0.011359520094245304,0.009234403982794404,0.007758008543470919,0.006751372089632543,0.005856585740998902,0.004771657388175282,0.0032728909616105673,0.0012931769502963644,-0.0009773426415773483,-0.003605776634875906,-0.006256580235129575,-0.008269846241375741,-0.009075153472045877,-0.009108708227550074,-0.008974496106963872,-0.009175817738558467,-0.009858093166190077,-0.01088709646641133,-0.011882545011128386,-0.01224046010269629,-0.011222644021453298,-0.00847117477440092,-0.004500562983509548,-0.00039573189454416343,0.0027807589184550524,0.004223600982560459,0.004111752947784901,0.0032728909616105673,0.0030827489574205887,0.004268340196470682,0.0067737416965876545,0.010162743016503066,0.013585300472208794,0.016280847427231036,0.01767894613656787,0.017410514993964878,0.01546435297758264,0.012131272569411242,0.007713266568988461,0.0024899533378955423,-0.003460373844596151,-0.009768616118655747,-0.015707759532884474,-0.020729744230952214,-0.02411874693115374,-0.02588594795103674,-0.026087276484061915,-0.024812202676333026,-0.022631164272851997,-0.020383009456931982,-0.018660550411531442,-0.017922352691869703,-0.018269080564459347,-0.01911912976961194,-0.01949941239770578,-0.018280267783437606,-0.01485771032773188,-0.00953373283012637,-0.0028675782250711045,0.004670994501948809,0.012668148657478392,0.020676478989697298,0.028024915233671698,0.03410946488889548,0.03842680662280567,0.04104405684784125,0.04202831817358005,0.04183818376096372,0.041032869628862996,0.040294671909201246,0.04082036077829014,0.04303495393727537,0.0462226350058823,0.04911951049392972,0.05047287413021469,0.049041213763943076,0.04457846578903783,0.03773335087762638,0.029792116253554695,0.02166074721686668,0.01402151229376335,0.007209952137856095,0.001203698522475918,-0.003986060643255862,-0.008728425599456234,-0.013079322088870624,-0.017295999556268225,-0.02114358161455025,-0.024342443000704858,-0.02671362271823281,-0.028212392595512815,-0.02865978473461505,-0.02833542439855134,-0.02740708536484268,-0.026187933849143922,-0.024991163672832273,-0.02374964462060758,-0.022485758031856946,-0.021210691125558644,-0.01984614027029542,-0.018380932049950196,-0.01704993595019117,-0.015774869043892865,-0.014242544411108662,-0.011893732230106646,-0.008236291485871544,-0.0034044494821368425,0.0017405697795416562,0.0061809460770626086,0.009390990541337126,0.011068714513685794,0.011381887630771241,0.010252220064037396,0.007746821324492658,0.004279525345019767,0.0002529880184258856,-0.004254496616860261,-0.009175817738558467,-0.014466240480659781,-0.019924437000282076,-0.025002343990379948,-0.029095989654739023,-0.03199285824135586,-0.033715324188186985,-0.034185083863815156,-0.03291001695751685,-0.029655233279332106,-0.024834570212858963,-0.01927571632815466,-0.013582643421433574,-0.008057337390802884,-0.003113644591720391,0.0009352625488715197,0.004592700532534389,0.008361987241115875,0.012779993241538655,0.01763420416208541,0.0222423583779857,0.02597808895077687,0.028449939836248,0.029713826424998625,0.030071741516566528,0.0293670916509784,0.02725316275850576,0.02400956629929928,0.02020671931406913,0.016314402182735235,0.01245563290547495,0.008518573799658598,0.004245970589515571,-3.7817437907873836e-05,-0.0038518430015251925,-0.006782267033789286,-0.008784347891486367,-0.010059421699215258,-0.01069695515236441,-0.010864728929885395,-0.01088709646641133,-0.011066057462910575,-0.011144347291466643,-0.01068576793338615,-0.009030418398994006,-0.005809187405884284,-0.0006641676611056442,0.006516490181389284,0.015195914933549066,0.02413259120090722,0.031939606802962116,0.03723002954506343,0.03952291943403531,0.03886301844436022,0.03567534427718387,0.03102244808680113,0.026302449286840578,0.022812782320126457,0.021403496391811366,0.0218173337754094,0.02239894493652842,0.021548895731375826,0.018249376980139214,0.012679328975026067,0.006001988531278657,-0.0004963952638707775,-0.005697339371108725,-0.00924292724956686,-0.011043683024954053,-0.011681223379533793,-0.011804255182572318,-0.012005576814166913,-0.012452975854699731,-0.013258283085369867,-0.014555717528194108,-0.016076854942000052,-0.017329561213203008,-0.017620359892331933,-0.01640121527806376,-0.013470791935942724,-0.009276482005071059,-0.004467008228005351,0.0001746942560543831,0.004022274519964454,0.006303978570244193,0.006829666059046963,0.006125021714603301,0.005219050907563632,0.00463744043658767,0.0038209473672253906,0.0017741245350458529,-0.0017379106583372613,-0.00616710111716607,-0.010450891546287358,-0.013806339490984691,-0.016009745430991658,-0.017497328089293405,-0.019096762233086,-0.02134491014757543,-0.024208223978688072,-0.026870209276775532,-0.027899212576996787,-0.026445184674199235,-0.022888415097907306,-0.018369744830971934,-0.014253731630086924,-0.011211456802475036,-0.009466623319117977,-0.008963308887985612,-0.009153450202032532,-0.009500178074622175,-0.009612029560113025,-0.009086340691024137,-0.007542835740692259,-0.004791368564069058,-0.0007648310304322583,0.004156492161695124,0.008999520694265028,0.01323857259961915,0.016269660208252778,0.017869087450614787,0.017846719914088854,0.016504543496782154,0.014647858527934243,0.012981321774563837,0.012075350277381111,0.011661512893783074,0.010442361378084316,0.007791563298975115,0.004067013733874678,0.0007786746100426796,-0.0008878642137569016,-0.0005746890952565859,0.0014721338059372577,0.004603884990940415,0.007813930835501052,0.010375258768506508,0.0121760145438937,0.013540565399156922,0.014804445086476966,0.015922932335663133,0.016314402182735235,0.015509094952065096,0.013495823424674465,0.010755541396600348,0.007791563298975115,0.00540919291175361,0.003999904913009342,0.0034630329658005454,0.0033288153240698757,0.0028478677393203875,0.0014050249850719226,-0.0010444514624426832,-0.0038965822154354156,-0.0063236890559949105,-0.008158001657315474,-0.009612029560113025,-0.010585110568304143,-0.010618665323808342,-0.009779796436203423,-0.008549471504387575,-0.007240842941154488,-0.006099992986443794,-0.005261130310126402,-0.004668335380744414,-0.004288051372364457,-0.004220941861356064,-0.004411083865546042,-0.004489377834960463,-0.004109093826580506,-0.003314971054316396,-0.002420185395825813,-0.0017826505623905432,-0.0015030294402370598,-0.0013128874360470815,-0.0008095702443424816,0.00023061834245646808,0.0016399062031721243,0.002870237346275499,0.0038209473672253906,0.004570330235436218,0.00517431100351035,0.005677628195214951,0.006236869749378858,0.007098100652365245,0.008854121354700564,0.011661512893783074,0.015151179860497193,0.018115157958122425,0.019300747816886402,0.01794738418060144,0.014580749016925848,0.010375258768506508,0.006505305722983257,0.003228151747700344,-4.262960531329686e-06,-0.003505113058506374,-0.007319139671141142,-0.010954205977419725,-0.013459604716964462,-0.014108325389091875,-0.012643117168746651,-0.009634397096638962,-0.0059881449516682355,-0.0029458721944855245,-0.0014023658638675281,-0.0013688117985063899,-0.002051085845851883,-0.0025655881861055677,-0.0021629345707705,-0.0008543094582527048,0.0011142194045124128,0.0031834125337901207,0.004760472929769255,0.005431561828565664,0.005241420514518744,0.004413743676893495,0.0033847389963861255,0.0025794317657159894,0.002187963298930006,0.002232701822697171,0.0024228445170302077,0.002400474910075096,0.0018300482073621027,0.0007451205446815413,-0.0008207553928915667,-0.0027669153388446316,-0.005059804537673456,-0.007408616718675472,-0.009500178074622175,-0.011110792535962448,-0.01187136469358071,-0.011826622719098253,-0.011155534510444905,-0.010193640721232045,-0.009008043961037483,-0.007911931149807837,-0.007375061963171274,-0.007486913448662126,-0.007587577715174716,-0.0067151582129239525,-0.004422269014095127,-0.0006753524645832001,0.004268340196470682,0.009972601702456146,0.016023589700745137,0.022074584600464714,0.028080837525701834,0.03397524586687869,0.039757802722564684,0.045641023844763276,0.05133410365291496,0.05606528967185377,0.05920822876597824,0.06018130977416936,0.058760836626876006,0.05439875291848336,0.04692727797003984,0.03659249609191427,0.02423325546741981,0.010956869929625529,-0.002051085845851883,-0.013347760132904197,-0.021658083264660875,-0.0264228171376733,-0.028033431599013572,-0.027362343390360224,-0.025528032859468835,-0.02313447870398436,-0.020360641920406045,-0.017597992355805996,-0.015484063463333355,-0.01408595785256594,-0.013068141771322948,-0.012318756832682944,-0.011748332890542185,-0.011312121068987628,-0.01099894795190218,-0.010920651221915526,-0.011144347291466643,-0.012027951252123434,-0.013426049961460266,-0.014913632619762014,-0.016110409697504248,-0.017061123169169433,-0.017911165472891444,-0.018671737630509708,-0.01917505206164207,-0.019331638620184794,-0.01883951140803069,-0.017944720228395637,-0.01664727888414081,-0.014812975254680007,-0.0125312656832558,-0.010260750232240438,-0.008292220679332262,-0.00682700624769951,-0.006010514558623347,-0.0056861542225596405,-0.0054960122183696615,-0.0050262490920262,-0.004232127009905149,-0.0030353506223059707,-0.0016708018374719264,-0.0008207553928915667,-0.0007200918165220351,-0.0012457786151817464,-0.002017531780490745,-0.002487294216691148,-0.0022300433916358346,-0.0015813234096514798,-0.0011115609734510766,-0.0012234090082266348,-0.001849759383255878,-0.0026886213694302112,-0.0037288098182005494,-0.004768998957113946,-0.0053506094280899065,-0.005238760703171291,-0.004847292926528366,-0.004578856262780909,-0.004936770664205754,-0.006346058662950022,-0.009377146271583647,-0.013336572913925936,-0.016759130369631663,-0.017799320888831176,-0.015506430999859292,-0.01020482103877972,-0.003382080565324789,0.0031834125337901207,0.008406729215598333,0.011862841426808254,0.0135181909612004,0.013484636205696203,0.011650325674804814,0.007825118054479312,0.0024228445170302077,-0.003471558993145236,-0.008236291485871544,-0.01078643219989874,-0.010943018758441463,-0.009019231180015744,-0.005719708978063837,-0.001838574234706793,0.0019866361461909426,0.0051966806104654616,0.007634969839001807,0.009111372179755878,0.009469287271323781,0.00906663020527342,0.008820566599196368,0.010062078749990476,0.013786629005233975,0.01951326356888984,0.024859608603021287,0.02677221586389933,0.023125962338642485,0.014513639505917456,0.003966350157505146,-0.004869662533483477,-0.009119895446528335,-0.008124446901811277,-0.003158383805630614,0.0034965877213047423,0.009760092851883291,0.014379420483900668,0.01725392153399157,0.019099419283861222,0.020888994741700737,0.0229917433166257,0.025508329275148702,0.028170314573236165,0.031078377280261846,0.034590411783501904,0.03866168991133504,0.042128989341523225,0.043750784120411175,0.04255401394409952,0.03851628367034,0.032834391081166585,0.026995911933450446,0.02156008295035409,0.016683497591850813,0.012712883730530262,0.010140375479977131,0.009670608902918378,0.011493739116262091,0.014961031645019688,0.01849544058621627,0.020587001942162966,0.020396860628116048,0.01779079762205872,0.012970134555585577,0.006069097352143991,-0.0023195218194562816,-0.011401598116521958,-0.01957770912769243,-0.02539381383745205,-0.02853674603014594,-0.029632858841375585,-0.030225657221472864,-0.03146717627369756,-0.03343570582660573,-0.03501276553244181,-0.03509105536099788,-0.03384954321020377,-0.03174679463527881,-0.029163099165747414,-0.026489926648681692,-0.024141114467679674,-0.022541687225317665,-0.02154623868060061,-0.020841588815012475,-0.020148133069833193,-0.01863818287500551,-0.015752494605936345,-0.011457520408552089,-0.006603310178148394,-0.002990611408395748,-0.0019504229596254098,-0.003326156202865481,-0.005406533790549216,-0.006144731510210959,-0.004590041411329995,-0.0013911814054615016,0.0022550714296522825,0.005431561828565664,0.007478383280459085,0.008026439686073908,0.0067737416965876545,0.004145307703289097,0.0010694801906021895,-0.0017379106583372613,-0.004422269014095127,-0.007263217379111009,-0.010450891546287358,-0.01389581653851902,-0.017105858242221304,-0.019242161572650462,-0.019890882244777877,-0.01901846550309935,-0.017172967753229698,-0.014980742130770407,-0.012855626019319506,-0.01089828368538959,-0.00894093445002909,-0.006849375854654622,-0.004478193376554435,-0.0019392378110763247,0.00042076041566075224,0.0018747881114153844,0.002031375360101166,0.0009576321558266313,-0.00013848086244593267,7.403081771346314e-05,0.0022774417267504526,0.006192130535468634,0.011236488291206777,0.016448614303321438,0.02078833047518815,0.023483877430210395,0.024076668908877087,0.022577905933027664,0.01922245108689975,0.014558381480399913,0.009502842026827978,0.005107202182645015,0.0026577257351304093,0.0023557350060218144,0.0033847389963861255,0.004424928135299522,0.004872320964544813,0.004212416524154432,0.0024340289754362344,-0.0006082435747035591,-0.005160467423899929,-0.011189089265949102,-0.01796709466635216,-0.0242977010262224,-0.02934206016224666,-0.032697508106943995,-0.03399494254976823,-0.03306660351605957,-0.030180922148420993,-0.026199121068122184,-0.022150217378245567,-0.018772401897022294,-0.015976190675487462,-0.012654297486294326,-0.00707307606506409,0.0014273945920270344,0.01216482732491544,0.023439135455727938,0.033751549797327564,0.042397427385556796,0.04927609705247245,0.05448822996601769,0.05808974151679208,0.06008064550765677,0.06087477242077924,0.06106490683339557,0.060561592402263206,0.05819041268473525,0.05263154499716978,0.04361657199982497,0.03218567040903917,0.02075477571968395,0.011135824024694188,0.003910425795045837,-0.0016372477721107882,-0.006703973064374867,-0.01194965452213678,-0.017005193975708714,-0.020315906847354178,-0.019957991755786275,-0.01495837459424447,-0.006010514558623347,0.004670994501948809,0.014659045746912503,0.02233183542552003,0.027085388980984774,0.028293353277705276,0.025553064348200573,0.01951326356888984,0.01159440338277468,0.0038880561880907253,-0.0016708018374719264,-0.004030799857166085,-0.003259047382000146,-0.0006082435747035591,0.0019083421767765228,0.002232701822697171,-0.0003733622185747459,-0.0055407514322798855,-0.01225164732167455,-0.019342825839163056,-0.025673432199033296,-0.0302480247579988,-0.03241788284393216,-0.03209352250786845,-0.029364427698772597,-0.025024718428336465,-0.020405383894888506,-0.016815052661661795,-0.014991929349748667,-0.014980742130770407,-0.01619988674503858,-0.017832875644335375,-0.01921979403612453,-0.019711928149709217,-0.01883951140803069,-0.016065674624452377,-0.011356863043470085,-0.00555193658082897,0.0003089121738422764,0.005297344876978052,0.008373174460094135,0.009055449887725744,0.007243506893360292,0.003843316974180502,2.9291514084642228e-05,-0.0031248290501264177,-0.005059804537673456,-0.006178286955858214,-0.007252030160132748,-0.008750793135982171,-0.010551555812799948,-0.012195725029644418,-0.013235908647413346,-0.013526714227972856,-0.01369448800549384,-0.0140971450715442,-0.014645201477159024,-0.014645201477159024,-0.013549088665929377,-0.011245011557979233,-0.008102079365285342,-0.004947955812754839,-0.0025767726445115944,-0.001010897397081545,9.640049368288064e-05,0.001326731015657503,0.0029597157740959457,0.004972984540914345,0.007109287871343505,0.00897715315773909,0.009883124654921817,0.010106820724472936,0.010084453187946998,0.010263407283015656,0.010397626305032446,0.01003971121346454,0.008820566599196368,0.006930326874844261,0.004726918174265058,0.0027360197045448293,0.001662275810127236,0.0016958305656314327,0.0024899533378955423,0.0036755445769456356,0.004447297742254634,0.004469667349209745,0.0038097622186763053,0.0031386733198798976,0.0033288153240698757,0.004760472929769255,0.006829666059046963,0.008306064949085742,0.00849620626313266,0.007388906232924755,0.005532226095078254,0.003664360118539609,0.0024340289754362344,0.0016958305656314327,0.0009352625488715197,-0.00025032910426440845,-0.001849759383255878,-0.0032814169889552576,-0.0039748761848498355,-0.0035722225695147677,-0.0026103274000157913,-0.0017043565929761233,-0.0013799962569124163,-0.0015365841957412564,-0.0016708018374719264,-0.0014135510124166132,-0.0008878642137569016,-0.0003286229356502168,2.9291514084642228e-05,0.00010758529716043646,4.047633826648981e-05,0.000577348009418063,0.002310995792111591,0.00517431100351035,0.00869753479615784,0.012097717813907047,0.01448008475041326,0.015285391981083396,0.014334685410848796,0.012108905032885307,0.009323881030328733,0.00641582729516281,0.003429478900439407,0.00029772730135041475,-0.002409000247276728,-0.003963691036300751,-0.0037735490321107725,-0.001547768654147283,0.0022662565782013673,0.00689677418976924,0.011404262068727761,0.014938664108493753,0.017142076949931306,0.01808160320261823,0.01822700254218269,0.018428331075207874,0.019647475689476043,0.02191799804192199,0.025005014844016335,0.028047282770197638,0.029948709713528004,0.02997107725005394,0.028215056547718623,0.025005014844016335,0.02126927736979458,0.017365773019482424,0.012958954238037902,0.007769188861018594,0.0018971577183704961,-0.004120278975129591,-0.009612029560113025,-0.01408595785256594,-0.017329561213203008,-0.01939874813119319,-0.02018168782533739,-0.01947704486117984,-0.017206522508733897,-0.013940551611570892,-0.01080880663785526,-0.009008043961037483,-0.009354778735057712,-0.011882545011128386,-0.016032112967517595,-0.020629079964439623,-0.02439836529273499,-0.02634452730911723,-0.025818838440028344,-0.023067369192975966,-0.01899609796657341,-0.014589272283698307,-0.010573923349325885,-0.0071401786746418975,-0.003986060643255862,-0.0013128874360470815,0.00035365145676680555,0.0006891962512365387,-0.0002055898213398793,-0.0018721289902109898,-0.003326156202865481,-0.0038853977570293893,-0.003337341351414566,-0.001838574234706793,0.00033128178079738806,0.002501137796301569,0.004011089371415369,0.004503222104713942,0.004313080100523964,0.0037873933018642524,0.0031274881713308123,0.0022215173642911442,0.0011701437669717212,0.0005661631369262013,0.0009688166142326578,0.0029149765601857226,0.006617154447901874,0.012198382080419637,0.01951326356888984,0.027309085050535892,0.033259415683742875,0.03538453179519378,0.03281202354464065,0.026470223064361562,0.01849544058621627,0.010531845327049231,0.0035636965421700774,-0.0019280526625272396,-0.0060776233794886825,-0.009343591516079452,-0.012184537810666156,-0.014667569013684961,-0.016680840541075593,-0.01801182973940403,-0.01888424648108256,-0.01957770912769243,-0.0206402602819873,-0.022150217378245567,-0.02382794135059423,-0.024991163672832273,-0.024834570212858963,-0.02255286754286534,-0.017922352691869703,-0.011927286985610845,-0.0061335470518049315,-0.0018833134486170163,0.0002865424978728589,0.000834598972501988,0.00026417289091774725,-0.0010780062179468798,-0.003180753412585726,-0.005619045401694305,-0.007319139671141142,-0.007252030160132748,-0.0053953486420001305,-0.0024537401513300095,0.0004095756121831964,0.002534692551805766,0.003731468939404944,0.004380188921389298,0.004738103322814144,0.004726918174265058,0.004055828585325592,0.002590616914265074,0.0007451205446815413,-0.0011003758249019916,-0.003337341351414566,-0.006368428269905134,-0.009902835140672535,-0.013336572913925936,-0.01574131428838867,-0.016468324789072154,-0.015965010357939787,-0.01515970312726965,-0.01514851590829139,-0.016233441500542775,-0.01755325038132354,-0.017441405797263273,-0.014332021458642992,-0.007632312788226589,0.0020649294254623043,0.013026063749046295,0.022935814123164984,0.030228328075109254,0.03427723866641646,0.03552993803618883,0.034590411783501904,0.03192841958398386,0.02840519786176554,0.024960272869533878,0.022186436085955562,0.020329751117107657,0.019423779619924926,0.019166528794869617,0.018808613703301714,0.017824352377562913,0.01613544118623599,0.013965583100302633,0.01119174631672432,0.007914595102013642,0.004559145777030192,0.0017629393864967676,7.403081771346314e-05,-0.0004963952638707775,2.9291514084642228e-05,0.0013602857711616995,0.0031498577782859243,0.004995354147869457,0.006852035666002075,0.00878701184369217,0.010632502692131236,0.012075350277381111,0.012410890930992494,0.010856205663112937,0.007154022944395377,0.0019083421767765228,-0.003997245791804947,-0.009902835140672535,-0.015361024758864247,-0.02024879733634578,-0.0243312557817266,-0.027384710926886158,-0.0289394030961963,-0.028570307687080722,-0.025975424998571063,-0.02173637309321694,-0.016557801836606482,-0.011054870243932313,-0.00531705467258571,0.00039839073969133475,0.0060355425966397945,0.011202933535702581,0.01563212675510362,0.019490889130933324,0.022947001342143242,0.026291268969292902,0.029635529695011976,0.033102829125200156,0.03669316035842687,0.039757802722564684,0.041536190961425946,0.04121183062536224,0.038236665308758744,0.03287913305564904,0.02596690173179861,0.018685581900263187,0.011717435185813207,0.005364453697843387,7.403081771346314e-05,-0.004187387795994926,-0.007900750832260162,-0.011826622719098253,-0.016345292986033624,-0.02104291734803766,-0.025226040059931065,-0.02832423717957308,-0.03019210246596867,-0.030997409696638802,-0.030963854941134607,-0.029778265082370633,-0.027239311587321697,-0.023604245281043112,-0.01918623928062033,-0.01438795065210371,-0.009589655122156504,-0.005384164183594104,-0.0023418914264113928,-0.0003845470220523018,0.001326731015657503,0.003843316974180502,0.007713266568988461,0.012533929635461603,0.017511172359046884,0.02191799804192199,0.024893163358525483,0.025944534195272675,0.024803686310991155,0.02171666950889681,0.01643743398577376,0.0088764888912265,-0.00025032910426440845,-0.009421888246066105,-0.017061123169169433,-0.022485758031856946,-0.02572935449106343,-0.027060350590822454,-0.02719456961283924,-0.02700442829879232,-0.02643400435665156,-0.025091821037914276,-0.022832492805877173,-0.02024879733634578,-0.01801182973940403,-0.016356480205011886,-0.015103773933808932,-0.014119512608070137,-0.012967477504810357,-0.010842361393359458,-0.007475726229683865,-0.003907766673841443,-0.0012234090082266348,-0.00017203534189290598,-0.0005523193502728625,-0.0018050201693456547,-0.003102459443171306,-0.003829473394570081,-0.003762364573704746,-0.002990611408395748,-0.0013799962569124163,0.0012819918017472794,0.0051519413965552385,0.009692983340874898,0.013652409983217187,0.016113073649710055,0.016761794321837466,0.016381504792313043,0.016213737916222642,0.01699667070893626,0.018875723214310105,0.020866627205174803,0.02200747508945632,0.02186207574989186,0.020810698011714084,0.019356670108916535,0.017869087450614787,0.016269660208252778,0.014066247366815223,0.011035159758181597,0.007008623604830915,0.0017741245350458529,-0.004187387795994926,-0.009667951852143157,-0.013739229979976297,-0.015864346091427197,-0.015998565113443983,-0.014622827039202502,-0.01234112436920888,-0.010059421699215258,-0.008269846241375741,-0.006849375854654622,-0.005674969764153613,-0.004567671804374882,-0.0035834070279207944,-0.002554403037556483,-0.000932603427667125,0.0016734609586763211,0.005207865759014547,0.009368623004811191,0.01343990113264433,0.016549278569834024,0.017913829425097245,0.016851271369371798,0.013585300472208794,0.008921230865708958,0.003932795402000948,-0.0009661581831713216,-0.0055407514322798855,-0.00947781053809624,-0.01225164732167455,-0.013593823738981249,-0.014220176874582725,-0.01524918017480398,-0.01747496055276747,-0.020629079964439623,-0.023704909547555705,-0.025192485304426866,-0.023984527909136955,-0.01998035929231221,-0.014141880144596074,-0.008236291485871544,-0.0033485258098205927,6.92186572094707e-06,0.002143223394876724,0.003586066149125189,0.004782842536724367,0.006024358138233769,0.006796111303542767,0.006852035666002075,0.006337533325748389,0.005666443736808923,0.005487486881168031,0.006057912893737965,0.007332983940894621,0.008540941336184533,0.009189662008311946,0.009536396782332176,0.009849569899417621,0.010129188260998869,0.010688431885591956,0.011616770919300617,0.0127352512670562,0.013652409983217187,0.014278763118818665,0.014491271969391518,0.01439060770287893,0.013932028344798435,0.013093166358624102,0.012108905032885307,0.011158191561220124,0.010386439086054184,0.009581131855384048,0.00839554199662007,0.006538859788344394,0.0039775353060542305,0.001203698522475918,-0.0009885277901264334,-0.0022300433916358346,-0.0023642610333665043,-0.0015813234096514798,-0.00019440501786232347,0.0013379161642065878,0.0024899533378955423,0.0029261610185917493,0.0028590528878694723,0.0031834125337901207,0.004592700532534389,0.006986256068304979,0.009871937435943558,0.013104353577602363,0.016280847427231036,0.018808613703301714,0.020139609803060735,0.02018435177754319,0.018976387480822695,0.01662757529982068,0.013160275869632495,0.00858568331066699,0.0031163030227817274,-0.0027892842556566846,-0.008616581015395969,-0.01389581653851902,-0.018291455002415864,-0.02111002685904605,-0.0217811150676994,-0.02015931338738087,-0.01671439529657979,-0.012855626019319506,-0.009813358093138205,-0.008034969854276949,-0.007654680324752524,-0.008605393796417707,-0.009925202677198472,-0.010193640721232045,-0.008213923949345607,-0.003907766673841443,0.0022215173642911442,0.009044262668747485,0.015430798222078441,0.020575814723184708,0.024210887930893876,0.02600046338873339,0.02596690173179861,0.024222075149872135,0.021314019344277037,0.017712500892072065,0.014032692611311027,0.01099041778369914,0.009100184960777618,0.008104736416060562,0.007612602302475871,0.007254687210907967,0.0065276753299383684,0.004749287781220171,0.001964266539235831,-0.0015030294402370598,-0.005417718248955242,-0.009433068563613782,-0.013280650621895804,-0.01658016937313242,-0.018772401897022294,-0.019779030759287025,-0.019902062562325552,-0.019969178974764534,-0.020975807837029264,-0.02363780003654731,-0.028044618817991834,-0.03415152910831096,-0.04179076403141428,-0.04968724977957293,-0.05564876073032759,-0.05786335388931282,-0.05561520597482339,-0.04947474092900007,-0.04032555581106906,-0.02971115557136224,-0.01907438779512948,-0.009421888246066105,-0.0007760161789813435,0.0073553514774205575,0.015352501492091788,0.02347269021123213,0.03191723926643618,0.041133540796806166,0.05154661250348781,0.062474199663141244,0.07221622456975306,0.0782671918637503,0.07851329687841085,0.07238399834727403,0.06126624226785133,0.04756481832461958,0.033729182260801634,0.021604824924836546,0.011952318474342584,0.004592700532534389,-0.0009549730346222366,-0.005507197366918747,-0.00944425578259204,-0.012721406997302719,-0.014835342791205942,-0.01564065002187608,-0.015305102466834112,-0.01407477063358768,-0.012229279785148614,-0.01010415677226713,-0.007923118368786097,-0.005809187405884284,-0.0038965822154354156,-0.0021853041777256115,-0.0006753524645832001,0.0002529880184258856,0.00027535769439530314,-0.0008095702443424816,-0.002889947832026216,-0.005865111078200534,-0.009466623319117977,-0.013459604716964462,-0.01728481923872055,-0.02033827438388011,-0.022250881644758153,-0.023145665922962622,-0.023302252481505345,-0.02320158821499275,-0.02313447870398436,-0.022798938050372978,-0.021400832439605562,-0.018559886145018856,-0.014376763433125451,-0.010059421699215258,-0.006759897426834175,-0.0051492829654939025,-0.0053506094280899065,-0.006737527819879063,-0.00871724528190856,-0.011200269583496777,-0.014242544411108662,-0.017374296286254882,-0.01949941239770578,-0.01932045830263712,-0.016434770033567955,-0.011602926649547138,-0.005943405047614953,-0.00013848086244593267,0.0053532685492943015,0.010587767619079364,0.015274211663535719,0.018886910433288363,0.020732408183158017,0.020340938336085915,0.01764539138106367,0.013663597202195447,0.009972601702456146,0.007813930835501052,0.007388906232924755,0.007936962638539578,0.008429096752124268,0.008082368879534625,0.00689677418976924,0.0051966806104654616,0.004100567799235816,0.004380188921389298,0.0058454012825928745,0.007646157057980068,0.008932411183256635,0.008910043646730698,0.007288241966412165,0.004279525345019767,0.0005102390505241164,-0.0030017958668017743,-0.005194022179404126,-0.0051492829654939025,-0.002554403037556483,0.001953081390686746,0.007064545896861048,0.011437816824231957,0.014435349677361388,0.016113073649710055,0.016929568099358448,0.016538091350855762,0.014703780819964376,0.011560848627270484,0.007567867229423999,0.0031498577782859243,-0.0009214189692610984,-0.0041650181890398146,-0.006457907387868639,-0.008191556412819672,-0.0096232098776607,-0.01088709646641133,-0.011893732230106646,-0.012195725029644418,-0.011423972554478478,-0.009377146271583647,-0.0061335470518049315,-0.002353076574960478,0.0013714709197107846,0.004492036956164857,0.006807295761948793,0.008518573799658598,0.01002852399448628,0.011739802722339144,0.013585300472208794,0.015128805422540673,0.01633676971926117,0.017276295971948092,0.018103970739144166,0.018909277969814304,0.01941259930237725,0.019658662908454305,0.019658662908454305,0.019300747816886402,0.017913829425097245,0.014949851327472013,0.010666064349066019,0.005979618924323546,0.0017853089934518793,-0.0014694753748759216,-0.0037847341806598574,-0.005663784615604529,-0.007363874744193014,-0.008683690526404362,-0.008918566913503153,-0.007833641321251769,-0.005753263733568034,-0.0034044494821368425,-0.0016036930166065913,-0.0012681482221368581,-0.002912317438981328,-0.006155916658760044,-0.009902835140672535,-0.012933922749306161,-0.014354395896599514,-0.013761597516502234,-0.011189089265949102,-0.007352694426645339,-0.003482743451551263,-0.0006417980541505325,0.0008122293655468763,0.0011365897016105831,0.0006891962512365387,-0.0002167746248174351,-0.0013911814054615016,-0.0027221754347913495,-0.004411083865546042,-0.0069500373605949775,-0.01030548530529231,-0.013772784735480492,-0.016356480205011886,-0.017732211377822785,-0.017899985155343766,-0.016557801836606482,-0.013448424399416787,-0.008694870843952037,-0.0030353506223059707,0.0027472041629508556,0.007981704613022035,0.012276678810406292,0.015520275269612771,0.017589469089033537,0.01852899534172046,0.018797433385754035,0.018719136655767382,0.018484253367238003,0.018652027144758988,0.01961392093397185,0.021034394081265204,0.021985107552930386,0.021369941636307167,0.018506620903763944,0.01352937818017866,0.007277061648864489,0.0007227509377264297,-0.00531705467258571,-0.01020482103877972,-0.013493159472468659,-0.015595908047393622,-0.01664727888414081,-0.016613731030067202,-0.015595908047393622,-0.013862261783014822,-0.011636481405051335,-0.008963308887985612,-0.005775633340523146,-0.0023866306403216163,0.0009576321558266313,0.003943980550550034,0.006438196902117921,0.008507386580680338,0.010140375479977131,0.011471371579736154,0.012589851927491737,0.01352937818017866,0.01420046638883201,0.014569568699378173,0.014446536896339646,0.01360766800873473,0.011874021744355931,0.009469287271323781,0.006594784150803703,0.0037650236949091404,0.0013714709197107846,-0.0003286229356502168,-0.0016484322305168149,-0.0029794269499897213,-0.004802553022475084,-0.007117811138115961,-0.009746241680699227,-0.012520078464277539,-0.015506430999859292,-0.0188730592621043,-0.02247457771430927,-0.025908315487562672,-0.028480823738115807,-0.0293308729432684,-0.02816765062103036,-0.02497997645385401,-0.02046130618691864,-0.01553998575536349,-0.01099894795190218,-0.007050701627107568,-0.0034380042376410394,-0.00011611118647651514,0.003205782140745232,0.006986256068304979,0.011415442386275437,0.016280847427231036,0.02116861310328199,0.02587742468426428,0.02997107725005394,0.03278965600811471,0.03340481502330735,0.0313244408863389,0.0268505056924554,0.02093372981475261,0.01488274181646362,0.00945810005234552,0.004995354147869457,0.0018300482073621027,1.810668990279465e-05,-0.0004181015014992751,0.00039839073969133475,0.001595166989261901,0.0020872997225604745,0.0013714709197107846,-0.0005523193502728625,-0.002934687045936439,-0.0050038794850710885,-0.006424352632364442,-0.007375061963171274,-0.008158001657315474,-0.009567287585630567,-0.01234112436920888,-0.016065674624452377,-0.01951059961668404,-0.021423199976131495,-0.02154623868060061,-0.02033827438388011,-0.018325009757920063,-0.015774869043892865,-0.012877993555845443,-0.010059421699215258,-0.00739742949969721,-0.004791368564069058,-0.0026886213694302112,-0.0014918449818310331,-0.0014582902263268365,-0.0022859670639520844,-0.0032031230195408377,-0.0032702318404061724,-0.0020399013874458564,0.0005997176163731747,0.004234786131109543,0.008518573799658598,0.013014876530068034,0.017030225464440458,0.01980406224801877,0.020676478989697298,0.019468521594407383,0.016582833325338223,0.012601039146469999,0.008004072149547972,0.0036084357560803005,0.00019706393202380062,-0.0017490958068863464,-0.0024984786750971745,-0.0030017958668017743,-0.003795918639065884,-0.004489377834960463,-0.00467951983915044,-0.004288051372364457,-0.0035834070279207944,-0.002632697006970903,-0.0016148781651556766,-0.0008095702443424816,-0.00036217734608288423,-0.00036217734608288423,-0.0006641676611056442,-0.0010556366109917682,-0.0012010394012715233,-0.0009773426415773483,-0.0001272960589683768,0.0015504277753516779,0.0037650236949091404,0.005867770889547987,0.0072658744298862285,0.007836298372026988,0.007579047546971675,0.007064545896861048,0.006538859788344394,0.006371088081252587,0.006404642836756783,0.00641582729516281,0.006013172989684683,0.004984169689463431,0.003586066149125189,0.0019866361461909426,0.0006109024888650363,0.00010758529716043646,0.0007339353961324563,0.002445214123985319,0.00490587572004901,0.007813930835501052,0.010464735816040838,0.011952318474342584,0.011650325674804814,0.009212036446268468,0.005163126545104323,5.1661162448337394e-05,-0.005663784615604529,-0.011222644021453298,-0.01578604936144054,-0.01881713697007417,-0.02042775143141444,-0.02100936259253346,-0.02104291734803766,-0.02070736979299569,-0.019812585514791224,-0.018078939250412426,-0.015584720828415362,-0.01283325848279357,-0.010383782035278963,-0.008549471504387575,-0.007184920649124355,-0.005697339371108725,-0.0034939286001003478,-0.00027269878023382594,0.0035189573282598543,0.006963881630348458,0.009592319074362306,0.01188520896333419,0.014155724414349553,0.016124260868688314,0.017164444486457243,0.016940748416906126,0.015318946736587591,0.012522742416483344,0.009189662008311946,0.006147391321558412,0.004547960628481107,0.005107202182645015,0.008149478390543018,0.01274643848603446,0.017824352377562913,0.02214169411147311,0.02474775711753044,0.02548595483719218,0.024770124654056373,0.023595722014270657,0.022935814123164984,0.023237806922702754,0.0239760046423645,0.024199700711915614,0.02340558070022374,0.02182852099438766,0.019580366178467652,0.016672317274303138,0.012981321774563837,0.00849620626313266,0.003619620214486327,-0.0009773426415773483,-0.005194022179404126,-0.008683690526404362,-0.011334488605513563,-0.013314205377400001,-0.01485771032773188,-0.01571893985043215,-0.015472876244355097,-0.013739229979976297,-0.01060747810483008,-0.006737527819879063,-0.003158383805630614,-0.0003845470220523018,0.0011477741600166096,0.0014273945920270344,0.0004543148951077255,-0.0017155410513821497,-0.004847292926528366,-0.007956673124290294,-0.01030548530529231,-0.011547004357517005,-0.011412785335500216,-0.010037054162689322,-0.007878383295734225,-0.005909850292110757,-0.005182837030855041,-0.006491461453229777,-0.010048234480236997,-0.015674204777380275,-0.02227324918128409,-0.028279495205090623,-0.0320152257778818,-0.032719875643469926,-0.030907932649104474,-0.0275972266788896,-0.024174669223183873,-0.021825857042181856,-0.021389645220627303,-0.023358174773535478,-0.027474194875851073,-0.032552101865948944,-0.036914178672911004,-0.03889389544479745,-0.036824701625376675,-0.029878929348883223,-0.018425667123002067,-0.0041650181890398146,0.01090094073616481,0.024904350577503745,0.036581308872936015,0.04526074121666944,0.05038339708268036,0.05136765840841915,0.04850434457730651,0.04258756869960372,0.035563492791693026,0.030082921834114207,0.028326901131778884,0.030698087750737423,0.03583192393429601,0.04127894013637064,0.044343582500508454,0.04338168871129559,0.03859457349889606,0.03130207334981296,0.023058852827634094,0.015106437886014736,0.008149478390543018,0.002366920154570899,-0.002621511858421818,-0.007162553112598419,-0.011368043361017759,-0.015182070663795587,-0.018313822538941805,-0.020371829139384307,-0.02114358161455025,-0.02056197045343123,-0.019007278284121087,-0.017061123169169433,-0.015103773933808932,-0.013739229979976297,-0.013258283085369867,-0.013056954552344686,-0.012307569613704683,-0.01029429808631405,-0.007363874744193014,-0.004534117048870685,-0.0028004694042057694,-0.0028563930765220192,-0.004645965773789303,-0.007050701627107568,-0.008996863643489807,-0.009947570213724407,-0.01011534399124539,-0.01049562661933923,-0.011748332890542185,-0.013739229979976297,-0.015942635919983263,-0.017340741530750683,-0.01701638119468698,-0.014432685725155582,-0.00973506136315155,-0.003874212608480304,0.002366920154570899,0.00876463740573565,0.01526302444455746,0.02211932657494717,0.02937827886995666,0.03664841838394441,0.04310207034971434,0.04772140488316231,0.04988007575011741,0.04961163770608384,0.04756481832461958,0.04456727857005957,0.040764438486260005,0.035876665908778464,0.029725006742546304,0.02229828067001583,0.014032692611311027,0.005386823304798499,-0.003505113058506374,-0.012810884044837049,-0.022049553111732973,-0.030281579513502997,-0.03680233408885074,-0.04134337189231205,-0.04403891194590371,-0.045246876242624204,-0.044922515906560496,-0.042965173572630584,-0.03891626298132338,-0.032652766132461535,-0.024510216778225843,-0.01515970312726965,-0.005406533790549216,0.003943980550550034,0.011907576499860127,0.017690133355546128,0.020888994741700737,0.021325206563255296,0.019278380280360465,0.015453165758604379,0.011012792221655661,0.006975068849326718,0.0036419905115844978,0.0006109024888650363,-0.002107010208311191,-0.004109093826580506,-0.004556486655825797,-0.003314971054316396,-0.0012234090082266348,0.000532608657479228,0.0016175365962170128,0.0017629393864967676,0.0008010442169977912,-0.0010332670040366567,-0.003303786595910369,-0.005943405047614953,-0.008739612818434496,-0.011189089265949102,-0.01321354111088741,-0.014880077864257815,-0.016445957252546217,-0.017899985155343766,-0.019432302886697384,-0.021613341290178417,-0.025002343990379948,-0.029554569012819516,-0.03456537339333958,-0.03846887084222115,-0.039330107266352006,-0.03594109766471989,-0.028704526709097507,-0.019633631419722564,-0.01069695515236441,-0.0032478622334510612,0.002109669329515586,0.005330898942339191,0.007064545896861048,0.007981704613022035,0.008798192161239848,0.010173930235481328,0.012209569299397897,0.014860374279937683,0.018148712713626624,0.022074584600464714,0.026067572899741785,0.029445388380965054,0.031827755317471264,0.033304157658225336,0.0337068147242757,0.03267780452262386,0.030328992341621844,0.027186053247497368,0.023897707912377844,0.02098965900821333,0.018987574699800957,0.018126345177100687,0.018204635005656757,0.01874150419229332,0.01907705174733529,0.01846188583071207,0.016985490391388584,0.015072883130510539,0.013260940136145087,0.011538474189313964,0.009804827924935164,0.00789222066405712,0.005778292461727541,0.003731468939404944,0.0017293853211356295,-0.00030625325968079925,-0.002263597456996973,-0.003684070604290326,-0.004198572254400953,-0.0038518430015251925,-0.0028563930765220192,-0.0018162046277516814,-0.001066821069397795,-0.0006417980541505325,-0.00023914430078685262,0.0004990541780322547,0.0013379161642065878,0.0018412333559111877,0.0016734609586763211,0.000532608657479228,-0.0015701382611023947,-0.004791368564069058,-0.008862644621473022,-0.013247095866391606,-0.01748614777174573,-0.02104291734803766,-0.02338054231006141,-0.023950973153632756,-0.022351545911270743,-0.01869410516703564,-0.013907003757497281,-0.009254114468545122,-0.006278949842084687,-0.00582037186429031,-0.007475726229683865,-0.00982453841068588,-0.011121979754940706,-0.010160085965727848,-0.006905302287543105,-0.002051085845851883,0.0035636965421700774,0.008954785621213155,0.013484636205696203,0.016504543496782154,0.01763420416208541,0.016940748416906126,0.014860374279937683,0.012097717813907047,0.009614686610888244,0.008451464288650203,0.009603506293340568,0.013495823424674465,0.019736959638440958,0.026828138155929465,0.033102829125200156,0.037039888231016505,0.038046523994711826,0.03606680722282539,0.031637614003424346,0.026168237166254375,0.02084425276721828,0.016303214963756973,0.012310233565910487,0.008563315774141055,0.004849951357589702,0.0013714709197107846,-0.0013017029776410548,-0.002845208618115993,-0.0034156346306859274,-0.003874212608480304,-0.004668335380744414,-0.005909850292110757,-0.007632312788226589,-0.00964558431561722,-0.011591739430568876,-0.013090509307848884,-0.014052403097061744,-0.014510982455142237,-0.014790600816723487,-0.014667569013684961,-0.013582643421433574,-0.01126737909450517,-0.007732977054739179,-0.003941321429345639,-0.0011563001873613,-0.0004740256569156659,-0.0022971522125011697,-0.005965775344713124,-0.010249563013262178,-0.01436557621414719,-0.017776946450874652,-0.020438938650392702,-0.022329171473314226,-0.02334698755455722,-0.023291065262527083,-0.021904146870737926,-0.01939874813119319,-0.016143964453008443,-0.012900367993801964,-0.01002586694371106,-0.007856008857777704,-0.006424352632364442,-0.0053953486420001305,-0.004735443511466691,-0.004489377834960463,-0.005037434240575286,-0.006547385125546027,-0.008336955752384134,-0.009768616118655747,-0.0104061495718049,-0.010014679724732802,-0.00871724528190856,-0.006871746151752792,-0.004892031450295531,-0.0033485258098205927,-0.003259047382000146,-0.005216391096216179,-0.008952121669007352,-0.01369448800549384,-0.01853751860849292,-0.022597609517347798,-0.02540500105643031,-0.026747177473737005,-0.026601778134172544,-0.02512538269484906,-0.02265353180937793,-0.01946585764220158,-0.01522680573684746,-0.0096232098776607,-0.00243136985423184,0.005878955347954014,0.014580749016925848,0.022857524294608914,0.029937522494549743,0.03500424916709994,0.03790112465514737,0.03899723746637701,0.03856102564482246,0.03692804364695624,0.034489747516989314,0.03141391793387323,0.02764463260557786,0.023349658408193606,0.018976387480822695,0.015363688711070049,0.013249752917166825,0.013104353577602363,0.014446536896339646,0.016649942836346618,0.01866321436373725,0.019602740616424173,0.01889809075083604,0.016694684810829072,0.01343990113264433,0.009592319074362306,0.005811846527088678,0.003161042926835009,0.002478768189346458,0.003876871729684699,0.006583599002254618,0.009491654807849718,0.01177335747784334,0.013205017844114954,0.013574113253230533,0.012679328975026067,0.010498290571545034,0.006986256068304979,0.0022662565782013673,-0.0032254926264959492,-0.00871724528190856,-0.013481979154920984,-0.01722889004525983,-0.019991546511290467,-0.021904146870737926,-0.023011446900945833,-0.023626612817569052,-0.02391741839812856,-0.02333580723700954,-0.021467941950613953,-0.01839211236749787,-0.014790600816723487,-0.011401598116521958,-0.008325775434836457,-0.00560786025314522,-0.003080089836216194,-0.0003733622185747459,0.003038009743510366,0.006930326874844261,0.010598954838057626,0.01323857259961915,0.014446536896339646,0.014357052947374733,0.013193830625136693,0.01159440338277468,0.010408813524010704,0.010151562698955393,0.010721986641096151,0.011851654207829994,0.013507010643652723,0.015732791021616215,0.018428331075207874,0.021358754417328908,0.023349658408193606,0.023439135455727938,0.02113505834777779,0.01671705234735501,0.011337152557719369,0.006125021714603301,0.001885972569821411,-0.0011227454318571033,-0.0030241654737568863,-0.004343975044680708,-0.005719708978063837,-0.007285584915636946,-0.008896199376977219,-0.010081789235741195,-0.010730509907868608,-0.01069695515236441,-0.010193640721232045,-0.009835725629664142,-0.010171266283275525,-0.01099894795190218,-0.011547004357517005,-0.010920651221915526,-0.008885012157998957,-0.006021699017029373,-0.003337341351414566,-0.0014247354708226397,-0.0006082435747035591,-0.0007760161789813435,-0.0016931714444270382,-0.0029794269499897213,-0.004433453472501154,-0.00576444819197406,-0.00663686493365259,-0.007106623919137701,-0.007721789835760917,-0.008963308887985612,-0.010931838440893788,-0.013056954552344686,-0.014812975254680007,-0.015663017558402017,-0.01552879853638523,-0.014645201477159024,-0.013191173574361474,-0.011502262383034546,-0.009757428899677487,-0.007721789835760917,-0.005160467423899929,-0.002118194666717218,0.0012931769502963644,0.004704548567309947,0.007713266568988461,0.010084453187946998,0.01157202894481816,0.012052982740855174,0.012008240766372717,0.012108905032885307,0.012992508993542097,0.014782077549951029,0.017421695311512553,0.020598189161141228,0.023539799722240524,0.025530696811674636,0.026268894531336382,0.025910979439768476,0.024624725314491912,0.02248842198406275,0.01970339798150618,0.01682890383284586,0.014491271969391518,0.01303724406659397,0.01168388043030901,0.009323881030328733,0.005420377370159637,6.284599353161555e-05,-0.006346058662950022,-0.01321354111088741,-0.02015931338738087,-0.026724809937211068,-0.03209352250786845,-0.035661479303138635,-0.03705958491390606,-0.03632138719424431,-0.03406205206077663,-0.030874377893600275,-0.027239311587321697,-0.02333580723700954,-0.019029645820647024,-0.0142649119476346,-0.00953373283012637,-0.00555193658082897,-0.002420185395825813,9.640049368288064e-05,0.0020090057531460545,0.0031163030227817274,0.0034742181143496307,0.003429478900439407,0.0033064457171147637,0.0030603793504654776,0.002534692551805766,0.002076114574011389,0.0021991477573360327,0.0030715644990145625,0.004424928135299522,0.006192130535468634,0.00828369051112922,0.010543025644596906,0.012925399482533705,0.015072883130510539,0.016213737916222642,0.01581108085017228,0.014066247366815223,0.01197468601086852,0.010889760418617136,0.011806912233347537,0.014916296571967816,0.019121793721817743,0.022723305272592125,0.02423325546741981,0.023047665608655836,0.01943496683890319,0.014379420483900668,0.009469287271323781,0.0062816089632890815,0.005711182950719147,0.007310616404368685,0.009793647607387487,0.01188520896333419,0.012813547997042854,0.01237734307691888,0.011214120754680841,0.009681796121896636,0.0077356341055143975,0.005107202182645015,0.0015839825308558745,-0.0035162982070554593,-0.010775251882351065,-0.020047468803320603,-0.029834187374400765,-0.03848005806119941,-0.04451986574194072,-0.04724896055103658,-0.04676801365643015,-0.04420669262485528,-0.04040384563962513,-0.03562792454763444,-0.029644046060353847,-0.022161404597223825,-0.013549088665929377,-0.004791368564069058,0.0026577257351304093,0.007802743616522791,0.010453548597062576,0.011460184360757894,0.012243124054902093,0.013876106052768305,0.016951935635884388,0.02116861310328199,0.02541885222761437,0.028360462788713667,0.028729558197829245,0.026246526994810445,0.02166074721686668,0.016157808722761926,0.011314785021193432,0.007881040346509445,0.005632888981304727,0.003552511393620992,0.0012260681294310296,-0.001256963073587773,-0.0032031230195408377,-0.004041985005715171,-0.0035722225695147677,-0.002174119029176526,-0.0007424614234771466,-7.137190355198599e-05,-0.0003398077391277726,-0.0010780062179468798,-0.0019280526625272396,-0.0023195218194562816,-0.0015701382611023947,0.00021943353897891228,0.0022215173642911442,0.0032840761101596526,0.0022662565782013673,-0.0014023658638675281,-0.006994779335077435,-0.012710226679755044,-0.01699401365816104,-0.01897372352861689,-0.018548698926040594,-0.016054487405474115,-0.012184537810666156,-0.007867196076755964,-0.003907766673841443,-0.0008766790652078166,0.0008457841210510731,0.0014945034128923695,0.0013155465572514762,0.0007227509377264297,0.0001746942560543831,0.0002865424978728589,0.0015839825308558745,0.00432426455892999,0.008462651507628465,0.013976770319280893,0.020553447186658774
