0.8760197426322535,0.888236650816448,0.8743699223621825,0.8274916145636487,0.7400858819072115,0.6101660368809272,0.48259816241353404,0.42734393330822973,0.451863915663635,0.5305112136364939,0.6267567967423334,0.7025026181977037,0.7335327185090647,0.689654696744388,0.5162165317544584,0.23986679863934776,0.04017377077659919,-0.01627164829105794,0.0395381674413759,0.17387832446801307,0.35780184213384086,0.5488089691867587,0.7089578231443942,0.8178722540077984,0.8662099688687693,0.8572346466153727,0.7972462556281411,0.687386467748338,0.5492311175695289,0.427440465819391,0.34466227993167603,0.2932244899864717,0.253088294575362,0.20184187041945886,0.12331440569178063,0.013576774787836934,-0.12680130838570822,-0.2895527540632599,-0.4470964498473821,-0.5779479107138595,-0.6758824552718822,-0.7477007663410343,-0.8000018990209785,-0.8378484142189037,-0.8617461420292102,-0.8747816260205945,-0.8823896516123243,-0.8847060489790313,-0.8475265439147186,-0.7071895179836407,-0.5160873515664925,-0.37430633903396715,-0.2927329380110075,-0.2514061747031671,-0.23623752835198822,-0.2313922721658916,-0.21885795544434888,-0.17387096736627705,-0.07984935585899336,0.04737997993167347,0.16103581538577333,0.22987081544918211,0.25611896409346463,0.2501816127028763,0.22494161599450044,0.19365978673766843,0.17140203043438385,0.16854171660799605,0.18170959041945656,0.19931572114447596,0.2012439090549505,0.1782198735874291,0.1438035565744396,0.12084172986413601,0.13041733330216143,0.17774711705876134,0.2375073111295314,0.2802832186527112,0.29774457106481433,0.2955859159382667,0.27997424742768623,0.25828604379009557,0.24022433632312604,0.24433991350776776,0.28149596544549305,0.30648228349008527,0.29114004431466733,0.2639095411439311,0.23779640569027322,0.22063233173348804,0.21230226145818756,0.20830337449838957,0.197781562453747,0.16899317074885548,0.11800298584141895,0.05050003334576337,-0.013585495293350592,-0.0476207756804088,-0.051465527713494774,-0.062342767546432656,-0.1048747244771991,-0.16263110327412614,-0.2031311813028578,-0.20979506910235407,-0.18446739720344604,-0.1397858658615876,-0.08534252820371585,-0.03045548149886565,0.013546666848049956,0.03949925947545175,0.06699050720203394,0.11294760624222926,0.1815314798849674,0.25774466566918386,0.32656743617546197,0.3695991120291321,0.3884918280660472,0.3922613694581093,0.3982925411323479,0.4124348765239507,0.4231261486429298,0.4130289168029199,0.3757844610468592,0.32993566358249465,0.30776322021167235,0.3265563218697567,0.37442244394885094,0.4226079241592111,0.437860790097939,0.40814359166093295,0.35208263356832936,0.3099323934292608,0.3276156945551898,0.4315413121070967,0.587689754400615,0.7111418173498915,0.7546516601136518,0.7076678832578078,0.5300314028767574,0.16655760366845596,-0.24269340491653024,-0.49846061421896026,-0.626195976836169,-0.6739205644682935,-0.6657412284298394,-0.6165039912592972,-0.5476920019763228,-0.47992183738670285,-0.4319130019829717,-0.4165363288233745,-0.4267949808420723,-0.44218829809845717,-0.44745592487897423,-0.440560173171791,-0.4383347908799207,-0.4542844465631985,-0.48900954076340364,-0.5271323715942396,-0.5448592713520821,-0.5288860354932096,-0.4871060232704579,-0.43201341105938773,-0.3740268741433304,-0.30997386133547344,-0.2259973885545158,-0.10858316401704649,0.032408903705400734,0.15708207462239265,0.20367349991369493,0.13501254006982924,-0.043119680589690124,-0.25975976101073334,-0.3927206626454177,-0.43977875879126865,-0.44062679160748763,-0.4155568511274006,-0.35488839337868977,-0.23263207102293387,-0.07343662752122378,0.04280527583753891,0.10246826902713027,0.12356759462879628,0.11678467217965567,0.08202250346502257,0.01777662398616028,-0.06320621064425175,-0.13391100260493108,-0.16739779385631,-0.15417897834327982,-0.118266664977245,-0.10256614126631736,-0.14496866377977216,-0.2599428411456653,-0.41670259790973935,-0.5496362886620287,-0.626922794043453,-0.6555283586159639,-0.6423203233165532,-0.5833794469057227,-0.47830311357078126,-0.3450062373367899,-0.21413497949262864,-0.10986996867000123,-0.058478786360891315,-0.09111460092345056,-0.18884508454484714,-0.29600826626810295,-0.36654427401770273,-0.37829170561210773,-0.34471584477305095,-0.28753888888427437,-0.22534116504265705,-0.1627470580047157,-0.09986118329122792,-0.035416376986462564,0.03182692430221417,0.10765157786318492,0.2050466447139338,0.3295209531880155,0.47414303940294,0.6133046234834937,0.7257841906398038,0.8007746761458021,0.8439339171106455,0.8616130914973191,0.8634884939492834,0.857728831175027,0.8489655109547812,0.8374157367651363,0.8202687015545347,0.7979085748291227,0.7739751267742978,0.7559293965593029,0.7397274087787759,0.7122381552990484,0.6661095415613559,0.603583377432507,0.5260298761431035,0.4373504477504697,0.33711236007114104,0.22220668158623938,0.08463685366287141,-0.08502241958169365,-0.27256911123403116,-0.44142307625255695,-0.5727947821592112,-0.6718194137432845,-0.7412523899120149,-0.7779513223493373,-0.7762116835216002,-0.723488748082715,-0.5956977236640585,-0.35954539397241203,0.0058797848619448105,0.3956260747028595,0.6081661650101806,0.6291291684996481,0.5615379621834954,0.5036116138616034,0.5008028931432892,0.5538252327651105,0.6326670701582726,0.7070395598638229,0.7540793196907264,0.7633936989307254,0.7355932851704703,0.6824739766592594,0.6189841547276834,0.5581442718948566,0.5037740176721188,0.4169495640966599,0.2123388734869236,-0.004487599471004079,-0.1774783068231343,-0.3185395694432571,-0.4143095275168068,-0.4689343597788502,-0.5038130413419308,-0.5361253580655315,-0.571620294174001,-0.6046271201003484,-0.6284393028920967,-0.6430304698286393,-0.6577836557703204,-0.6860408645204465,-0.7282087666342963,-0.757142078542381,-0.7499585567307762,-0.7375202480055221,-0.7436524749636181,-0.7679157783122187,-0.8045522440367681,-0.8448249000276541,-0.8835033067561968,-0.9159348656707877,-0.9407641292331199,-0.9564174069900542,-0.9617080668290392,-0.9515860029406809,-0.9101375518192572,-0.7940922297056431,-0.546815823334236,-0.21707502507134227,0.06998099771377247,0.29534480857029544,0.48267850374549626,0.631153998999408,0.7249748959066503,0.7639338094218583,0.7709554101357315,0.7788263251794996,0.8063160194330075,0.8491804249288558,0.8896609937776684,0.9138155646749815,0.9190405618663845,0.9031537575488019,0.8571659742833821,0.7596420062429887,0.5575941855613323,0.19101280723588765,-0.2118781973324326,-0.46071572277777484,-0.5763628078488571,-0.6271561953720635,-0.6575535079894579,-0.6866036896695913,-0.7205680442647829,-0.7613315475942561,-0.8017300226079898,-0.8244482417168433,-0.8201241234319111,-0.8056396364773502,-0.8128841535483694,-0.8415508058891584,-0.8040427534723056,-0.6421447920163029,-0.46524166839473663,-0.31236731470126783,-0.16878816590256657,-0.03176359615859535,0.08519090338940084,0.16123890156658985,0.18727501717579406,0.1679043981286398,0.12357458096486665,0.08228702810517499,0.07054385079395897,0.1020482750695323,0.1718449292005698,0.2602225062436381,0.34242499025518425,0.3973718971492333,0.4016888794959431,0.32188294847120147,0.17641131753523628,0.05280063959320241,-0.017614355829131876,-0.038512037247688306,-0.01832675477858447,0.031664179795696135,0.0892619919135493,0.13500816005955846,0.16225639063686279,0.16218258371564995,0.11652872289244035,0.028592235081924565,-0.04573176626754699,-0.06284868445985624,-0.0408018677283118,-0.004878893760393673,0.02127681930027768,0.014518360186211289,-0.010357976376221868,-0.028990677604575948,-0.03844790826514034,-0.04950054317628521,-0.07253467269697184,-0.1043311607572738,-0.13614441014807369,-0.161136497178452,-0.17662997601456867,-0.18239903546425798,-0.17843275853367727,-0.16963793244497596,-0.15992857430509044,-0.1508600043419023,-0.1428258324503668,-0.14892263072392417,-0.17930129169298015,-0.23552771706560632,-0.29944485623909134,-0.35723533087896125,-0.38626645120114017,-0.38983980795285267,-0.3871960046094626,-0.37320748041454804,-0.347436756350495,-0.31996491945115707,-0.3006827203698303,-0.28067055183850803,-0.23281483502435532,-0.1283657642525611,0.04044657239628987,0.2227865560539841,0.3577498740612215,0.43002394256182064,0.45180031270482496,0.44663367211206845,0.44149847708341056,0.46241908590540615,0.5171992428807264,0.5913191545566878,0.6577433847962789,0.6955648198071995,0.693841354482779,0.6551855990012925,0.5948606134379384,0.529294718140783,0.46812653560175327,0.4158772384524964,0.3773141712168478,0.35865999853214425,0.36551783284609946,0.39432358087270714,0.425110842585817,0.44487945241739973,0.4513030005165317,0.44640180003862573,0.43036814699790954,0.40159118788143167,0.35496892034469557,0.3019646588791456,0.27395712520432697,0.28796311257317597,0.34408957402280715,0.4154127899321237,0.4739070074264903,0.5050707618880468,0.4960157863229947,0.44134318681979684,0.3434596410675909,0.24068839389867405,0.19194363361733313,0.22353335936150992,0.2970380712359213,0.3628888421728805,0.39135637554996844,0.36449476939266023,0.2842206825431089,0.1899149287777456,0.1121669634367475,0.053147092867005453,0.0210570875801576,0.02361536122444675,0.06625857985981745,0.13554450575376023,0.20168718310762507,0.23994999651715768,0.2433091054158356,0.22486489346686123,0.20182026903078948,0.18295042235101983,0.18340667770174168,0.2120092567984539,0.2693497771953835,0.3230464063619528,0.316664140009299,0.22119762923402497,0.0704822587384641,-0.0698303045723415,-0.17182572541443178,-0.2397297436213339,-0.2872626992493671,-0.3369371412660259,-0.41016812215155807,-0.5151822550071605,-0.6318290679015014,-0.7209158562485529,-0.7686890755276989,-0.7893117752330293,-0.7947179564069189,-0.7870026340404455,-0.7680847773923068,-0.7470839204329326,-0.7325049690006477,-0.7254208645501612,-0.7176767014997825,-0.6858963503774455,-0.590598159638054,-0.4037461230345536,-0.15289722358286442,0.07456269013133807,0.21512819753724344,0.24085017560655236,0.14423531023191358,-0.0669393027624104,-0.28612571742833953,-0.4287385150760343,-0.48811115220879425,-0.4884214302553511,-0.4221900960716908,-0.18618308100974645,0.29629318415331696,0.6290986776071306,0.7166183359492833,0.6980787610679363,0.6250778198094067,0.4979277062521194,0.30336779160913935,0.07414014337975279,-0.10631421854968572,-0.18703773805163568,-0.16780131310245353,-0.047593635671121445,0.13000232805677425,0.27909274731607225,0.3667083328101739,0.40626507445059107,0.4082148322023023,0.37334604284737555,0.29879409728600786,0.19699340314667665,0.10082962877075034,0.042853330867373945,0.03609026202118508,0.07076830375093018,0.13534688271381423,0.2162996096617087,0.2951952182087108,0.3543865063030786,0.3815451940510256,0.35675848025644774,0.23657099979686225,0.024435000285998484,-0.1276875658258941,-0.20548533317031825,-0.25821529045792063,-0.3080061544689164,-0.3556383309241455,-0.3872289114910122,-0.37278762084535944,-0.2850460432134463,-0.13805155715081155,0.020226932233754432,0.14422766251143387,0.22097172892481828,0.253765990943876,0.2624024987488912,0.26634274155625587,0.2744793606370616,0.2848824449321495,0.29845401788272297,0.3190891461904536,0.3399566063940699,0.34099504715117723,0.30665220524138614,0.21602217993605746,0.03894716928363754,-0.22118947729279154,-0.45807803947029424,-0.5794540401546092,-0.5777145184385712,-0.46220468743263593,-0.2700495968886354,-0.07056392513561494,0.08576203846804119,0.1885136267275115,0.2492033586863978,0.27792271776953864,0.2777722632181321,0.24181676530574955,0.16736962375534956,0.0638202889613013,-0.046441081767800894,-0.12013804702895964,-0.13209422690209396,-0.10063588271852295,-0.07237346951967787,-0.09273048940248951,-0.1700281079187049,-0.2590991785488159,-0.3040049369301723,-0.2933071356449931,-0.2406402767865521,-0.1695409098279387,-0.10498314213057977,-0.06749070534603682,-0.06705063723496336,-0.09732594402935399,-0.13798513810661522,-0.1645939461349142,-0.1456155459053842,-0.06288910931129624,0.07505173989155689,0.2030307522804159,0.24487199012581612,0.13373949595857496,-0.1676190214960205,-0.4994159274354826,-0.6901688143398353,-0.7665187516245046,-0.7798309309233944,-0.7689645769845326,-0.7537296984124606,-0.7360699625228918,-0.7124634507846664,-0.6862412005893458,-0.671994149784514,-0.6804986684134362,-0.698349465882469,-0.7064645266916364,-0.6687854405456763,-0.5749667848021427,-0.47431470846219576,-0.4049935302730154,-0.32534060284941124,-0.1402628861821713,0.1880575775814863,0.5258953101021228,0.7325274438486878,0.8309486262963679,0.8823876497339898,0.912734166587578,0.9290347438617373,0.9359047949739379,0.9366513790872131,0.9365890545016726,0.9401107132952766,0.9468607961652639,0.9532369962532481,0.955766655010735,0.953307169369064,0.9454341822351233,0.9310381034810273,0.9047101382685925,0.855135055428077,0.7556953370554809,0.5369297471025505,0.14637345441326022,-0.25516957397092904,-0.5041227490972824,-0.6309980339458054,-0.6741282248503193,-0.6423624031561478,-0.5494844912467077,-0.4437648068599813,-0.35942664011793657,-0.29852065197035166,-0.2639195399247372,-0.2526519751321828,-0.26317115286476633,-0.28289954101580833,-0.30045256028062206,-0.3095727968204153,-0.3043021465554664,-0.2770360446184839,-0.20270754127657767,-0.03441954727639803,0.06232464275093006,-0.006612681412152388,-0.14440963047526112,-0.302894898859664,-0.42948788424227485,-0.4876397870350597,-0.49456580775638465,-0.48774549300619835,-0.4915272521362918,-0.510526130492536,-0.5326614083120895,-0.5466365263260959,-0.5601612028856725,-0.5813226553405212,-0.6004696850895972,-0.5962182032690375,-0.5454470062234906,-0.4455319691062289,-0.31037953982627026,-0.1541839595884829,0.00895775333770087,0.15999017044736175,0.2862594527121754,0.39182954729634717,0.4843953304055343,0.5715664492910921,0.657037469013734,0.7301154207226858,0.7576740094024915,0.700350754460005,0.5819768062023251,0.4696079481183163,0.40053175173058025,0.3772355950675879,0.4034866011134588,0.4797838553193349,0.5928349568636387,0.6801300006112587,0.6219938782531402,0.4043842076328589,0.14344552035877067,-0.0709326686126114,-0.22209136653569564,-0.31996013316381716,-0.3415552545145666,-0.30634540947540984,-0.2742992683083613,-0.27216817194563186,-0.30311786183646655,-0.35461184506777177,-0.3935122640722935,-0.3989181713199738,-0.38093297714447516,-0.36067681081030006,-0.3527558205079609,-0.3730143928546398,-0.43708640003074933,-0.5514160940048809,-0.6681276542074124,-0.6987020391675344,-0.6402817015736426,-0.5669990013021445,-0.5165942519222358,-0.4940758982938831,-0.4907203625105377,-0.47950830221211643,-0.41607133399640545,-0.29711359540438415,-0.2044499157736549,-0.1562072455440904,-0.14374817233822051,-0.1598100940629284,-0.20915920580334602,-0.29042297059239564,-0.39168745181459286,-0.48996512684135585,-0.5533519134107205,-0.5823152073035605,-0.589110778659718,-0.5882546594350498,-0.5853723827664875,-0.5814376709739184,-0.5809656690961204,-0.5738848195078862,-0.5421209866057639,-0.4568932413683794,-0.2885241777502193,-0.02435804780526365,0.29356702670485996,0.5736942605871984,0.7513406175702421,0.8422042328254383,0.8842174837005027,0.902262089340721,0.9070869763982965,0.9052461774531773,0.9039486674447923,0.9077779989798083,0.915032876867212,0.9171511974172383,0.9091640988092086,0.8947063797724327,0.8792735605107663,0.8622362744494553,0.8283146230531205,0.7209488518446184,0.32503888507504175,-0.40451829430565467,-0.7087509635634415,-0.7704267122643171,-0.7317544858847218,-0.6324986842972808,-0.5329799994303406,-0.4732794408191893,-0.45540982000400987,-0.46840075202683285,-0.5038317061988703,-0.5568753544637696,-0.6191713691160065,-0.6727533060975246,-0.6923522786769779,-0.6637026075056639,-0.5713732352875672,-0.34146065242028145,0.07586299190134324,0.3455453543235171,0.43664481583605724,0.47405911765754527,0.4961561885442647,0.5106740870357029,0.5188432217814886,0.5282891110473803,0.54116813340909,0.5590729688988308,0.5815554798792735,0.6092307244035217,0.6420248478358054,0.6736702364786811,0.695854170795059,0.697945563538784,0.669205638525114,0.6025654718868726,0.505752368587343,0.3773838099026984,0.20067485733446014,-0.03032258011189803,-0.27643804645619197,-0.45801453282671506,-0.5670397391724241,-0.6394106951174388,-0.7045662713698584,-0.7614336910592245,-0.7998943978289609,-0.8240136366270109,-0.8432049203618254,-0.8618394025584374,-0.8806471823286102,-0.8959394413722547,-0.9029079699344904,-0.8969178651699465,-0.8726880706544895,-0.8222875037372466,-0.7296171343077963,-0.5720047631245029,-0.33770748489625235,-0.052741174055857966,0.2331798737829694,0.4754639313611121,0.6553455357933318,0.7620715174244292,0.803648160943003,0.8046189476237091,0.7919131785390551,0.7818227315098609,0.7772461854285623,0.7736512831597269,0.7694746846786626,0.7624912844672678,0.7514141839709999,0.7320603772505777,0.6944387796553011,0.6153319138182647,0.4443715901162867,0.15253618022753782,-0.1285891896836129,-0.30594792965237244,-0.4234602542185966,-0.5265957223003482,-0.6299443886266889,-0.726127939242465,-0.7938316078065646,-0.817335341353254,-0.7956200954177417,-0.7415467585538451,-0.6750069607405579,-0.6110157365464978,-0.5581558436974403,-0.5015659351544317,-0.41767337766481744,-0.2757666175381135,-0.06031516486994544,0.17112143697964396,0.3301969204314681,0.40596766876582824,0.4278851031656964,0.42520675243139233,0.41474246630417233,0.40443983072625206,0.39540857943100555,0.382590753577592,0.36029347813128537,0.3258176903381156,0.2768018185155092,0.20548949031339347,0.09958474779781383,-0.04733301453844654,-0.24017371484313116,-0.45709656375852675,-0.6469866821597592,-0.7660990840932175,-0.8068575363194705,-0.7928491157412227,-0.7595145050951466,-0.7282741065061521,-0.7106996145253357,-0.7083619050101808,-0.715882111347485,-0.7036207968387617,-0.5731130956208697,-0.31051507589886124,-0.11924082806013848,-0.032743889821975285,-0.00038157426301942983,0.014093003608981965,0.021494029643874552,0.020869145729535004,0.01634066981805336,0.004950569599987168,-0.012121363821946984,-0.028753565184174587,-0.042942452107023577,-0.06222210989726455,-0.10236782442559411,-0.17426434981613834,-0.2828294480182491,-0.4216645933940324,-0.5617385705133485,-0.6697746201018756,-0.7271494336717479,-0.7302991874732052,-0.6773328079666225,-0.5655824339403084,-0.40120494973506265,-0.20255452709869054,0.009091681379930308,0.2184931404315176,0.35456354446627314,0.3738834226116204,0.34771227420108786,0.3327416083191489,0.3545945894205836,0.4226263538902397,0.5283200233587831,0.6441232275650486,0.744917148493262,0.8174944722361912,0.8640349041561046,0.8936648361831515,0.9119183924192796,0.9197762643221843,0.9146895347128988,0.8931340639500436,0.8549298434479427,0.8115280222294496,0.7800335878255875,0.7654567772299644,0.7577362715650424,0.7464914584471999,0.724709837360583,0.6841567420595163,0.6156395592510994,0.5132893283705097,0.3777928747027945,0.22448176662540756,0.08162699873288669,-0.02426816252514535,-0.08635334654467265,-0.11344364979574448,-0.12483438966812617,-0.1396756516684774,-0.1691570258421577,-0.21684189361511932,-0.27516505678751874,-0.3327398670104051,-0.37359281226351027,-0.3809972194021715,-0.3438845943022712,-0.2735518950248135,-0.20031174346962002,-0.15275899719797548,-0.13848071337855694,-0.148341019928878,-0.17289207719092015,-0.19697013886204592,-0.21271346374740863,-0.2171943599357343,-0.21564774291493258,-0.2113359709314143,-0.21152446525356197,-0.22738153227233385,-0.26978752321204413,-0.3425271012209597,-0.4500366297352778,-0.5814370764155553,-0.7136242040610683,-0.8055087101516565,-0.8181961473340941,-0.7583854438383332,-0.6700901073063876,-0.583312946505161,-0.494042340262784,-0.39917997278793205,-0.3104825986772564,-0.2400904509691865,-0.19200696998617053,-0.15552327136428704,-0.10579895480070314,-0.010313891840338858,0.12333269563094967,0.23824538918185129,0.3071215268433882,0.34169493904470155,0.3575749946049326,0.3602241179600819,0.3401408021183971,0.27975098501389767,0.15179264631401088,-0.04379023166413497,-0.24496871426239386,-0.3772270502176632,-0.42582369667096753,-0.4146651244207678,-0.37769347979282236,-0.34304716241141553,-0.340763347434366,-0.37946848997036875,-0.4496957621215382,-0.535059552897407,-0.6301399461313892,-0.7233957536634047,-0.8029643103056622,-0.8610086580438141,-0.897963243430259,-0.9194765158053584,-0.9293301589976851,-0.9281156164458705,-0.9137157022534432,-0.8726730173582024,-0.7607962131528844,-0.40428636408564783,0.22546405227407723,0.5506168504937727,0.679160332514432,0.7680482842988599,0.8507303235111318,0.9173560105899426,0.9544039408373287,0.9676975919873946,0.9701097542677048,0.9676536957123971,0.961816464606622,0.9510589401064599,0.9292316498364425,0.8802981645473982,0.7665680308735524,0.5180435834858643,0.12120869108770163,-0.2365418087398822,-0.4289196845934135,-0.49223166439960114,-0.48226659738702155,-0.4301605822054364,-0.34802564985902856,-0.2438569200842545,-0.13306966182254185,-0.033340088976812184,0.0409457581453408,0.08310124469949069,0.0869346634171759,0.04440913573215603,-0.026514290615424194,-0.09713736912105128,-0.167870805994906,-0.2520235647858907,-0.35825932422404616,-0.48180479477646176,-0.5972519141388494,-0.6795227885852324,-0.7279799442013696,-0.7575299517798137,-0.7710555787696008,-0.7598196687549691,-0.7170218126083494,-0.6273257512435526,-0.4555338370980499,-0.1859709114352874,0.0986284501631554,0.2856655437455997,0.35709555820819994,0.3521616917502931,0.31712748117548684,0.2896588922756792,0.28690260542909496,0.30825232119580587,0.35484460196895995,0.4210842717135346,0.48797326629749077,0.5269825392265904,0.5178707878712095,0.4486183520197389,0.3271414749956813,0.1908092519150724,0.07782610982406796,0.0022073458432172463,-0.04146876497929894,-0.06523035074711211,-0.08544747969948782,-0.12501513451557547,-0.22411901521723662,-0.41032567536726416,-0.6093669189408223,-0.7090096291245445,-0.7314966892386453,-0.7264118766580329,-0.7037334628534113,-0.6631720687931636,-0.5999449997935039,-0.5018935827378136,-0.3660936558686293,-0.21118647765934903,-0.050968446748337566,0.10205183082051196,0.24498616296472026,0.37726270149909785,0.5007069220005711,0.6080078048539871,0.6880648047696377,0.7357747974631816,0.7563089469209916,0.7554385114645855,0.734105100988525,0.6905055653506021,0.6223672968723128,0.5260834101492525,0.40269167110780413,0.26922470314838975,0.14750317879061875,0.04398840369406858,-0.05689224892900908,-0.16841319583860104,-0.3035247728068406,-0.4638333847428968,-0.6273249255120614,-0.7594300000059665,-0.8278228639329992,-0.8105341560586314,-0.7064098514490477,-0.5422153181663067,-0.34137487421377616,-0.15257408449369095,-0.013109802019101351,0.0770798954291338,0.13202008256151387,0.16179206356938278,0.172768063004468,0.1539403134269736,0.10246976863574676,0.02938308117908826,-0.04665028162426728,-0.10276972081300768,-0.12734779496460974,-0.12618236633885635,-0.11599584206827862,-0.10992452748226329,-0.11397013843933505,-0.12952215642573484,-0.1597270661304962,-0.20742781726698722,-0.2697575553973938,-0.33359184325752816,-0.3881121140204101,-0.426813620985303,-0.44807524322896414,-0.4441205077219094,-0.4093775588531778,-0.35493653544990134,-0.30556293403830387,-0.2712292544111172,-0.24161161758127658,-0.21144914491585984,-0.1953209138278261,-0.19670639702050413,-0.21094691791100154,-0.23665083697258654,-0.27193834392371563,-0.3032119588239943,-0.314536921006001,-0.2958752983918058,-0.2515086206676984,-0.19375815327717655,-0.12638755357431122,-0.04378906323098068,0.061382630917494435,0.1799387245739155,0.295344520988903,0.38659004471071867,0.45573720751428426,0.5252051097714286,0.6063027494828742,0.6715834323529627,0.7032583939755989,0.711742352932237,0.713006461860244,0.715043137930705,0.7262939248051196,0.7468714906943402,0.7718035587087291,0.7893149460948368,0.7876164831227531,0.7611705538060233,0.7034273105744763,0.5905335980864328,0.3840147557166725,0.08464508460047128,-0.20836016719539563,-0.41468553282837767,-0.532411440035647,-0.5822953647226412,-0.5871429898098214,-0.5638356105782694,-0.5183902723813282,-0.45796944617675234,-0.4013878649192088,-0.36944826114105545,-0.361119898144996,-0.335549619214414,-0.25825429130334066,-0.13540353358769333,-0.016434977813442688,0.06537524109857756,0.11184023356639207,0.13086049214540255,0.12358582035426553,0.09262575949242541,0.03886305450022066,-0.02129598323864458,-0.07107730655169547,-0.10797252770332783,-0.13969856230639216,-0.1638061228782976,-0.16680770201269046,-0.14840600875777107,-0.10496114139694229,-0.03241866703732292,0.059910897395780476,0.1431876177451937,0.1768010149728141,0.15450111481213072,0.11424509908590313,0.08516705765045161,0.07647626136322634,0.0949827277899045,0.15691398553617952,0.26971549061160044,0.3989648541980576,0.49918525938995223,0.5246121129149439,0.4338612167394457,0.28645478463513024,0.16098070150832147,0.07265369851365103,0.014650044471683695,-0.017409189622733544,-0.020334114137902204,0.0099887916501175,0.07425663949142876,0.1719417590464098,0.2936119292900106,0.29080187975120386,0.1009546952821728,-0.017312042580114758,-0.06746471058094877,-0.07116097516391123,-0.0412110731004582,-0.003105190986481844,0.012805377782321693,-0.024340817160389994,-0.13095442713623395,-0.2968542067550633,-0.4750979436996472,-0.6198306644813465,-0.7099254504197042,-0.7190146642139189,-0.6294348877342195,-0.49386412634071364,-0.36702715872644737,-0.26114390471784044,-0.17356684553889842,-0.09784837844580055,-0.02123885803261462,0.07930804039621471,0.22293023841040044,0.39357282715014064,0.506942366648264,0.5204924468140658,0.49959380351752763,0.5011211080380594,0.5597011815257373,0.6678339284762955,0.77377310836728,0.8333910375090684,0.8318003277722518,0.7767827701389665,0.6868978462206452,0.5716393231569897,0.43023781659249616,0.2714745606053683,0.11312065826935468,-0.0075365815479211135,-0.0521505633488706,-0.043890581778501934,-0.03174885396011957,-0.03824008718732806,-0.06319581621252725,-0.09713580871213569,-0.13681491245523988,-0.19110191757304607,-0.2721007338965642,-0.37976824708448115,-0.49741530409762863,-0.5996468393024827,-0.6766569588524388,-0.7379945244730253,-0.7841777954117839,-0.7485025069877886,-0.6229796579495961,-0.5302198217123273,-0.5007784599867432,-0.5095816048188775,-0.5384741904171351,-0.5809292157895357,-0.6353025239314192,-0.7034604588661654,-0.7647303313231648,-0.7828446344740773,-0.7494443780157244,-0.6630908306977557,-0.4926034253642032,-0.19552323059774157,0.15794571044253805,0.4023594843903977,0.5124757776522569,0.5366206678993334,0.5083088771137116,0.44875598733848165,0.37186647336298206,0.29271669530833583,0.2250331094843368,0.17187520782981847,0.12672645646770256,0.07719566302202066,0.02259514064529025,-0.012100674419427216,0.014834011244906799,0.1646409254337875,0.4555285303464897,0.723613094186188,0.8389712353531533,0.8300813023770742,0.7182559157577658,0.4472948012649431,-0.03609911150747459,-0.4641324585678333,-0.661098554799216,-0.7204425234251383,-0.7233737023574702,-0.7112899623814547,-0.698264959740156,-0.6837804508047076,-0.6572143638549319,-0.6014179600581564,-0.49914123367548935,-0.35891099015683897,-0.23550029778524809,-0.1618174407475173,-0.11095447754614762,-0.04348679405753505,0.06620073133541382,0.21616655662536266,0.38615320645231493,0.5535242984856589,0.6919183236063705,0.786738519411149,0.8443353277378917,0.8785633195053507,0.8972598954076825,0.9031691854274405,0.8990881734926046,0.8870050583974949,0.8702956035675375,0.8539247031725071,0.8305248593833405,0.7554869250784879,0.5289165690890686,0.15616075531826074,-0.12064164191481655,-0.2182351191586034,-0.16979827693955146,-0.004302778102716766,0.18357001804895368,0.2924158384482337,0.3309222229319433,0.3287225601855073,0.30442881423057444,0.2660357095055203,0.21639798791134332,0.15458464922050658,0.07445124898186016,-0.026597045747524185,-0.13845058305023467,-0.24191369444967992,-0.3232082013790786,-0.38177131349718135,-0.4354212303132552,-0.5139219709310509,-0.6246555375320484,-0.6840857909132295,-0.6236530665346272,-0.5182378264956844,-0.41950114029501645,-0.338305390545482,-0.2754047162586728,-0.22990025376248946,-0.20072672067427372,-0.19084585715619848,-0.19977519168280206,-0.22095880975678922,-0.2433361095739302,-0.2569932011870453,-0.2592297039132111,-0.25284233488142716,-0.24582122421737393,-0.24533781487659306,-0.2613640215355157,-0.301471747810729,-0.3615698652816111,-0.43097093918824975,-0.5030961445575042,-0.5813687461101511,-0.6727950166201219,-0.7690590331335376,-0.8462719915123907,-0.8861981962437254,-0.8964306226679549,-0.8904263611276532,-0.8694316122287277,-0.8258243518275978,-0.7382762513551363,-0.57394718987957,-0.33561569877764724,-0.09496587863067803,0.08461424155148696,0.20179172806215342,0.2843976264268175,0.3584814336081386,0.44215150081807064,0.5366090514733849,0.6318560198845219,0.7157444210644821,0.7794772007654898,0.8171951956915774,0.8219796322889488,0.7880903468177196,0.70802786710855,0.5839703190854555,0.4419377650299246,0.3201024992425282,0.23954892225398916,0.19669967328998156,0.1795797635284581,0.17005881325037295,0.15568301710756885,0.13395615931318608,0.1053123021696791,0.06311126471542354,-0.013014862396599203,-0.14774333038749116,-0.35999638039361886,-0.5998439211918711,-0.7292638395943316,-0.7242324164095336,-0.6506725900027338,-0.5465844838980269,-0.4352895072081131,-0.3309700819800995,-0.23851154028634977,-0.15871214638324427,-0.09771201018016319,-0.055566570440500146,-0.018944579473679776,0.035648065016042535,0.11674075841544986,0.21667147423589975,0.31765279243510114,0.41061750024859744,0.5007429894565214,0.5878292865646354,0.6570239288924977,0.7010584743358472,0.7197814153267744,0.7186487073007882,0.7007121545966837,0.6667365117920422,0.6202607238337455,0.5683724013463746,0.5238424702471295,0.4986047471521082,0.5009937359161618,0.5376927339834083,0.5979204800328104,0.6586937526040831,0.683413204862049,0.5948354113411626,0.280094462820496,-0.15872832137456988,-0.493809371283375,-0.7106602254700428,-0.8591020334049964,-0.9369814274298077,-0.8599141799253072,-0.6938737536848172,-0.5884862461280215,-0.5397772267325424,-0.49203610957886157,-0.4212684945925738,-0.3558235340444589,-0.3267086526768253,-0.3378300270405146,-0.3647035705665856,-0.3904231766142502,-0.3931221285235552,-0.3279547920597507,-0.17569970980892094,-0.004930468547758536,0.10456179309170674,0.1354670323917071,0.09578203308621693,-0.0029695976084188813,-0.1385904141577686,-0.27219907754831035,-0.36575420042518736,-0.4144238940530775,-0.4279058068389066,-0.4144289652943024,-0.37586350179929345,-0.3190587622212736,-0.2543956479605708,-0.19299062634797365,-0.142257972097645,-0.11225113287130835,-0.108446683635823,-0.12890403122827185,-0.16332827159796517,-0.2139339783415213,-0.29940312926155593,-0.43584962971009317,-0.4548139535784006,-0.4008003353948368,-0.3998258989031802,-0.4138776938110251,-0.4143213263869108,-0.3974233903148474,-0.3702090179384746,-0.34541892479447195,-0.3316807153740324,-0.33507468590371986,-0.3555203857637376,-0.38960730604645255,-0.4360290643524957,-0.4836380188165876,-0.5175948265740962,-0.5149236396400015,-0.41532801824683124,-0.05798675503019814,0.49721964852564576,0.7821871419621841,0.8825309263460491,0.9230571510839206,0.9409726846546739,0.9475617493080019,0.9470265768247296,0.9411487083234137,0.93098682031916,0.91928307048268,0.9105394756170953,0.9061397012875568,0.9053222929693387,0.9066269834507262,0.9089473648498647,0.9137764376800253,0.9230302908017883,0.9330799704440299,0.9354824956841714,0.9177440523510298,0.8516356954788443,0.6247558106156043,0.038944910867676784,-0.4639074702095194,-0.6731108551420059,-0.758042425681897,-0.7770575430532294,-0.7434564199308513,-0.6757813784898035,-0.6157569720623758,-0.5551636065114357,-0.49193239067564054,-0.4611754224547639,-0.4703525649136335,-0.4908318256396488,-0.477098805567086,-0.3894883757666661,-0.19699308438463806,0.08170183615305535,0.34580116556929,0.4712837682854672,0.38995836597719563,0.10928271739788396,-0.18344614767206288,-0.369623691922695,-0.47429531649444195,-0.5434626014856387,-0.5988042563963168,-0.6477927360390507,-0.6901440385671163,-0.7185670525623074,-0.7259870099123633,-0.7168419678238492,-0.7019149388952818,-0.6918006583905131,-0.6920146664694722,-0.7039295877630865,-0.7206975593721031,-0.7252195098774546,-0.697460039413418,-0.6309112350252397,-0.5442132981535338,-0.4623943937499167,-0.3961726809545124,-0.33980443092219964,-0.2852890674685893,-0.22922952687643086,-0.17349405375592195,-0.12472369419002792,-0.0762373112962161,-0.018645927886266515,0.04914136413180124,0.11586207855891704,0.1738234796331895,0.22309059600982123,0.2614512799506999,0.2796378156745303,0.2794036884818217,0.2742870632243388,0.2727685837206182,0.2742979714278994,0.2773679524427935,0.28878875125890163,0.3166262498189743,0.34269165459362916,0.2885645612520639,0.11199016672134474,-0.09664835483037694,-0.23483769680906943,-0.2811561385262906,-0.25388278363042077,-0.18536598014461264,-0.10747408431252961,-0.039466784882557615,0.005687576840190717,0.020658898696208614,-0.003815997138291213,-0.06523354653623105,-0.1386167541562098,-0.1901533869500052,-0.20069536023704093,-0.1572886646337236,-0.05968990929164607,0.05595219878363145,0.15019327728689114,0.20834791950132886,0.22560407370134328,0.18580705283806612,0.10263912773259418,0.02368311769317078,-0.0023261596523120403,0.040985768527136264,0.14640511364337272,0.29238224265204543,0.4363085108419874,0.5428373070230735,0.6199060082807792,0.6832772723594156,0.7410994300826569,0.7917423649927887,0.8237483554858259,0.8152488765647017,0.76564856099074,0.7121377403254199,0.6814434011240843,0.6654336756740906,0.6490711118600688,0.6207446239674261,0.5842273482438719,0.5465096675981714,0.5023226358490083,0.44279258552544315,0.3650709935945065,0.27141268693134535,0.18105473806646089,0.11205720574669632,0.06640370796104984,0.036599834608245896,0.016152457556377346,0.003706103544793573,-0.005999614875889416,-0.01658594785831274,-0.028539304351519527,-0.045486195435146835,-0.07421053755840254,-0.11993363903509317,-0.18107175415316717,-0.2542259517595468,-0.34872556291865453,-0.4735545154383038,-0.5522603913128931,-0.4783068984699541,-0.36124118824577006,-0.2654755983262737,-0.19535615488552105,-0.14951297703572627,-0.12518547278209047,-0.11643305066320696,-0.11833422098111689,-0.12574332342600864,-0.13094107121461485,-0.12569893747126618,-0.10440310591452669,-0.06631557245943108,-0.019516667865411546,0.023630985792784977,0.05958006957697724,0.09237945786429921,0.12840094052196713,0.1809472118910654,0.2624430200596514,0.38980649028198183,0.5552472339207452,0.6913407428129285,0.7296591880801911,0.6838322245346654,0.586722235117234,0.4683198205709076,0.35466225067617174,0.2619848302395214,0.2024243692919568,0.19806112822815602,0.2515019409981757,0.3348465900612089,0.41806272292076807,0.4872068867817099,0.5384739786433974,0.572682135546571,0.5916268395477473,0.5929313797778809,0.5696896937835922,0.522026287004752,0.45723823373121014,0.38143789112844584,0.3005961560541852,0.20649115188241013,0.09240991396757547,-0.038051126061737786,-0.16602283739863635,-0.2750526096611933,-0.3587822831858858,-0.41779735993488826,-0.45500590221849807,-0.47784380359606415,-0.48675288253556087,-0.48076210956883425,-0.46387917937302736,-0.44729133999371107,-0.44786127767519746,-0.4754406541952965,-0.5289605886893803,-0.5855510884938896,-0.6039495372121657,-0.5154310730392223,-0.20484391998284526,0.29895450732759143,0.6186042548089289,0.7293236595478717,0.746959576423248,0.7157085003571931,0.6599744869605254,0.5882272227460748,0.48307437738286,0.31330343542552835,0.07410515327775075,-0.17544048446183633,-0.35939035078154485,-0.45542031780917286,-0.4873444382863906,-0.4872091723000863,-0.49545836653614445,-0.5360559613416572,-0.5895666056163663,-0.6405332954726672,-0.6870428586204201,-0.7262764282171975,-0.7526974784112204,-0.7655912498875045,-0.7668674476095237,-0.7563691886577866,-0.7304900487506633,-0.6845875907083848,-0.5987676352748748,-0.46250221608103026,-0.30729095735972317,-0.18196051199134766,-0.10153609452091093,-0.04878904645769854,-0.008477180802008035,0.03468668667906759,0.09337711991040773,0.1705506656289498,0.26191787119453125,0.35046003352208877,0.41661771705610356,0.45311452938081537,0.4675511702075641,0.47450812559396216,0.4716811688122202,0.44705263119252847,0.37891114788426106,0.24269261306150586,0.06319303814534627,-0.0814816600400042,-0.1533167509524699,-0.16190839215452607,-0.13828503437467046,-0.10710688838860952,-0.07883835389351301,-0.04435106379560896,0.016483378014243,0.07815160763568291,0.08948786767174825,-0.02631877000208678,-0.28431486457796257,-0.5175270617302373,-0.6214393076706961,-0.6157911794232737,-0.48042925367184947,-0.16195295497450377,0.23436854697061935,0.5003356594134101,0.630929274856523,0.6746643666679111,0.654005771418229,0.5869713294036545,0.49119079276109434,0.3762113836525385,0.25109305247005714,0.12043256180854575,0.0008225841033692969,-0.08848506739953392,-0.1371678007416885,-0.13762499838753506,-0.08874213903374215,0.02673316733014155,0.22000259352567234,0.40693059742407856,0.4771633343598914,0.42153840177503965,0.2654805592496069,0.04947853406425983,-0.17105619807356937,-0.33894846591381167,-0.4255662852470234,-0.44349863771614,-0.41019090203350156,-0.33001742736866857,-0.2118779257025152,-0.07962254865599401,0.04024386847698284,0.13306332303657298,0.19560979821615454,0.2287755131111969,0.23868773407821306,0.2311818372091826,0.21355859351147685,0.18946292107227955,0.171569542070668,0.17482959520877975,0.20846107078574486,0.2762939052455499,0.3716824484832631,0.4398012355850299,0.41682410606446224,0.3384385918417446,0.264955046835198,0.2222884188071147,0.21528192279825503,0.23559461011717037,0.25251290193279174,0.25034154421086924,0.2542737925243029,0.27420512235228517,0.3096496079964504,0.36820994747824487,0.46502602046987573,0.6123916649784664,0.7782266554487764,0.886292943641166,0.9244714432814245,0.9325081726377504,0.9326190488511249,0.9268641773291755,0.9043439986578703,0.8308709198550703,0.509568105215075,-0.3301346501754862,-0.7301786320530023,-0.8296036243634252,-0.8561856410772615,-0.8618539008765979,-0.8612510241799946,-0.8599804962533675,-0.857813335093622,-0.8525398684046459,-0.8430064281481809,-0.8241613466460892,-0.773359839824296,-0.6310398442720438,-0.37173327603731626,-0.13677055474730856,0.01251909016457747,0.10228174398058995,0.1521463899993762,0.14577520901570895,0.05733071689698199,-0.04507767086925039,-0.09750414535693007,-0.10817179670296709,-0.09173873727519591,-0.05761959975499953,-0.00902147628650362,0.04872547602810166,0.113149085917091,0.17522324221373367,0.2244241546230117,0.25011971048626286,0.24224429404931486,0.1820918805265188,0.06783297750157309,-0.026549746027371913,-0.08301771636673788,-0.11593661807763064,-0.12729442356310264,-0.12045511001753459,-0.09720920463033464,-0.060351353231203754,-0.006895048574529791,0.0653289887556723,0.13701659365748314,0.17880292642869863,0.154809928656886,0.025047799602755057,-0.19922104332185045,-0.379289112379751,-0.4437156617402072,-0.4379576260075026,-0.3999854873550398,-0.3385986348202424,-0.25741700786828087,-0.15997993961303922,-0.05080384302073255,0.0511698695314439,0.1138161730773546,0.12472591778116587,0.09225082204818535,0.045033176824636256,0.025693980679968288,0.06804968810141186,0.1752609359430602,0.3213106570409242,0.4826860140720078,0.6313183474027694,0.7275676059342732,0.7624967507969367,0.7479904180178543,0.6880220636263829,0.6037825152451712,0.5414156590510989,0.4915971456951208,0.42388819275115164,0.3110661633385992,0.162920544016757,0.030058188989343884,-0.05027969531769518,-0.07769136990501631,-0.07334614778795764,-0.06709279842265628,-0.09355540436629581,-0.16131643240085247,-0.25001970626079884,-0.3330388175360152,-0.3908887455916834,-0.41455071410384087,-0.40692098450442676,-0.3756911973842671,-0.33190811082842514,-0.28321314886296733,-0.2256600730103973,-0.1320663474590751,0.007015204195924895,0.1745767772677577,0.3207748521201217,0.41084649538802287,0.4307319687521458,0.39189638909412644,0.3205155805020011,0.24498890674559168,0.17040149771861868,0.10874486837882229,0.06854357172267474,0.05300004558355987,0.056404751337241134,0.08383497461528276,0.13757386359279988,0.20926847136997764,0.27037345248202743,0.31606630492768717,0.3519663947072773,0.3777459771299742,0.3915051775346512,0.38885149577111167,0.37362792348588186,0.36613703640127193,0.3698458281838469,0.3593548260754483,0.30955860916879246,0.20074090555363697,0.027350183135274,-0.15916443621362275,-0.30462826564214784,-0.40676673702803307,-0.4768032441865356,-0.5250629966742235,-0.5499592519543991,-0.5455787582064988,-0.5051341603835041,-0.4101728399070356,-0.26191301633733743,-0.09092231293622743,0.06180300646436647,0.16848986317180295,0.20496057050710018,0.17279452781167468,0.10245543966913498,0.042503702716256656,0.020701531457873373,0.038880299389227914,0.07547179760596893,0.09592719541456037,0.07811743090820887,0.007730255840569015,-0.13622884014977876,-0.3104811135747932,-0.4061783192107374,-0.4057242618529664,-0.3446782371490609,-0.2354057772881078,-0.0945910527910568,0.040743308495003544,0.138585700129132,0.17700604755808688,0.1569164448232333,0.09643677467361307,0.020106325522757602,-0.07410931331903713,-0.23715791082488838,-0.5295764091894685,-0.7239377565567102,-0.6753392136427323,-0.5436152093314494,-0.3927703366201941,-0.25386745967264696,-0.14460816535549165,-0.07018053264479372,-0.027289540017803385,-0.00847893033364257,-0.0012688351123525162,0.007627467550233875,0.027818620767688675,0.06634306974232296,0.12611987725514273,0.2017406727438568,0.2812935058969887,0.36447249462702447,0.44385188063520176,0.48900451521282295,0.45859227907671685,0.3985696271419066,0.3537181661774813,0.31974769298780803,0.28682298440016085,0.24718639958885258,0.2037769651814022,0.16897530609744688,0.15209195223072156,0.15993484291330057,0.20240035234254178,0.30055045942193115,0.38668678230182446,0.33680009109520076,0.2972932992080764,0.27114096649418795,0.22267495135479004,0.1335466265501807,0.02432066718036872,-0.06844434482041664,-0.1238088253474701,-0.14358442995549062,-0.13706269874277924,-0.11046927957180194,-0.0675771027417824,-0.02180357349941449,0.0035869869348723773,-0.020274269361200213,-0.10609385330812075,-0.23783627626403459,-0.38302201854343554,-0.5154572829125705,-0.6195692650264023,-0.6903754968508083,-0.7258502558353127,-0.7300978455688965,-0.6993232887494033,-0.6137695605896832,-0.4383861173658393,-0.1703774005253576,0.11201527847405553,0.33849953176398384,0.5084168045259185,0.6206684272033122,0.6690556128826087,0.685942838907118,0.7025422378418349,0.7269079799641647,0.747453623647751,0.7525431242522018,0.7392878966658456,0.7112395945651167,0.6710205207950238,0.6245415662669555,0.5751429479327034,0.5253839873197822,0.4677320221571668,0.38286506211690385,0.24737122554618293,0.07408487108068493,-0.08252176407986309,-0.17924929118028576,-0.20787131032066822,-0.1764513310352761,-0.10783746074980076,-0.058589616234768584,-0.05900085818529712,-0.08560746999009614,-0.10810894224757442,-0.11522953028592631,-0.11749695261738391,-0.13498664479087277,-0.20079622622399218,-0.3049581741385222,-0.3872561863850262,-0.4149728715914619,-0.40595545666185595,-0.3778068803230036,-0.34410165372372453,-0.3070659655707654,-0.27794214576035065,-0.25373793711839343,-0.2246896273551667,-0.18369575528892068,-0.12253528559406704,-0.04187015646752442,0.050022237320091964,0.135190107586203,0.19402650817460437,0.21227164635330684,0.1933738444590408,0.14825075770649784,0.07051477607601446,-0.05728649894377991,-0.24147917356523493,-0.4410599281385633,-0.5959042962373209,-0.691982537071576,-0.737894732214892,-0.7389963807761314,-0.6906680604432225,-0.5876236785290486,-0.44766770137730333,-0.3103001057718166,-0.20596146703065263,-0.13287028388884847,-0.0837049094216603,-0.0529832978010529,-0.03366313470390431,-0.016230495941416477,0.017215439489769592,0.09314245170530222,0.20350517624637549,0.3116673799296788,0.39008604593642765,0.42910718013175353,0.43704390531816284,0.4190434859413201,0.3782090651815247,0.3188276542372998,0.2472471406314687,0.17325988114644195,0.10743266047147307,0.053960833794707765,0.01396731567914745,-0.014041317677832399,-0.031025444894180708,-0.036358850708637425,-0.02943685691200275,-0.013760940033183976,0.006778892574007478,0.02958089712973701,0.05421893114641175,0.08307919879067296,0.11904538271665614,0.15675766794884105,0.17584664570519631,0.15246631644600334,0.07105525599553526,-0.0613531781086654,-0.20198919093831783,-0.3062210817376451,-0.3529720403314158,-0.3502093848349813,-0.3212675977616015,-0.287532853822472,-0.25586949404452064,-0.23067613143447807,-0.20972413847424165,-0.19338632613352713,-0.18032323685474655,-0.1575682618806324,-0.12183607156143188,-0.06531556435643353,0.01670662705440804,0.11637498145957767,0.19596721558490404,0.22082654735175852,0.18350766731320078,0.10123408924482004,0.002730843476703201,-0.07803936067863584,-0.11441840266627752,-0.10196861230136131,-0.044376210502682575,0.053369684279108966,0.17800664315419104,0.29991836930436605,0.39856211408023806,0.48518430742185836,0.5677341066958135,0.6543444015928735,0.7440855436286985,0.823999374474913,0.8796302144865131,0.9105716500057698,0.9183406681187678,0.9105326547598936,0.8948646785809387,0.870329201186369,0.8191329091365377,0.711308199525213,0.5206247334232593,0.2253755705381266,-0.12722692471923636,-0.43671696631083445,-0.640177078275318,-0.7499751098809663,-0.7965802865141313,-0.8005886383240465,-0.7735931703923933,-0.7226650824857901,-0.6526228585657302,-0.5873974911234764,-0.5699278398840059,-0.6111663559867805,-0.6783168932391189,-0.7375446901968717,-0.75618578762541,-0.718963196572387,-0.6735983283017021,-0.6682546386915598,-0.7116735394076628,-0.7821404785850715,-0.8462904328968823,-0.871781500350865,-0.8401490721839914,-0.7495318882172736,-0.6058216537616722,-0.4272558907721808,-0.22785349213049685,-0.01767024218038418,0.18339242523127763,0.3570880011079398,0.4918767981333569,0.5903973307362809,0.662384124102021,0.7178040562074951,0.7614419453947672,0.7939534693505703,0.8123874593092375,0.8159086393601771,0.8027484823112729,0.7717463595361328,0.7151661371479591,0.6263938367288507,0.5285763859643162,0.4538534840041708,0.40894655342003167,0.3840961931013989,0.34530250808964486,0.24570977020183032,0.12347072355398434,0.02128094822685172,-0.05301621240567906,-0.10031529117143616,-0.11604541733697385,-0.09193738915104707,-0.014211628571894251,0.12472149210135845,0.28173172837744076,0.3979348080127571,0.4645283829047796,0.5038475511575307,0.5381206473673832,0.5760065031180543,0.6244907779601412,0.6720944087543514,0.7011809742993832,0.7049451170772557,0.682602724152914,0.6078581808659254,0.4459487882460112,0.23337819983148306,0.061860994469063055,-0.037678399363628226,-0.07333576240030021,-0.09051354095796876,-0.10661603307487626,-0.11446785209962779,-0.08957198797643927,-0.017192109703686752,0.08559167252326293,0.18419435824737876,0.25334140297177327,0.3005537233401736,0.338800292077128,0.3704039830466037,0.38703026299184673,0.38220245299115574,0.35419785789827346,0.30492665512511447,0.24053042090421492,0.1660949428737065,0.082511803510748,-0.004306680627477968,-0.0935416154049476,-0.1923749467370193,-0.31414962629482307,-0.4742405094609436,-0.613303685310484,-0.6091512388352273,-0.5170569000910631,-0.43439191610951033,-0.37998871590104094,-0.35352495605008716,-0.3495799268290387,-0.3603675359403907,-0.3797086454982092,-0.40291335163689623,-0.4299344903362745,-0.46144012047213506,-0.491952773066499,-0.5134893417179269,-0.5203845548792949,-0.509694534281551,-0.47636145367995125,-0.43046422078806096,-0.3933407086915721,-0.36530569455609946,-0.33830072564816394,-0.32246129389343553,-0.34889198137634064,-0.44335415137782147,-0.5773988058269337,-0.6788517283517902,-0.7191177169503804,-0.709605159095391,-0.6590128863402872,-0.5701191412501412,-0.41743447510209913,-0.15546969274788403,0.18509987064502317,0.4325744107951154,0.5089925676948442,0.4564354141871295,0.3299142532989017,0.2016433555664398,0.1343341218702197,0.1407884902063176,0.21123242545348528,0.34683202043625005,0.5288297324509446,0.7043183047328875,0.8191452157676143,0.8696537496723489,0.8748769537190577,0.8428048781209189,0.7812136388126864,0.6972314843577353,0.5973187867331695,0.4965681158927841,0.43239332116442675,0.42497904311381574,0.44127967930232725,0.44092128072069453,0.41822363301954163,0.3800276155379357,0.33851222217866167,0.3040499250343235,0.28577538277104947,0.27664081030758725,0.2705715273059731,0.27358468807260594,0.28851654172806357,0.3188821838835632,0.3671756058847739,0.4342448114394147,0.49767358341886425,0.49233074405554067,0.43645629189783397,0.3865186280201447,0.34826468867082955,0.3056521373025425,0.2248983821409897,0.0607035823099505,-0.1910118153552891,-0.44090626868806126,-0.5978591906443748,-0.6619409001951413,-0.6731463457286916,-0.6619042490944802,-0.6478978563846923,-0.6435779563341918,-0.6424562739938607,-0.6248404654598906,-0.5582992827794726,-0.3804119711144459,-0.016959324927700643,0.40529768320608833,0.6630019531993824,0.7926691150309376,0.8681871802610969,0.9206626247828249,0.9516161061912023,0.9613424949495004,0.9448791365435937,0.8772373160165295,0.7188346995361559,0.5164524981329143,0.3694470387412836,0.2913919707658419,0.2589879921170455,0.23696551056578538,0.21793128467857345,0.21245752564095738,0.22901203191387845,0.2665093695895637,0.3148120357875514,0.3587528824693151,0.3852295844883369,0.38835121322321703,0.37592914598319377,0.36093144946749967,0.3487357046244753,0.33521481799547087,0.3155805815597522,0.28312670943146284,0.22699696299468633,0.13806786837100402,0.01806929609624829,-0.10541129351628949,-0.20937486213073836,-0.29750510660588314,-0.3784084565442232,-0.4535578297448163,-0.49916835638823726,-0.5215422058627136,-0.5323910487383245,-0.5331306542183332,-0.5258829453601364,-0.5128933371206725,-0.4913902251318705,-0.4416958236415488,-0.31667454070160295,-0.056804391811513526,0.24644495837303246,0.4337358495714907,0.5193488347572706,0.5542552437608744,0.5694113388647498,0.5748418863364416,0.5662370168961283,0.5390487243005954,0.5145525691920265,0.5188967615142761,0.5429695063887066,0.5641636071326206,0.5517739245327489,0.4839629671295299,0.35661684931663046,0.21076092808711613,0.10211194985551283,0.057649672972745536,0.07746796344238634,0.13600007300029587,0.1602996349214839,0.08679688118863325,-0.06357230872012451,-0.2186187618564817,-0.3415847213568855,-0.4374324916299115,-0.5186441949455837,-0.5958305804820874,-0.6672273639838177,-0.7251861628053803,-0.7614334264236622,-0.7718151302763773,-0.7582610645812574,-0.7279659040256302,-0.6933216411439177,-0.6589349711371041,-0.6235478251176941,-0.5892966890000896,-0.5583659692689583,-0.5268333398424542,-0.4755117777010895,-0.4067040952897498,-0.33900692990994413,-0.2804719724862794,-0.2369782100995476,-0.20171330198427964,-0.16555910109669555,-0.12904025876421993,-0.09639813911747334,-0.06665339172952214,-0.029927629169344803,0.013640720913426716,0.05189343313240541,0.0671377763875599,0.07943663812492957,0.11508510590535145,0.18163299478242056,0.24594609189820102,0.2647921333151334,0.24067682614705227,0.19679052431451297,0.1513224036064521,0.13051762854824864,0.13698092296390232,0.18538186680806892,0.2871151380824255,0.4044192713906315,0.48485316735862455,0.5412225151360462,0.5878777542981808,0.6471997529395477,0.7391032340647419,0.8339719094600698,0.8606372585845397,0.8279969716443193,0.7834883181759837,0.7343723342149162,0.6671352536950279,0.5633185850131985,0.40980080631178645,0.2259018805258039,0.06283562697807148,-0.04615355011435813,-0.10822544282064328,-0.14712416154355515,-0.1866993453723281,-0.23688603132315597,-0.2805537453676253,-0.2918566423325376,-0.27173140561693027,-0.25654623461480547,-0.2667617983035693,-0.2780513827562521,-0.24866993891547123,-0.16844815970808494,-0.04118532043926552,0.10338764375363758,0.21105981814586516,0.2535889502922154,0.2610396665713402,0.280522266154449,0.34865294123464363,0.46248734547004733,0.5857453435668208,0.6658888225275066,0.6695702202146709,0.5962787266144126,0.4631654634608356,0.29247975331564047,0.13028133428250582,0.01976432165662295,-0.03852715017455353,-0.07405903318243842,-0.11103994280456451,-0.15405286420314776,-0.1998396528599552,-0.24240831848093328,-0.2819899919575777,-0.32663670406832335,-0.3789271351366369,-0.42447616430550594,-0.4545330485204139,-0.46185288479722725,-0.4407768859118459,-0.3957346373795205,-0.34687782776885595,-0.3030673784468526,-0.2645024348948701,-0.22770832454952705,-0.1809131664927829,-0.11583745059918181,-0.02838181239999934,0.06426754453922401,0.11371541761045807,0.11725084417229972,0.11468268238199925,0.1320593811174492,0.17396335163034563,0.20732473248410502,0.17175799588552199,0.0632595010730611,-0.09629869760730737,-0.2868722100917981,-0.4774550822084738,-0.6342958270931771,-0.7371125589940105,-0.76642603346292,-0.7303560353432745,-0.6623133660451337,-0.5874064618087499,-0.49331028983609077,-0.39937680713268586,-0.3370674797086328,-0.30860478046115325,-0.28848166651254425,-0.2317934097092147,-0.15605981754283105,-0.09056771202460817,-0.03892556497306814,0.0007916437696795178,0.04176265156274686,0.0865633098592089,0.14127757778683697,0.18467579288309266,0.2037277421380303,0.21387213064723382,0.23204402944242733,0.2600915492089796,0.3041442364496755,0.370545688106827,0.4464164431795705,0.5160633253214759,0.565957817697095,0.5885382435713945,0.5885882842152027,0.5686236461809325,0.5331358821829173,0.4846366802447764,0.43520754083585145,0.40525076776167096,0.4022391031973985,0.4071879789613385,0.3898405668231214,0.3322282897234197,0.22076010129088267,0.051936209697569125,-0.15591083318085117,-0.3836746212458562,-0.5946367983126731,-0.7498729567681608,-0.8494324177567403,-0.9079499229135978,-0.9301183650946648,-0.8829686987522137,-0.7159783539738984,-0.5012645117671211,-0.3579244988363027,-0.31136940558605053,-0.30827298896101274,-0.25147817910114534,-0.15035340302507583,-0.01855823667183007,0.14832144853878945,0.3293670600269269,0.4880870728936598,0.61437381554653,0.7033988288761797,0.7352272865894383,0.6933399202401754,0.5967889685328345,0.48793005643066617,0.39260550434245517,0.31035584065775157,0.22984212626999428,0.14125853161426088,0.04089661328750061,-0.06322877015126982,-0.1568642017155972,-0.23354019519714908,-0.29312645712618896,-0.34269829889895503,-0.3893224532582,-0.42539406970893623,-0.42341982685529117,-0.37257402987014304,-0.30384055697236645,-0.22189667099886684,-0.12434856418891142,-0.01492482142107757,0.10441860829362973,0.2365819138375531,0.37674854547805203,0.5125516645645433,0.6315268189169482,0.7228110421997583,0.7825245198916921,0.813998903762964,0.8223823637161393,0.8107632732973437,0.7769040245039406,0.718420193384001,0.6295846347128099,0.5028109173843867,0.3359888714358653,0.142725501556519,-0.04123854843541282,-0.18807320931775465,-0.29545342519158146,-0.3754316888144366,-0.44067722141133936,-0.4946961950744938,-0.5376287134567317,-0.5672904788084854,-0.5839047138780892,-0.5902159521128144,-0.5959192746511559,-0.6077470464488337,-0.6209341264434491,-0.6236982033334838,-0.6015101388475581,-0.5363005638032817,-0.40618645224392885,-0.22054065374465442,-0.03367179770381662,0.10635289523313204,0.20108592150411728,0.2753709589993054,0.34835853237573705,0.41012624570794504,0.43932814594413505,0.42911294166929376,0.37767806119665465,0.2747196685274117,0.09955812436139957,-0.13766500681341554,-0.36634726382503113,-0.5159962915137685,-0.5708278201420458,-0.5394572517724306,-0.45578633679421404,-0.4039194318085352,-0.43018381666656,-0.5021104619693085,-0.5718940082942519,-0.6146255070294433,-0.6260034294218982,-0.6145941670925005,-0.5951213720205492,-0.5917826345913497,-0.6277525751869143,-0.6992124928156845,-0.783145972859307,-0.8535005536327086,-0.8861213372050811,-0.8796862218819956,-0.8554876526761167,-0.8330195857378583,-0.8124503224502607,-0.7647320994452299,-0.5862066491735761,-0.11029794364792507,0.3291751127893053,0.5019231071239899,0.5133797003831158,0.4117746502607667,0.22371716494527946,0.02941312558235965,-0.1031930440621137,-0.15908258606145453,-0.13670160382185617,-0.05520041076437052,0.0606372957796688,0.19196600978161885,0.32083843475721624,0.42099359869271075,0.46448971258871957,0.45417412642828636,0.4470562325909515,0.489192101867757,0.5884313819183004,0.7129763710768032,0.8208556864449705,0.8907369931576135,0.915344957569117,0.9031973629141399,0.8706187343668331,0.8251188840506046,0.7663036152178151,0.6968125390991963,0.6220026679619851,0.5439978201019945,0.4742330016526575,0.42080465416085977,0.38467746957437154,0.36005153546074314,0.3346018830994754,0.30562564555478866,0.2823034926319841,0.2762794657287372,0.29528009070511335,0.3399077660393332,0.3908438044953526,0.4288141999828592,0.44537715312561926,0.4347382663348983,0.39603297429196865,0.32226559731532006,0.21323990270574225,0.05711774748475981,-0.16055577197286827,-0.4076365080208522,-0.5952703196777337,-0.6966764884525155,-0.7388712190271062,-0.7475316615616697,-0.7397967480343202,-0.7266991169101399,-0.714642072654505,-0.7026864301500776,-0.6861426035351614,-0.652940597440441,-0.5864711555458024,-0.497849017682863,-0.41706301394680256,-0.3716294757636787,-0.3695353157294238,-0.3857060350504309,-0.38423801520268575,-0.35025540618710915,-0.2819225834246354,-0.17385911155732353,-0.028862859838423634,0.08628083624272341,0.12156130948542512,0.07449911660751243,-0.06382177928158558,-0.2608440885434259,-0.4065507755576034,-0.4560787129709946,-0.4491656612651687,-0.4268087975675247,-0.4068332243617643,-0.3907020123510935,-0.37096891237344065,-0.3465751503315167,-0.3299150841278954,-0.3185243905882153,-0.24815351550606712,-0.12301717269921683,-0.022481503995078537,0.03633926335521122,0.07226553191058775,0.09255525244291697,0.10899443317509981,0.1321322912411647,0.1624499144857194,0.1934901159252972,0.22529341784035944,0.26132895855181076,0.3042782581976304,0.3621599446211765,0.43425034111325417,0.49725895599294717,0.5227262688054932,0.5143155288181627,0.48723031059657496,0.45021388167735815,0.40120086095779073,0.337377338724808,0.255084925879595,0.16778922496581172,0.0989885544829474,0.05885005866748323,0.03930014497782688,0.029659444357966358,0.022096371312806423,0.004202886020072321,-0.04475510616540633,-0.13539353184302577,-0.24902145979263676,-0.3498820869349721,-0.4295709833899048,-0.4846453894085661,-0.5232359863224622,-0.5400678546478785,-0.5340271191791817,-0.487528192998561,-0.34950327473394927,-0.050531681728478446,0.35226332907224595,0.6310710765856276,0.7559970148993341,0.8040348423767752,0.8152091235288202,0.8139884833929875,0.8200659253853633,0.8450444309476051,0.8796734620897255,0.9029619868078851,0.898894532814114,0.8751525014725411,0.8411213996592951,0.7998970152128357,0.7372349568540085,0.6286108747899247,0.44306823597670164,0.17582416134487747,-0.10967111293113864,-0.32345214173472275,-0.4383032572391906,-0.4766739180121195,-0.4506349123964051,-0.36957950071554946,-0.281096765991318,-0.2743115711765168,-0.3916113615276778,-0.5390739517543457,-0.6421371476540042,-0.6936798756956536,-0.7046988770361882,-0.6711656227940739,-0.5742971249542502,-0.3474020310726373,0.08793565767454256,0.5133965160300009,0.7529849990026324,0.880097606282533,0.9284103482376801,0.8949617841463556,0.7800400294035074,0.5932140631180378,0.3571832890586287,0.12293045181398325,-0.05615931661273195,-0.16813990122189132,-0.22740533832569987,-0.25835350541304747,-0.28478789722695325,-0.3282064951107808,-0.4051737428223513,-0.5093851250325594,-0.6256319317781939,-0.7348288124839473,-0.7919693140535993,-0.7589116979141215,-0.6721140551022377,-0.5885446310708043,-0.5262421429518979,-0.47400770005547693,-0.4083125309374308,-0.3165275128269855,-0.20639129733587702,-0.09190223999504551,0.01731526831080097,0.1153335847178878,0.2006976742251761,0.2793384561488489,0.353524011322856,0.4258399894778063,0.5035005414886277,0.6016146074520797,0.7238277762038619,0.8322080822891672,0.863275833964381,0.8222374729926899,0.7520294936511315,0.6844937841602226,0.6287988671640495,0.5660684750961141,0.4632333358505042,0.28523050469585576,0.027672807351121743,-0.2514721548146073,-0.4816460652847266,-0.6256261615397584,-0.6928930445692028,-0.7145189813901213,-0.708354919956158,-0.6798500220743554,-0.6328408743148726,-0.5830700868306173,-0.5519586398609841,-0.5475289420481183,-0.552920938474899,-0.5369761760316353,-0.46811851429559864,-0.31943579262124777,-0.10597365122409116,0.06828687136455282,0.17338189465823908,0.2513222794935211,0.32102493693995193,0.3926318228897749,0.4651368621761449,0.5321752402601583,0.5836041627292368,0.601253784890026,0.5636622510902822,0.4324042316281048,0.1774487042926318,-0.11227070727616713,-0.31358149132130836,-0.4001334799064311,-0.41516731705901166,-0.40677950468407537,-0.3979243923624294,-0.3831906843127023,-0.3181048904281806,-0.14036967791318725,0.02665639183845167,0.1035079666343976,0.11546728785868174,0.08253644527689032,0.029884435040985986,-0.009447591317311958,-0.011511543844201486,0.015190901920358199,0.058155876848669324,0.10309058681111949,0.13564215078337014,0.14101009897071337,0.10715337618323374,0.023372229769563206,-0.10998704496191732,-0.2755514406594018,-0.4306946281106255,-0.5278773748986384,-0.556873861876686,-0.5431320396711449,-0.5046856598595973,-0.43890711205566896,-0.3360836093748498,-0.2110251746132905,-0.10036074478843028,-0.02200713990721092,0.024721799496526742,0.050920306509086175,0.0674897967837752,0.08373119235312856,0.10399578327904768,0.12284974986009324,0.13108356252066142,0.11799696314263476,0.08468716180316431,0.044965803774224426,0.005447522370337399,-0.02310359294112696,-0.01680487647128136,0.0701808006391341,0.244772396668398,0.38150478504690644,0.4161009220200406,0.3888852587243496,0.3305461744189847,0.2596101145498199,0.17622287386176258,0.09177224524739137,0.03561567544580625,0.025565807993526844,0.05638561994775588,0.1101505676134291,0.16964407246029634,0.21544695423523277,0.2411955059600863,0.25147533297799735,0.26259684278202783,0.2899258496500333,0.33473259319029375,0.3763509203913635,0.39228101632271817,0.3784896922704765,0.35200704950950185,0.33251788310903196,0.3235428811776932,0.32747250201167133,0.34132784985687653,0.35261547161724965,0.35317081454032,0.33304057881153065,0.2912056781044678,0.25247198577688523,0.23686175962093892,0.24806859676461307,0.2680167473766357,0.27783619892379274,0.2645895343527136,0.18049837619849093,-0.00365313333631802,-0.20208363662794512,-0.3355068495609642,-0.35386970983222776,-0.23606398600573278,-0.03636046785988475,0.22044975182780885,0.5159263038639703,0.6513419175221876,0.6371238435771778,0.5851017254924078,0.5280025724618247,0.4735139964656423,0.4318149336661463,0.4101902099340843,0.4030403278693412,0.398610321767831,0.4007271053083715,0.4060296030991233,0.40264856795983284,0.365232351841612,0.25385193496007213,0.08054008371168343,-0.08643204899484933,-0.22031677806216673,-0.31576350096967964,-0.3770286291600628,-0.40569580912719216,-0.40384216036272474,-0.368303647654584,-0.2937106826775787,-0.18932143791045414,-0.08725319467261773,-0.037789522206869805,-0.10000287150471925,-0.30585045003148487,-0.5694940247325434,-0.7569774853725139,-0.8512024055846324,-0.8877067538832906,-0.8994112525874288,-0.9003095017468331,-0.8959299295390564,-0.8852198156857818,-0.8696013978422507,-0.8518882540248065,-0.8172613126356244,-0.7164887120246826,-0.3954890574911926,0.1418067813592078,0.402181781517803,0.477949164087398,0.5056697418420264,0.5309034771405647,0.5714732808431461,0.6266475270434975,0.6855450875280905,0.729717898779721,0.731246002559807,0.659535788732933,0.5047674390510261,0.30900268031142875,0.1412966449661931,0.03666180506953659,-0.01606172199489826,-0.04299755361394048,-0.07632303114957872,-0.13415765559982695,-0.2039434903081937,-0.24615175078280396,-0.21628275511782674,-0.1101203302022878,0.020287123914019874,0.13192325095244573,0.22228704740793837,0.31582772470254794,0.4038308217305475,0.47804282259878134,0.5467468244633189,0.6183065533919321,0.6694538669294227,0.6476974944888947,0.47601816001923963,0.07980985925111457,-0.3244464695235215,-0.5311226769582372,-0.6051415284514292,-0.6143438785886582,-0.5898299721344163,-0.5544346299168638,-0.5229679175413405,-0.500472474515751,-0.4858946292130089,-0.4779682910592137,-0.47606192300827993,-0.46671193646119646,-0.4357840315792265,-0.3803541783618919,-0.3081652998842796,-0.2339952307971642,-0.16564879703762986,-0.09241233095830034,-0.0012453751157634884,0.09722972200722267,0.16930656427704746,0.18920171345476697,0.15912053059535308,0.09278555838131579,0.00018777596722210834,-0.11336188001414602,-0.2247792613377314,-0.31872673016381237,-0.38972619283554233,-0.4346633164011873,-0.4519614630792822,-0.4439426544793397,-0.4170630085827228,-0.37289727264690226,-0.3157861001679658,-0.23496906816060076,-0.10565188612503656,0.10123959119284275,0.39205242272059976,0.6776640574890851,0.8523049119204821,0.9328050103565424,0.9645930739755882,0.975411798557278,0.9780325392418743,0.9778558248358554,0.9760458089362651,0.9721418491423397,0.9661477311623952,0.957857699128939,0.9481521146396186,0.9375926018880271,0.9236365630500587,0.8928639860484892,0.7885297848764531,0.5111316734608654,0.16489111256563604,-0.07899883435945593,-0.2410164939583132,-0.35965662206564897,-0.45357671161623325,-0.5227137815451098,-0.5704175534792995,-0.6013894787115606,-0.6213496244468446,-0.6380378370736822,-0.6570765250379565,-0.6781691769594016,-0.6978294282893112,-0.7120139018920001,-0.7167333110106068,-0.7108802268811267,-0.6887615827601035,-0.6316924687898042,-0.5430796501004919,-0.4572978754337179,-0.39869652119704235,-0.36333424439409595,-0.3406775283286892,-0.3200483503516625,-0.2941234165556628,-0.2543295905366348,-0.19557481603319257,-0.1312391209622789,-0.07463839662753793,-0.04610931216927909,-0.0475732854764649,-0.072560569149289,-0.09733781829878975,-0.08923901736849808,-0.05607350107007938,-0.026373966936846897,-0.01633841543770071,-0.02997405101854085,-0.05682004985561494,-0.08466671923432677,-0.09834742668383822,-0.09025016743518487,-0.0709642511776165,-0.04850926895042562,-0.020796319391898934,0.023812236179345313,0.0851568060200281,0.13971799630826454,0.16955595734883294,0.1759272332700521,0.1725768331087542,0.16807576589524442,0.1769867871399126,0.21292814252986159,0.28992668350825423,0.41758926439071153,0.5789298443697722,0.7014018831767718,0.7453564443319618,0.7407041912812807,0.7113152034338954,0.6583788654317256,0.5830916201066015,0.506281523919896,0.4483529761275133,0.3857991827557141,0.2894615166127166,0.17346851488518397,0.06474239158337317,-0.01172268668860677,-0.04862330096283458,-0.041982473710487155,-0.01821733356174022,-0.0033729709978571184,-0.012504374561803134,-0.04749548336525644,-0.08690831802452585,-0.10280977680215796,-0.07664388425365769,-0.003722141920896685,0.12636395853868396,0.3017992966991561,0.47179969281972334,0.5689710471266254,0.5647434764642079,0.4684921034212001,0.32636883759859053,0.19481194532612514,0.0982780684606438,0.029757032330469575,-0.022375453986303515,-0.06611265264143,-0.10318893414070233,-0.12417521780383153,-0.12840532761599424,-0.12622552153976466,-0.12852949716217113,-0.12849392219682962,-0.11581118231117214,-0.10823506460949253,-0.1260513116782007,-0.17638906646508015,-0.2514947112326521,-0.32244957231877003,-0.34664821944826646,-0.3168014602202937,-0.2653757196987465,-0.226378167037971,-0.20538558148369784,-0.1981122931926901,-0.19642094840420993,-0.19237412395221518,-0.17854606812940613,-0.14941187991485527,-0.10623859239542752,-0.05376932787314465,-0.0018688105956116614,0.03723433019843583,0.06064745988743194,0.07675011764333692,0.09857479371916601,0.1479006388670215,0.25607936075485865,0.4169844270139957,0.5373312585356949,0.5834550224073702,0.5922848821374066,0.5785674993110842,0.5464896721022965,0.5005637371917747,0.4475127441661084,0.39592583855824515,0.35535908443380493,0.326986120329584,0.30617130881224947,0.2847383543895771,0.2519429430789739,0.19484884706188219,0.10653019727234626,-0.0033621394234119536,-0.1075825073381914,-0.17980700978515615,-0.19996187019287004,-0.172983221610781,-0.12452831185959311,-0.09197722357347457,-0.10369464955139512,-0.17477818313115367,-0.290565126642418,-0.4131988998598297,-0.5223408424422904,-0.621026637052722,-0.7132166063281299,-0.781958231247547,-0.8107695137716567,-0.8035526374117034,-0.7724124122744043,-0.7270734463548781,-0.6831856380394313,-0.6577619585792748,-0.6451660876746359,-0.6183603037984688,-0.5508265594955727,-0.4380590320398744,-0.2804905910225645,-0.07793659394465986,0.10089793161286126,0.20751675789535126,0.25811343719325475,0.2708511409531003,0.246600679933075,0.19095802062231437,0.11039666925701672,0.03132345074186996,-0.03656051470661351,-0.1026755546840622,-0.15736571461491683,-0.17520054499536825,-0.14423045491919287,-0.06998246975952002,0.011201758896119579,0.05124972943346349,0.018367944958491093,-0.07685480436178625,-0.16733165637180406,-0.21144644163150048,-0.2105426637681418,-0.19602629113272485,-0.19927498692850704,-0.22822354530818148,-0.2676739567449863,-0.2705847730646023,-0.1734783347463116,0.00875573280668762,0.11704918655190989,0.1307273472727522,0.10518380411915043,0.06984753835927682,0.032984063969507066,0.013912837446274149,0.03210038696882211,0.08074866996316869,0.13198009004069555,0.17279448800232639,0.20427686170670215,0.2254731358971211,0.24288456764097646,0.261293490917781,0.27454507470402173,0.27124851375465864,0.26870994791973474,0.28267202662620633,0.29992529467822276,0.32111277014865514,0.35016093872735093,0.382790064244024,0.4000115410694656,0.38542043724908465,0.3295946162135385,0.2246382519359435,0.08986088195305675,-0.032382925795353304,-0.11404572015121754,-0.15637390469334583,-0.16873600224752103,-0.15729899809148543,-0.12153006316923329,-0.056233883012765065,0.04548282804062184,0.18870042491050454,0.3775405182460339,0.5756141513747827,0.7138042979316434,0.7753814186426848,0.7748569843907859,0.7086633655096549,0.5487892784654175,0.2942036229115245,0.061775712113312155,-0.024454097357504145,0.009583959253332238,0.0906535381133846,0.19825528285205612,0.3140781185714711,0.417654623565397,0.48287543530563687,0.517018185622428,0.5219401902278379,0.4773598825804328,0.35607567678507834,0.14813712789943678,-0.07735242132146435,-0.2086407215047804,-0.1950316072075533,-0.023055898621153696,0.2821727373368615,0.5890256062364682,0.7587685803338263,0.7837039948989835,0.6937726792169352,0.49323753027099887,0.19739943841229932,-0.07809417005501716,-0.24463497818351274,-0.3133542887731534,-0.32013989661974407,-0.2862889954661008,-0.226204663990317,-0.16076489636707875,-0.12044987914297207,-0.12795746498026614,-0.1994645707464194,-0.31914697672809433,-0.45284756061916914,-0.5637996444554667,-0.6234914100030321,-0.6233519093601271,-0.5484896342060663,-0.3739178213088804,-0.10433229855152686,0.16646694793699,0.35722086766694444,0.46236061532129746,0.4964251658439632,0.47684003328196384,0.42166794158116633,0.33263733497728853,0.20331322140134084,0.034620088992902844,-0.14763825976037706,-0.3148022439694448,-0.4501836529824221,-0.5484879923066324,-0.6138000388477238,-0.6539195412180611,-0.6762539396649151,-0.675196289739417,-0.6452813981538174,-0.586312643951869,-0.5096853943132751,-0.4283604800062197,-0.3525984910165871,-0.28744891244000237,-0.24992132720823534,-0.25173512309729024,-0.2845623029471632,-0.32638319606277477,-0.38194674599853573,-0.4761983855526421,-0.5978054164208849,-0.6973317345016015,-0.7592240680399767,-0.7944571437170519,-0.8114953869920633,-0.8097376191083356,-0.743193830616213,-0.4830050134629825,-0.08421781184789003,0.16206101280728535,0.2472530510434901,0.25055288825857175,0.20343240807503304,0.12856915391077464,0.0631587301930702,0.04476620440455092,0.07901362361797251,0.11966998129177074,0.12234064507120125,0.07961706236157946,-0.008840747535582984,-0.1298080277574701,-0.2664727736592376,-0.39400830024189715,-0.48785979902414744,-0.528104584301872,-0.5121109123605214,-0.4478173299999822,-0.34253922483303983,-0.1976190705572682,-0.031703934769850325,0.11623062141165555,0.21136862818116037,0.24687160084643597,0.23025655263537229,0.17615318195846297,0.11908383963017581,0.09589552993227152,0.12798839750664276,0.22525497410718062,0.38236666587675566,0.5512677482920701,0.6909692792499653,0.7768073986390336,0.7883710638458287,0.7386269386914395,0.6570493638370064,0.5348305939143472,0.35337497059393214,0.13881212403876386,-0.04413381776094321,-0.17468742369023113,-0.2525735172720951,-0.2797678555711117,-0.24906796317324637,-0.14587109909145138,0.03444208544728492,0.2612460213582209,0.45614829272956264,0.5468280603050133,0.5181735710271211,0.39392856544826704,0.25007428903235807,0.18769127661954246,0.2320943217005256,0.3415533818716806,0.4528626630555205,0.5353557032530457,0.5893937826444811,0.6296391024851438,0.6680416000352004,0.7110702799794502,0.7586977933446661,0.7992918504857822,0.8205389564872565,0.8091202888053765,0.7254355716450553,0.4820933359895339,0.1802179133304979,0.0658735492980229,0.16128071555223697,0.3787017582322758,0.5674765311387506,0.6544027732934161,0.6555289017989282,0.57017601149447,0.3443511695755942,-0.03990829430433516,-0.37728471755280557,-0.5594409281453524,-0.6449889085179454,-0.6743442162181532,-0.6639687762821277,-0.6119984206124357,-0.5000600589756896,-0.3028213822656292,-0.05144218165311225,0.1602912340193549,0.29148622066990104,0.36675132381540126,0.422925790736892,0.48630037116084995,0.5647672648717599,0.6453247715299886,0.7087956799972591,0.7160932233585591,0.6413121053078462,0.5352129096803142,0.45508687363086037,0.40300312584309517,0.34431662301149923,0.2417260716263206,0.1383429364336183,0.07308048243493946,0.03321980794791577,0.007234706291185681,-0.007251234471833916,-0.014471813149784478,-0.014326449374411902,-0.012178254450041039,-0.02875926640286713,-0.08987747607656707,-0.22843899372660592,-0.46593349091868685,-0.6832109793066965,-0.7073665001528101,-0.6315610429300508,-0.5358670919021742,-0.43446894972030947,-0.33365883125870355,-0.24572502956153403,-0.17559973272219762,-0.12054300273711467,-0.07475279282372115,-0.03507226362296821,-0.0039079996741080815,0.014891723388812752,0.01948402787704271,0.014019005821718644,0.0042795817254633346,-0.0032531487630441864,-0.005176431099047354,0.006293112568248314,0.04301406660515013,0.10962853175333263,0.20006019821730867,0.30318860688068033,0.39818453778699264,0.48558122294176304,0.5632964285122114,0.6306594756472539,0.6728675442414974,0.6747892792784604,0.637384911014259,0.566855038847799,0.4674574450360269,0.3387130601985573,0.1838650576983791,0.01121141441597864,-0.1596646528298355,-0.3085745208276977,-0.4273268955332567,-0.5166175417786858,-0.5776064971655788,-0.6114329935321194,-0.6155659703943483,-0.5957762233624304,-0.5538956517753014,-0.49655938263901445,-0.4442463000366495,-0.4084521007136891,-0.38762726502293166,-0.36597042287613674,-0.3241065309115467,-0.23420132259881304,-0.07136306192889207,0.12608520484562433,0.29014362928992266,0.38251685623719006,0.41331416696361534,0.40707831777223463,0.38660003698518713,0.35695532965818577,0.30590571563083196,0.213411550577433,0.09302062231254164,-0.02793968074386211,-0.13042173641915175,-0.20763119441956904,-0.2604507929061659,-0.27546343363554443,-0.22255891041500048,-0.11052297020611729,-0.03637345207816548,-0.08193872531834161,-0.18992145071435668,-0.2740129443650556,-0.308394629363742,-0.31079609387071044,-0.3117611431966356,-0.3297976135510867,-0.36303034096218484,-0.3944770518624909,-0.4046852365046953,-0.383533065095301,-0.3276736465607436,-0.2522794967131357,-0.1851964362999652,-0.16144454233161065,-0.19399401105160546,-0.24638336275510703,-0.27087949947621554,-0.24573399710765098,-0.19147293072661306,-0.1352373867128445,-0.09843015586678289,-0.09384129380757461,-0.12637226246628178,-0.19273882033193435,-0.2817863609380965,-0.382418168815356,-0.48313169713062054,-0.5671781862542873,-0.6134529735474051,-0.6096193457548938,-0.5640316628260118,-0.49097589745122383,-0.39767958530885966,-0.28660479196076394,-0.15196027699324793,0.00025341554720883483,0.13587424948507684,0.23207614252705897,0.29634068350378096,0.3375129813976938,0.363783509643157,0.3804461777783345,0.3928150601190792,0.40309654470223305,0.41096102463879985,0.41420037687233985,0.40776335096547855,0.3814936284057672,0.3309636701782585,0.26801260552283585,0.20760412506212308,0.1609116462549693,0.13549713110090322,0.13686796448455427,0.17046744550332382,0.23284778193303793,0.30668331885416705,0.36406194862296587,0.3994232277497929,0.40921685917706174,0.3956116397892673,0.37683231347710583,0.38175574879063906,0.41244855344201165,0.4363548620758538,0.4142748630838529,0.3341951874690084,0.17985471313575416,-0.029463169908747283,-0.22900622639223253,-0.36733519620421295,-0.4476733302428231,-0.5011169486627496,-0.553656790655271,-0.6075760699519287,-0.6548728991649582,-0.6905163392481046,-0.7079529668371919,-0.7061258334872282,-0.6863394021014545,-0.6512286459082338,-0.581355829476877,-0.3987899116156221,-0.1012028058370202,0.17680150480155718,0.407931486529987,0.5922932092495438,0.7163373468720912,0.7857962159017576,0.8097547062978464,0.7972787734530862,0.7651453762065302,0.730612837953631,0.7057279411086951,0.6841004049985985,0.6536326410742579,0.602333179423315,0.5266715980888672,0.4276020408894498,0.31326672720224846,0.19434093647422054,0.07521083419776736,-0.03581044752981403,-0.11851450268564533,-0.1551208755502291,-0.12848127548210914,-0.03170693783875263,0.11730408584177403,0.2778066505598328,0.39521038077992837,0.42992390060922075,0.38716260044465683,0.2976786496660526,0.19556094274166413,0.09505828830413912,-0.019226648584573795,-0.1687457167137184,-0.31107958751562037,-0.41288791384593,-0.4984242143506428,-0.585146393705033,-0.6733232190889678,-0.7572967549484295,-0.823497067011678,-0.8632544317126609,-0.8720047890286883,-0.8477567233047147,-0.7863909945648354,-0.6923641718777928,-0.5920663359205024,-0.5070163922019398,-0.4334575752417524,-0.3411180202771987,-0.17826399568526233,0.10491125761782064,0.42847026695582563,0.6454727575491971,0.7569445360927323,0.8193635344482509,0.8647054444345404,0.9011190299285824,0.923858316231003,0.9319254216559344,0.9338863608631119,0.9350546040959375,0.9357333017141672,0.9328470036025868,0.9222134561335166,0.8944699982398325,0.8248518921890208,0.6473675775852851,0.2948324992995363,-0.06666071588803706,-0.2563986923048917,-0.33133436643048725,-0.35491166119975487,-0.3559570519732744,-0.3516888183442253,-0.36011861864343025,-0.394739936291058,-0.45110024461053766,-0.5252629601869915,-0.6155683251371002,-0.7104115720021015,-0.7917453670657001,-0.8479335618098044,-0.8715412478444369,-0.8675579516804064,-0.8488343542541238,-0.8209609363254795,-0.7870904131259433,-0.7496024533464865,-0.7042971767820962,-0.6400274466453391,-0.54009004789344,-0.3928221444088935,-0.21944036493628938,-0.08285060740619035,-0.019999717791351034,-0.015900315246630305,-0.041480585003118894,-0.0781940136088896,-0.12531296273108744,-0.19010000267682917,-0.2799433508124975,-0.4055826191946873,-0.5506253555131306,-0.6194510764109605,-0.5972475149487656,-0.5582263426134038,-0.5293726201051739,-0.5120955089280312,-0.5056540562021987,-0.508427171238625,-0.5159398760365435,-0.5179298518732196,-0.5039483917529162,-0.4731054355509218,-0.43717195496705935,-0.4013575069797779,-0.35994335005070155,-0.2984781447154561,-0.1966041151129326,-0.039017047796562086,0.16102280808285976,0.35971351160472237,0.5256844448002393,0.6526199220059594,0.7365719735259163,0.7830641414187827,0.7978518343048459,0.7904783749835622,0.7789066333006828,0.7775099150275753,0.7869896677738674,0.8008016714547915,0.8070392736870956,0.8075826362222228,0.8027184988099444,0.7796190928133064,0.6846827272552556,0.30798018669212257,-0.33388040038279265,-0.6213264234724503,-0.702934570077697,-0.6849108568367255,-0.534579165709843,-0.22534663880185382,0.07364031950612455,0.24011453200286503,0.2913269748740302,0.2569265177217825
