0.014362438972224764,0.016800852465506534,0.019676147566574816,0.02141351804254045,0.02130175865179871,0.020133347353830343,0.01944246656080277,0.020488949974632693,0.023242323460670674,0.026422422599314727,0.028627155086824455,0.029196120533929847,0.027976910652734898,0.02492889535340972,0.019859029989120282,0.013285475154637263,0.005960076838879078,-0.0014567595535977687,-0.008223352138895874,-0.013628501944518659,-0.017275956825598675,-0.019165723051244053,-0.0196940458703033,-0.019429884460773678,-0.018718685488277105,-0.017641715401581465,-0.016483472597009805,-0.015467469586937456,-0.014481940711514549,-0.013313535682654316,-0.0120943320705675,-0.011301847841978628,-0.011332328245736205,-0.01239913610814327,-0.014461622532045543,-0.017072756223584205,-0.019551806075803986,-0.020953892110436266,-0.020679574745726206,-0.01850532266197406,-0.01470546576210616,-0.010082644229891812,-0.005764620466145098,-0.0026048451491673687,-0.0008471564937327333,-0.00034931407843106273,-0.0011621183672213813,-0.0032042878654762737,-0.00595766135151425,-0.008934557380500585,-0.011586327430977258,-0.01350658032948835,-0.014583544147075854,-0.014837543332316905,-0.01470546576210616,-0.014593706371364423,-0.014674985358348583,-0.014664823134060012,-0.014471784756334115,-0.014786744749090322,-0.016066909168692294,-0.017946519439157236,-0.01960260465903057,-0.020181732330424536,-0.01895236649404915,-0.015680832413240496,-0.010671927856466213,-0.0047282955151388625,0.001266134155593444,0.0064071225516866065,0.010481296816264567,0.013641077775439618,0.015652765616115307,0.016120127627659398,0.015033001585783327,0.013051794148865216,0.010908022468870647,0.00919097644148216,0.008093688175317516,0.007585683535727275,0.007463761920696966,0.007352002529955228,0.007209762735455913,0.006965919505395295,0.0065290378976087795,0.005980396899080525,0.00531999400216728,0.004618950357940326,0.003887426936866609,0.003166063232438208,0.0024853402753235152,0.0017639765708951146,0.0009511722821047961,0.00043300980660167867,0.00019932861275638792,0.00013836830676988436,-1.4032433119941986e-05,-0.00034931407843106273,-0.0006947557287664743,-0.0010198773189004392,-0.0015888402583625807,-0.0026150054927234993,-0.00426093350359477,-0.006181182640640981,-0.007918554370428236,-0.008832953944939282,-0.008599272939167235,-0.007319108519565264,-0.0053378985750038984,-0.0030010872634618044,-0.0008979569576917575,0.0003517293777226468,0.0005854105088768561,5.7087921774609445e-05,-0.0009995572586989922,-0.00201556214950378,-0.002218763378429063,-0.0012129182042695918,0.0011340534508286321,0.004781511466462715,0.008936970987132972,0.012655548900016711,0.015317487443890093,0.01653669105597691,0.01625221146697828,0.01479932058001128,0.012787632739335593,0.010857223885644064,0.009526254613707374,0.009130015633967006,0.009678656632495258,0.010704821866856179,0.011771629729263244,0.012340588907260506,0.012381231535306653,0.011954505882700571,0.011253462865384431,0.010633698835052453,0.010267940259069661,0.010196817227265936,0.010247622079600656,0.010471140861084131,0.01100962590443195,0.011954505882700571,0.013254994750879686,0.01472820381731569,0.016170926210885984,0.01765429750161056,0.019391667977576188,0.021443998446298025,0.023658886888988182,0.026056657754223802,0.028434116709098553,0.030344201114212942,0.031400846752331436,0.03142117120090858,0.030283240306697785,0.028037871460250052,0.024949213532878725,0.02109855804978424,0.016841495093552684,0.012381231535306653,0.0075348849525006915,0.00213989799807729,-0.003194128148830957,-0.0072886281158076865,-0.009147920206803625,-0.008802473541181705,-0.007451186089776008,-0.006993986302520485,-0.009015836367484745,-0.01400442274479002,-0.021289176551769613,-0.029142895805854607,-0.03541164660276186,-0.03866285623499337,-0.0384799738124479,-0.03574692477498707,-0.032434748066132266,-0.030605936378893906,-0.031032662031499986,-0.033298355326524864,-0.035696126191760484,-0.036336208401561466,-0.03410099551029417,-0.029010811966535724,-0.022274699158084388,-0.015243944536345843,-0.008700876374728538,-0.0028283664382940986,0.002414219751163044,0.00674240072391182,0.009892019458798302,0.011537942454383061,0.011609065486186787,0.01054225762377972,0.009434813402434641,0.008916652807663966,0.00884552977586024,0.008916652807663966,0.009140171589147442,0.009851376830752153,0.011416027108460888,0.014210036953436877,0.018406139102153284,0.023354089120520546,0.027692431063736266,0.02997844253823015,0.02931803587985202,0.025345458781727226,0.018629664152744894,0.010562582072356864,0.0028612617025056907,-0.002879166275342309,-0.006160862580439533,-0.007613750332852465,-0.008650077791501953,-0.010631285228420065,-0.014431142128287966,-0.020496692323180746,-0.02873648833271753,-0.03810405928128468,-0.046496251040501216,-0.05164739539177481,-0.05227732164639536,-0.04811169990143653,-0.039821099039565024,-0.02911241540209703,-0.018373238822655184,-0.009615282218347718,-0.003783411148494546,-0.0013348391923890873,-0.0028588462151408625,-0.00824367031836488,-0.016625712391509118,-0.025972958891499122,-0.033592997139812064,-0.037270932424649655,-0.03643780556801464,-0.032262027867875374,-0.027019442305329044,-0.022681100362113325,-0.0196940458703033,-0.016757796230827997,-0.01246009064655029,-0.006150702236883404,0.0018960572756599268,0.01100962590443195,0.020234950789391644,0.0280785140882962,0.03355478692572272,0.03630815414265255,0.036592633731651183,0.035292151132580205,0.033473501669630416,0.031858052808695095,0.03107572453528666,0.03151260614307317,0.032985815209509176,0.034834945076216546,0.035932233342381194,0.03511943093432331,0.031766605328314226,0.026473221182541314,0.020864870774904055,0.016973572663763425,0.01600836823691766,0.017705096084837144,0.020753111384162318,0.02361825053005017,0.025548659383741696,0.026574824618102615,0.027407951474737634,0.028586512458778305,0.030415324146016665,0.03269117966533011,0.03457078366668692,0.03534295598491492,0.03482478912103611,0.033148379452585634,0.030588044344273556,0.027275867635418755,0.023171206697975084,0.017827017699867453,0.010816581257597916,0.0025056603355249622,-0.006038942219230852,-0.01350658032948835,-0.01850532266197406,-0.020628769893391487,-0.02011060929862081,-0.017672195805339044,-0.01457338192278728,-0.012571856306400165,-0.012521051454065443,-0.014045059103728033,-0.015711306547889936,-0.01640219361002564,-0.016239629366949185,-0.016280271994995335,-0.017814441868946495,-0.02118757311620831,-0.02575959606519608,-0.030280820430957263,-0.03346091330049318,-0.03431435833659721,-0.032434748066132266,-0.028401210160492317,-0.023554863577686356,-0.019389248101835666,-0.016737471782250855,-0.01587387079096639,-0.016564751583993963,-0.017743318837142766,-0.017895720855930653,-0.015853546342389252,-0.011240887034463473,-0.004941656460709463,0.0016522159263317497,0.006976081729683867,0.010359381470342394,0.011812266088201257,0.012015466690215726,0.01178178568444368,0.01157858508242921,0.011273781044853439,0.01046097863679556,0.008835373820679804,0.0062648783688115965,0.0030238228110280796,-0.0002273934664580556,-0.0031331679682266166,-0.005713820629096887,-0.008020151536881405,-0.01011312463364939,-0.011941930051779613,-0.01320177629191258,-0.013435457297684627,-0.012744576504657056,-0.011230724810174902,-0.008832953944939282,-0.005703660285540757,-0.002523564908361581,0.0002704489488436149,0.0025666198892184897,0.004497029996731644,0.006153118351159045,0.007362164754243799,0.007860007169545468,0.00794128615652963,0.007951448380818201,0.008296888777331986,0.009160496037724583,0.010308576618007674,0.011192502057869279,0.011680188517990513,0.012381231535306653,0.013620759595970611,0.015073644213829476,0.01616077025570555,0.01637413308200859,0.015459727238389408,0.013641077775439618,0.011243306910203997,0.008632173218665336,0.006193758471561939,0.004121107942638655,0.002424379467808361,0.0005650904486754092,-0.0016091603185640275,-0.00409837239507238,-0.006546942470445399,-0.00838591638197233,-0.009046316771242322,-0.00867039597097096,-0.007898229921851095,-0.007044784885747069,-0.0063539040927195,-0.006008462442384088,-0.006038942219230852,-0.006526624290976392,-0.007644230736610042,-0.00958480181459014,-0.0120943320705675,-0.014563219698498709,-0.016127869976207448,-0.01609738957244987,-0.01398409829621288,-0.009879443627877342,-0.004128852798829958,0.0024853402753235152,0.00918081421719359,0.015287007040132515,0.02014350957811891,0.023262647909247817,0.024461533341865627,0.023790970728307062,0.021921516413022552,0.019686303521755252,0.017786375071821302,0.016689093074764797,0.016323328229673868,0.016638294491538214,0.017755894668063724,0.02014350957811891,0.023973853150852525,0.028769394881323768,0.0331585416768742,0.03523119032506505,0.03390022105312836,0.029257075072336866,0.022297443482402052,0.01443356200402849,0.006996399909152873,0.0006362110355269617,-0.004606375153930181,-0.00867039597097096,-0.011708249046007566,-0.013740261335260396,-0.014664823134060012,-0.014614024550833429,-0.014014578699970456,-0.013323697906942888,-0.012683615697141902,-0.011941930051779613,-0.010773525022919379,-0.009168238386272632,-0.0075934321533834585,-0.006485981662930244,-0.005886541454264593,-0.005561419237219815,-0.005530939460373051,-0.005713820629096887,-0.005977982038626511,-0.006150702236883404,-0.006313261464673352,-0.006496143887218814,-0.0068720646874901765,-0.008009989312592832,-0.01006231978131467,-0.012449934691369855,-0.013872338905471142,-0.01370978093150282,-0.012277214493112963,-0.010245202203860134,-0.008274150722122457,-0.006750143072459868,-0.005876381110708463,-0.005713820629096887,-0.006323423688961922,-0.007410549730837996,-0.008253832542653449,-0.008436714965198914,-0.007898229921851095,-0.006648545906006701,-0.005073737165474274,-0.0036005299797707098,-0.0030010872634618044,-0.003945971630106121,-0.006313261464673352,-0.009178394341453065,-0.011505048443993098,-0.0125820122615806,-0.012531213678354016,-0.011515210668281668,-0.00977784019231604,-0.00775599012735178,-0.005856061050507016,-0.004332054027755241,-0.0033363691971518995,-0.0030620474440661454,-0.0035294100825210522,-0.004636855557687758,-0.006069422622988429,-0.007522309121579733,-0.008904076976743008,-0.010184241396344978,-0.011342490470024776,-0.01246009064655029,-0.013537060733245928,-0.01407553950748561,-0.01366913830345667,-0.012267052268824392,-0.010306163011375286,-0.008304631125880034,-0.0066180655022491245,-0.005155018033190875,-0.0035497295158116856,-0.0014059590896387446,0.0014083745770035727,0.004466550219884881,0.007504404548743114,0.010359381470342394,0.01298067111706149,0.015144767245633201,0.01687197549731026,0.017918458911140186,0.017887978507382607,0.016668768626187654,0.014768840176253703,0.012746990111289444,0.011111223070885117,0.010054577432766621,0.009719299260541409,0.010227297631023514,0.011517624274914056,0.013102592732091798,0.014606282202285383,0.015723888647919033,0.016384289037189022,0.016597651863492064,0.016841495093552684,0.017491739527642238,0.01860933970416775,0.019808225136785564,0.020996954614222938,0.02207391843181044,0.02269368246214242,0.022825766301461298,0.022460001456370372,0.02181991924656939,0.021464316625767033,0.021657355003492928,0.021962159041068702,0.021647199048312492,0.020336547955844813,0.01789813446256304,0.014372601196513336,0.010196817227265936,0.00582799676102508,0.0018655768719023492,-0.001243398608027169,-0.003031567667219382,-0.0033160491369504524,-0.0026861253899731563,-0.0019850823726570168,-0.0015685201981611337,-0.0015888402583625807,-0.002157803197824722,-0.0031534880284280636,-0.004220293383191876,-0.005246458617552794,-0.0062827810609157745,-0.006912707315536325,-0.006668864085475707,-0.0053378985750038984,-0.0029909269199056743,-0.0002883537724445592,0.0019773375164657144,0.002779981461699903,0.0020179776368686084,0.0002907690717361432,-0.0016294803787654745,-0.003143327684871933,-0.004250773160038639,-0.005276938394399557,-0.006536786515264964,-0.00879231758600127,-0.01225689004453582,-0.01660539421204011,-0.021075813725466574,-0.02516015648344124,-0.02831993117350816,-0.029904899630685898,-0.029132733581566036,-0.025810394648422663,-0.020730373328952792,-0.015284587164391992,-0.010265520383329138,-0.005510619400171604,-0.001040197379101886,0.0031559035157928917,0.006752562948200391,0.009536416837995944,0.011487143871156479,0.012970515161881056,0.014413237555451347,0.016120127627659398,0.018294379711411547,0.02060071563448257,0.02270384468643099,0.024359929906304322,0.02501017434039388,0.024238008291274014,0.022124723284145158,0.019361187573818613,0.016851651048733117,0.014961884823087737,0.01361059737168204,0.012594588092501557,0.011222982461626854,0.009424657447254207,0.007595845760015846,0.0062648783688115965,0.0055841554116969035,0.00540127486988388,0.005116792773241997,0.004070308105590444,0.0015810954021712787,-0.0028486864984955456,-0.00894471333568102,-0.01574179322075565,-0.022305179561841963,-0.028126886526674125,-0.032810668866403624,-0.03571644437122949,-0.036529246779287365,-0.034934122366929186,-0.03085994183324309,-0.02461150921580485,-0.016737471782250855,-0.008355435978214752,-0.001060517439303333,0.0037655065756579268,0.005655275935857375,0.005116792773241997,0.0034302246419678317,0.002343099227002573,0.0034200649253225152,0.0072504053635020615,0.013133073135849375,0.019716790194620967,0.025345458781727226,0.02857635650359787,0.02874907670185476,0.02558929574267971,0.019787906957316553,0.012421867894244666,0.004192228466799126,-0.004931496744064146,-0.015223626356876838,-0.026491119486269796,-0.03801261180090381,-0.04832506272773957,-0.05515261674746365,-0.05685950055056356,-0.05339492809202901,-0.04602889529806525,-0.036356526581030474,-0.026135516865467442,-0.01684923117299259,-0.010082644229891812,-0.006292943285204345,-0.004911176683862699,-0.004789255695743204,-0.004972136864467039,-0.00496197652091091,-0.0046165354974863106,-0.0040475725580241696,-0.0030112469801071213,-0.0010097176022551225,0.00213989799807729,0.006285200936656298,0.010857223885644064,0.014707879368738548,0.01687197549731026,0.016648450446718647,0.014585964022816375,0.012096745677199885,0.010654023283629594,0.010968983276385803,0.012716509707531867,0.014768840176253703,0.015266682591555374,0.012879073950608323,0.007971766560287207,0.0020179776368686084,-0.003051887727420829,-0.005825581273660252,-0.005297258454601004,-0.0015177197342021095,0.004141428002840102,0.009851376830752153,0.013915395140149677,0.01540892238605469,0.014250679581483025,0.010613380655583446,0.0055028751708911154,-8.515279428360155e-05,-0.004992456924668486,-0.008223352138895874,-0.009168238386272632,-0.008182709510849725,-0.006160862580439533,-0.00426093350359477,-0.0033363691971518995,-0.003742771028091652,-0.004890856623661252,-0.005825581273660252,-0.005734140689298334,-0.00432189368419911,-0.0018631613845375213,0.0011645332276753956,0.004253188647403467,0.007037042537199021,0.009556735017464952,0.01191386952376256,0.014118595742164147,0.016384289037189022,0.019097026164288988,0.022124723284145158,0.025152414134893195,0.02774322964696285,0.029734599308169532,0.031065568580106222,0.03191901361621025,0.03209173381446714,0.0310960489838638,0.029013238111384385,0.02615826118978511,0.022846084480930305,0.0192392659587883,0.015154923200813636,0.010430498233037983,0.005452074706932091,0.0008089318606946675,-0.0032652486729914283,-0.007024466706278063,-0.010407760177828454,-0.012775056908414633,-0.01379105991848698,-0.013404976893927048,-0.012226409640778244,-0.010621123004131493,-0.008802473541181705,-0.006821266104263594,-0.0047994160392993345,-0.0027978860345365215,-0.0010706777828594634,0.0004634899595949304,0.0018960572756599268,0.0032676641603562565,0.004476709936530197,0.005452074706932091,0.006203918815118069,0.006722082544442814,0.0069456013259262895,0.006630641333170082,0.005248874104917622,0.002007817293312478,-0.003417649437957687,-0.009635600397816723,-0.014817225152847899,-0.017113398851630355,-0.015579228977679193,-0.010743044619161802,-0.004464134105609239,0.0011543735110300794,0.0049440719480742905,0.006965919505395295,0.007768565958272738,0.007961604335998637,0.007768565958272738,0.006955763550214861,0.005472394767133538,0.0034302246419678317,0.0013067742759963381,-0.00031883392543781094,-0.0009893975420536755,-0.0007455561927254985,5.7087921774609445e-05,0.0011340534508286321,0.00213989799807729,0.0029019018229085843,0.0034200649253225152,0.003409904581766385,0.0027698211181437725,0.0016826957031785134,0.0006463707521722783,0.00017900855255494096,0.0006158906618701079,0.0019163773358613738,0.0034810244790160426,0.004568150520892115,0.004679910538544666,0.003826466756262268,0.0027190212810955616,0.0018960572756599268,0.0017233364504922208,0.0023329395103572565,0.0034708647623707257,0.004436069816127303,0.004537670117134538,0.0032778238770015734,0.0008190915773399842,-0.0023203636794362982,-0.005591899640977392,-0.008578954759698228,-0.010864966234192112,-0.012317850852050975,-0.012988413465609538,-0.01300873791418668,-0.01280553731217221,-0.012927452658094384,-0.013699618707214247,-0.015436989183179877,-0.0178347600484155,-0.02021221273418211,-0.02181749937082886,-0.02237630259364569,-0.021705739980087124,-0.019958207279832923,-0.017387716216340412,-0.014136500315000765,-0.01048904543392075,-0.0072073491288235265,-0.005246458617552794,-0.00496197652091091,-0.005825581273660252,-0.006800947924794587,-0.007258147712050109,-0.007065109334324211,-0.006496143887218814,-0.005744300405943651,-0.004850215876347545,-0.0036208500399721563,-0.0016498004389669215,0.0012051733480782899,0.00472055065894756,0.008388329988604717,0.011558266902960204,0.013224514347122109,0.012889229905788759,0.010897860244582077,0.008337531405378134,0.006275038712367727,0.005411434586529197,0.005838157104581211,0.006996399909152873,0.008246090194105403,0.008530569783104031,0.006803361531426974,0.0026987012208941146,-0.0029096466790998862,-0.008690714150439965,-0.01321193851620115,-0.015508105945875466,-0.015548748573921614,-0.01427874010950008,-0.012937614882382955,-0.012114650250036505,-0.011576171475796823,-0.010539844017147334,-0.008345273753926182,-0.004840056159702228,-0.0006642759519197107,0.0032067033528411022,0.006173438411360492,0.007849844945256899,0.008063207771559939,0.006630641333170082,0.004151587719485419,0.0019366973960628204,0.001062932926668161,0.0019265370525066905,0.004121107942638655,0.006996399909152873,0.009719299260541409,0.011588747306717781,0.012228829516518767,0.011852908716247406,0.010948665096916796,0.009292573607935327,0.006925283146457283,0.004507190340287775,0.003105103051833867,0.0034708647623707257,0.006214078531763386,0.011273781044853439,0.017308857105096775,0.02249048186012795,0.025386101409773376,0.025944898363482065,0.025162576359181767,0.023628406485230603,0.021657355003492928,0.01927990858683445,0.016323328229673868,0.012879073950608323,0.009516092389418803,0.007047204761487592,0.006112478230756151,0.006925283146457283,0.008896334628194958,0.010918184693159218,0.011974830331277714,0.011649708114232936,0.009993616625251467,0.007463761920696966,0.004751031062705138,0.002261818986196785,0.00045332986680312557,-0.0006744356685650274,-0.001375479312791981,-0.0022695632154772737,-0.0035802099195692627,-0.005642700104936416,-0.008324955574457175,-0.010875122189372548,-0.012683615697141902,-0.013486255880911208,-0.013262737099427732,-0.012063851666809924,-0.010306163011375286,-0.008711032329908972,-0.007542627301048739,-0.006648545906006701,-0.005632539761380286,-0.004250773160038639,-0.0022289237219851933,0.00037204950061517513,0.0030847829916324206,0.0055333549477378785,0.007656806567531001,0.009709137036252837,0.012218667292230196,0.015154923200813636,0.01824358112818496,0.020905513402950205,0.022297443482402052,0.021860561874615533,0.01988951039287786,0.016882131452490692,0.013488675756651733,0.010054577432766621,0.006508719718139774,0.00307462264807629,-0.0001969133134648038,-0.0031839678052748266,-0.005937341291312803,-0.00849767577271407,-0.010997043804402855,-0.013354178310700465,-0.015254106760634416,-0.016138032200496016,-0.015538586349633045,-0.013801222142775552,-0.011718411270296138,-0.009716879384800885,-0.007888073966670659,-0.005622380044734969,-0.002574364745409791,0.0010934133304257383,0.004679910538544666,0.00724024313921349,0.008012409188333356,0.006071838110353257,0.0013880545168021257,-0.005297258454601004,-0.012653135293384325,-0.019663565466545723,-0.025271915874182982,-0.028970175607597716,-0.03082946142948552,-0.03153050444680165,-0.03208930766961848,-0.032770032507465616,-0.032627786443858164,-0.03079898102572794,-0.027070240888555627,-0.02184797977458644,-0.01601611058546571,-0.01043824058158603,-0.00590686151446604,-0.0027572459141336275,-0.0006642759519197107,0.0010527725831120309,0.0032168636963972323,0.006214078531763386,0.010166336823508359,0.014667243009800537,0.019290064542014887,0.023841769311533645,0.02794643024897732,0.03107572453528666,0.03259973218494925,0.032264454012724035,0.029907319506426427,0.02555882160803027,0.019533907772075504,0.012746990111289444,0.006335999519882881,0.0011746935712315261,-0.002330524022992428,-0.004118692455273827,-0.004525094286213579,-0.004139012515475274,-0.0032855681062820617,-0.0022898832756787207,-0.0015278800777582399,-0.0015278800777582399,-0.0025438849685630277,-0.004484454165810686,-0.006902545091247754,-0.008629753342924812,-0.008650077791501953,-0.006465663483461238,-0.002432124323999663,0.001946857112708137,0.005248874104917622,0.006722082544442814,0.006447758910624619,0.004537670117134538,0.0013778941732459954,-0.002127322794067145,-0.004840056159702228,-0.006130382176681957,-0.005622380044734969,-0.003478609618562028,-0.00013595300747830028,0.003846786816463715,0.007362164754243799,0.009231612800420171,0.008876010179617817,0.006772881127669397,0.00394838711747095,0.0009613326256609264,-0.0019952420893023333,-0.004860376219903675,-0.007187024680246384,-0.008568792535409658,-0.008711032329908972,-0.007877911742382088,-0.006973668123051479,-0.0065875850984915465,-0.006536786515264964,-0.00594750100795812,-0.0040374122144680395,-0.0009893975420536755,0.0019163773358613738,0.003105103051833867,0.001286454215794891,-0.0035598898593678157,-0.00978800241660461,-0.014928984543589636,-0.01710323662734178,-0.016138032200496016,-0.012968095286140532,-0.009188556565741636,-0.006028782502585535,-0.0036411701001736034,-0.0018326816076907576,0.00015868842966241265,0.003013662467471949,0.006762718903380826,0.01087754206511307,0.014342120792755758,0.016181088435174552,0.01564260966093487,0.013163553539606953,0.010054577432766621,0.007545047176789263,0.006396960327398036,0.0068643223389421295,0.008124168579075093,0.008662653622422913,0.007545047176789263,0.005167593237201021,0.003033982527673396,0.002322779166801126,0.003338784057605914,0.005624795532099797,0.008347687360558569,0.010775944898659904,0.012635230720547706,0.013793479794227504,0.014118595742164147,0.013539474339878314,0.012411711939064232,0.01136522225612617,0.0103796996498114,0.009211294620951167,0.0073926451580013765,0.004527510400489222,0.0007174912763327495,-0.003051887727420829,-0.005998302098827958,-0.007705191544125196,-0.007928710325608672,-0.006242143448156135,-0.002330524022992428,0.0036435855875384315,0.010765782674371333,0.017796537296109874,0.023892567894760228,0.028210591658506944,0.030344201114212942,0.02981588456426183,0.02654434421434504,0.021068077646026664,0.014342120792755758,0.007433287786047525,0.001286454215794891,-0.0031128479080251696,-0.005236298273996663,-0.005317578514802451,-0.004667335334534522,-0.004982296581112357,-0.007827113159155507,-0.01399426052050145,-0.02284366460518978,-0.03210962584908749,-0.038866056837007834,-0.04108095154880612,-0.03823613685149542,-0.03217058665660264,-0.025515759104243595,-0.020425569291377017,-0.017397878440628983,-0.01604659098922329,-0.015792591803982233,-0.015833228162920248,-0.015172827773650255,-0.013140815484397425,-0.009564477366013,-0.005063577448828957,-0.0004712346904040698,0.003338784057605914,0.006386798103109464,0.009089373005920857,0.012045947093973304,0.015967725608871514,0.020854714819723626,0.026066819978512377,0.031329729989635846,0.0363487967706987,0.040819222553233295,0.0441517174415571,0.045848451558584725,0.04539124550222107,0.042505788176864207,0.037496883620089926,0.030953809189364485,0.02370968547221477,0.016617970042961068,0.010288258438538669,0.005065992936193787,0.0009308522219033492,-0.0022492437821866403,-0.004697815738292099,-0.006668864085475707,-0.00879231758600127,-0.012043533487340916,-0.016625712391509118,-0.02204101815231234,-0.026968643722102458,-0.02986425700263975,-0.029833776598882176,-0.026928001094056315,-0.0224169389525837,-0.018271641656202015,-0.01601611058546571,-0.01577226735540509,-0.01693051642908489,-0.018261479431913447,-0.019064125884790888,-0.019663565466545723,-0.021055495545997567,-0.023727590045051386,-0.02715151987553979,-0.030433222449745147,-0.032729389879419465,-0.0330138694684181,-0.030392579821699,-0.024591191036335846,-0.016351388757690922,-0.006943187719293902,0.0020687781008276326,0.009353534415450481,0.014169400594498865,0.016424931665235173,0.016496054697038895,0.014972040778268173,0.012289790324033921,0.008896334628194958,0.005187913297402468,0.001266134155593444,-0.0026861253899731563,-0.006607903277960552,-0.010377286043179012,-0.013699618707214247,-0.015944987553661985,-0.016209148963191606,-0.013699618707214247,-0.008578954759698228,-0.002178123258026169,0.0034708647623707257,0.0065798427499434995,0.006752562948200391,0.004781511466462715,0.0018249367514994554,-0.001243398608027169,-0.0035497295158116856,-0.004443814045407792,-0.003976452033863698,-0.0022492437821866403,0.0006260507546619127,0.0042430289307581505,0.007666968791819572,0.010450822681615124,0.01281811314309317,0.015713726423630458,0.019818387361074132,0.02522353716669692,0.03151260614307317,0.03771024017728483,0.04245498959363763,0.044741007337239645,0.04433459986410257,0.04164218718557975,0.03704983978801484,0.03147196978413516,0.02654434421434504,0.023679211337565325,0.022998486499718192,0.02347600446644272,0.024126248900532273,0.02420753415662457,0.023669049113276754,0.023161044473686512,0.022978168320249185,0.022338079841340064,0.020052068366846178,0.015561324404842572,0.009201132396662594,0.001946857112708137,-0.00496197652091091,-0.01036712381889044,-0.013628501944518659,-0.014725783941575168,-0.014299064558077222,-0.013750417290440832,-0.014349863141303806,-0.016585069763462967,-0.01965340951136529,-0.022193420171100223,-0.02326022803350729,-0.023097663790430833,-0.022640464003175313,-0.022894463188416363,-0.02432702962680622,-0.02662319705648054,-0.02912257135727746,-0.03121554445404545,-0.03240426766237468,-0.03212994402855649,-0.029955698213912484,-0.02535319486116714,-0.018190362669217856,-0.009056478995530892,0.0008089318606946675,0.009861539055040723,0.016668768626187654,0.020245113013680215,0.020610871589663005,0.018832864754759364,0.016485892472750327,0.014626600381754389,0.01347851353236316,0.01256410768874398,0.011416027108460888,0.01009522006081277,0.008703289981360926,0.007453605965516532,0.006752562948200391,0.007179282331698337,0.009089373005920857,0.012218667292230196,0.015693408244161454,0.018406139102153284,0.019381505753287617,0.01781685547557888,0.013783317569938933,0.008205447566059254,0.002465019588211255,-0.0025438849685630277,-0.006313261464673352,-0.009137757982515054,-0.011830170661037876,-0.015447145138360312,-0.020679574745726206,-0.027476642092584568,-0.034304196112308644,-0.039099737842779876,-0.040593271357793025,-0.038733979266797086,-0.034365156919823794,-0.028553612179280204,-0.022518542388145,-0.01681875703834315,-0.011159608047479314,-0.005398858755608239,0.00031108919462867154,0.005411434586529197,0.009170651992905017,0.011283943269142008,0.012015466690215726,0.012167868709003611,0.012492990926048391,0.013346435962152415,0.014961884823087737,0.017125974682551313,0.01954406372725594,0.021525277433282187,0.022439683276901365,0.021535439657570755,0.018426463550730424,0.013590272923104899,0.008550887962573039,0.004710390942302244,0.0026987012208941146,0.001875736588547666,0.0010121324627091369,-0.0007353958491693683,-0.0034989296787634747,-0.007095589738081789,-0.011545691072039245,-0.017275956825598675,-0.02447943164559411,-0.03274971432799661,-0.04101999074129097,-0.047888181119953056,-0.05180995963485127,-0.051515317821564065,-0.04672993204627326,-0.03813453968504225,-0.026846722107072153,-0.014349863141303806,-0.002381323860040639,0.007423125561758954,0.014331958568467187,0.018883663337985947,0.02257176084711211,0.02675770704064808,0.03252861542225366,0.04017914034343231,0.04903870665240922,0.05824371962700804,0.06660544978979141,0.07319936041839226,0.07739546256710865,0.07876708073619963,0.07751733402927388,0.07434742219135093,0.06996845015830533,0.06473600174361503,0.0584062838700845,0.05066431773763311,0.04131705869942683,0.03077092676681902,0.019391667977576188,0.007656806567531001,-0.004149172859031405,-0.015264268984922986,-0.024570872856866842,-0.031327303844787185,-0.03554372417297259,-0.0379922936214348,-0.03940454188035565,-0.040156389750006516,-0.040491667922231724,-0.04065422589620005,-0.0407964719598075,-0.040877750946791656,-0.04072534892800377,-0.040115747121960366,-0.03908958188759945,-0.037535087565071144,-0.035289724987731544,-0.032688747251373315,-0.030311294565606703,-0.028543449954991633,-0.027476642092584568,-0.026531762114315943,-0.025190636887198817,-0.023382143379429465,-0.02101485291795142,-0.01825132347673301,-0.015376028375664723,-0.012714096100899479,-0.01048904543392075,-0.00875167495795512,-0.00768487336465619,-0.007319108519565264,-0.00755278952533731,-0.008030313761169975,-0.008274150722122457,-0.00794902850507768,-0.0069838240782319145,-0.005581739297421262,-0.004118692455273827,-0.0026353255529249463,-0.001416119433194875,-0.0006439552648074501,-0.000440754537410818,-0.0005829952722763535,-0.0009893975420536755,-0.0010909978430609102,-0.0006947557287664743,0.0002298087657496397,0.0017436558837828542,0.0037451858885456666,0.005756876236864609,0.007341846574774794,0.008195291610878818,0.008398492212893289,0.008347687360558569,0.008418810392362294,0.008307051001620557,0.00757552758054684,0.006021038273305046,0.0042633489909595975,0.0034708647623707257,0.0042430289307581505,0.006305519116125304,0.008906490583375394,0.011436345287929896,0.013265156975168257,0.014128757966452717,0.014057634934648991,0.013712194538135207,0.013925557364438249,0.015307325219601523,0.017583174469806832,0.020123191398649907,0.022023119848583857,0.022388884693674782,0.020935993806707784,0.017969257494366765,0.013945875543907253,0.009709137036252837,0.006285200936656298,0.0043141488280078084,0.0034403849855239622,0.0029527022868676084,0.0023634192872040195,0.0012966139324402078,-0.0005423550264912968,-0.0031738080886295106,-0.0063539040927195,-0.01014359876829883,-0.014349863141303806,-0.01800748024667239,-0.019958207279832923,-0.01944004668506225,-0.016351388757690922,-0.0113120100662672,-0.004972136864467039,0.002282139046398232,0.010206979451554507,0.018101341333685645,0.024939051308590157,0.029338360328429163,0.03117732797084796,0.03062868697231971,0.028556032055020726,0.02598554099152821,0.023790970728307062,0.022338079841340064,0.021758958439054232,0.02150495925381318,0.02097663643475393,0.019605024534771094,0.01693293630482541,0.0129095543543659,0.008174967162301677,0.004090628165791891,0.0015302949382122544,-3.435253093603774e-05,-0.0016091603185640275,-0.004159332575676721,-0.0077356719478827735,-0.011159608047479314,-0.013018893869367115,-0.012348331255808552,-0.009056478995530892,-0.004423494612117159,-0.00029851386523636403,0.0018655768719023492,0.0019773375164657144,0.000971492342306243,0.00018916858265566444,0.001083252986869608,0.0042227088705567035,0.008987775839467691,0.013691876358666201,0.016770372061748955,0.01724789629758162,0.014921242195041588,0.010278102483358233,0.0041617486899523624,-0.0024626041008464264,-0.008487513548425496,-0.013364334265880901,-0.01684923117299259,-0.018972684673518155,-0.019846447889091186,-0.019389248101835666,-0.017733156612854198,-0.015162665549361683,-0.012490571050307868,-0.0113120100662672,-0.01267345347285333,-0.016341232802510486,-0.020730373328952792,-0.02423558841553349,-0.025983114846679554,-0.025901835859695393,-0.02443878901754796,-0.022295017337553392,-0.019724526274060877,-0.01621931118748018,-0.011718411270296138,-0.006394540451657512,-0.0008369967770874166,0.004293828767806361,0.008459446751300306,0.011121385295173687,0.011842746491958834,0.010674341463098602,0.008307051001620557,0.005990557242636656,0.005076152652839103,0.006132798290957598,0.008916652807663966,0.01227962809974535,0.015490207642146984,0.01794893931489776,0.019198623330742154,0.018954786369789672,0.017186935490066467,0.013996680396241974,0.009211294620951167,0.002759661401498456,-0.005480139623324841,-0.014614024550833429,-0.022853820560370216,-0.028675533794310513,-0.031154583646530294,-0.03067705941069763,-0.02878729318505225,-0.027121045740890345,-0.026877202510829732,-0.028411366115672753,-0.031235862633514452,-0.03407051510653659,-0.03522876418021639,-0.03314595330773698,-0.027182006548405503,-0.01821068084868686,-0.008131910927623142,0.0013575741130445486,0.009556735017464952,0.01704469569556715,0.024756175155152826,0.03316869763205464,0.04171330394827534,0.0494857504844843,0.055632592204577516,0.060245257781611425,0.06392321187377344,0.0673573039285504,0.0704561240802103,0.07259990829842114,0.07317904850803138,0.0714517838343811,0.06688994191700631,0.05924956668189995,0.04890662908219848,0.036592633731651183,0.02383161335635321,0.011852908716247406,0.0014794951011640437,-0.007441030134595572,-0.015508105945875466,-0.023097663790430833,-0.03026049598238012,-0.0364987663755298,-0.040898069126260664,-0.04279799757619462,-0.04209694828977034,-0.03925213986156777,-0.03483251893136789,-0.029661056400625285,-0.02453023022882069,-0.019846447889091186,-0.015182989997938824,-0.009930242211103925,-0.004342213744400557,0.0007073309327766191,0.004293828767806361,0.005736556176663162,0.00504567287599234,0.003166063232438208,0.0017436558837828542,0.002038297697070055,0.004466550219884881,0.008815049372102663,0.014027160799999551,0.018528060717183593,0.02077342956363133,0.019859029989120282,0.015744206827388037,0.009008094018936695,0.0008698920412990083,-0.007075265289504646,-0.013679300527745243,-0.018545959020912075,-0.02188861613352445,-0.02365646701324766,-0.02395110882653486,-0.023178942777414998,-0.021878460178344016,-0.020395088887619442,-0.018982846897806726,-0.01784492227270407,-0.017093074403053212,-0.016900036025327313,-0.017641715401581465,-0.01919620345500163,-0.02063893211768006,-0.021075813725466574,-0.020506854547469314,-0.019389248101835666,-0.01845452407874748,-0.01840371922641276,-0.01919620345500163,-0.020496692323180746,-0.022101978959827497,-0.024012069634050014,-0.025698635257680926,-0.026480957261981224,-0.026145679089756013,-0.025068715272168512,-0.023819031256324116,-0.02265061995835575,-0.02174637633902514,-0.021329812910707627,-0.021431416346268932,-0.02164477917257197,-0.021654935127752406,-0.021614298768814395,-0.021035177366528563,-0.018769484071503684,-0.014136500315000765,-0.00775599012735178,-0.0010808374995047798,0.0048831117674699494,0.010074895612235627,0.014839963208057428,0.019381505753287617,0.023435368107504708,0.026473221182541314,0.02811915044723421,0.028261390241733526,0.027306348039176333,0.02598554099152821,0.024654571719591522,0.023293128313005392,0.021901198233553548,0.02038735280817953,0.018528060717183593,0.016353808633431444,0.013864596556923094,0.010887704289401641,0.007565365356258269,0.004141428002840102,0.0012254934082797366,-0.0009893975420536755,-0.0031839678052748266,-0.0053480582916492145,-0.006628227726537695,-0.005784940526346545,-0.002361003799839192,0.0025056603355249622,0.007260561318682497,0.010552419848068291,0.011842746491958834,0.011730987101217095,0.011537942454383061,0.012218667292230196,0.014220199177725448,0.017420616495838512,0.02134239501073672,0.025477536351937974,0.02931803587985202,0.03245749865955807,0.03472318568547481,0.035759513144124296,0.03559695517015598,0.0346825493265368,0.033544624701434135,0.03258957622976881,0.03206125341070956,0.03168532634133007,0.030760764542530447,0.029003075887095817,0.02635130583661914,0.022724162865899997,0.0186499823322139,0.014900924015572584,0.011741149325505669,0.009221456845239739,0.006976081729683867,0.004690070882100797,0.0022211788657938913,-0.0005626751493838251,-0.0037529307447369685,-0.007095589738081789,-0.010214721800102555,-0.012714096100899479,-0.014258421930031073,-0.014674985358348583,-0.014085701731774182,-0.01310017912545941,-0.01225689004453582,-0.011830170661037876,-0.0117996902572803,-0.011840332885326446,-0.011494886219704526,-0.01019440362063355,-0.007491828717822157,-0.0039053315097032277,-0.00033915404833033923,0.002444699528009808,0.004375109635522963,0.005817837044379764,0.007128483748471752,0.008418810392362294,0.00918081421719359,0.00857121241115018,0.006569680525654927,0.003623265527336985,0.00026028891874289146,-0.0030010872634618044,-0.006069422622988429,-0.008853272124408286,-0.0109360829968877,-0.011718411270296138,-0.011169770271767883,-0.009970878570041938,-0.009188556565741636,-0.009401919392044678,-0.010712564215404227,-0.012287370448293398,-0.012927452658094384,-0.011372964604674216,-0.007197186904534954,-0.0008877966141356271,0.00604135770659568,0.011629383665655794,0.014352283017044328,0.013580116967924463,0.010013934804720473,0.005025352815790893,0.00015868842966241265,-0.003448129214804451,-0.005967821695070381,-0.008365591933395188,-0.011362808649493782,-0.014796906973378893,-0.01782459782412693,-0.019714370318880445,-0.019907408696606343,-0.018129401861702702,-0.014756264345332745,-0.010844648054723105,-0.007725509723594202,-0.0063335859132504935,-0.006313261464673352,-0.007095589738081789,-0.0077356719478827735,-0.007085427513793216,-0.004647015274333075,-0.0008776368974903104,0.0029628620035129253,0.005868636881427974,0.007331684350486221,0.007595845760015846,0.007199600511167342,0.006559518301366357,0.005980396899080525,0.00537079383921549,0.004527510400489222,0.003562305346732644,0.0022211788657938913,0.0003822095307158986,-0.001903801504940415,-0.0040780523348709335,-0.005581739297421262,-0.006475825707749809,-0.00733942669903427,-0.008528156176471645,-0.00998104079433051,-0.011240887034463473,-0.011901293692841602,-0.011657450462780983,-0.009930242211103925,-0.006425027124523226,-0.001924121565141862,0.0021297382814319736,0.004811991870220292,0.005634955875655928,0.005055833219548469,0.003999187581429974,0.0029323822266661614,0.0019976575766671614,0.0013575741130445486,0.0010019727460638202,0.0008394116375414311,0.0006666908123737253,8.756809357518563e-05,-0.0010909978430609102,-0.002940127082857464,-0.004941656460709463,-0.006272625105735339,-0.0063539040927195,-0.005155018033190875,-0.003437969498159134,-0.0023102039627909813,-0.002117163077421828,-0.0024626041008464264,-0.0022898832756787207,-0.00041027438441756627,0.003125423112035314,0.0070878411204256045,0.009810734202706005,0.010074895612235627,0.007504404548743114,0.0029730223470690554,-0.0018326816076907576,-0.00525661833419811,-0.006475825707749809,-0.006008462442384088,-0.005012776984869933,-0.00432189368419911,-0.004179653262788982,-0.00430157299708685,-0.004372693521247321,-0.004352374087956688,-0.0040272518709119085,-0.0035192497389649217,-0.0032449286127899813,-0.003488769335207345,-0.004443814045407792,-0.005835740990305569,-0.006831428328552164,-0.006191342357286298,-0.003407489094401557,0.0013067742759963381,0.007199600511167342,0.013458195352894156,0.01901574090819669,0.02311024589045993,0.025121933731135616,0.02522353716669692,0.024288813143608735,0.023039122858656204,0.021718315811008082,0.020336547955844813,0.019086863940000417,0.018213100724427382,0.017776219116640866,0.017491739527642238,0.016455412068992748,0.013976355947664831,0.010024097029009044,0.005065992936193787,-0.00011563294727685333,-0.004809575755944651,-0.008324955574457175,-0.01023503997957156,-0.010397604222648018,-0.009178394341453065,-0.007491828717822157,-0.006191342357286298,-0.005581739297421262,-0.005571579580775945,-0.005856061050507016,-0.006181182640640981,-0.005988141755271828,-0.004870536563459805,-0.0027877263178912046,4.692786659745343e-05,0.003348944401162044,0.006965919505395295,0.01108074266712754,0.015287007040132515,0.01926974636254588,0.022388884693674782,0.024034807689259547,0.02378080850401849,0.021941840861599695,0.019828549585362704,0.01896494232497011,0.019696465746043827,0.021454154401478458,0.023435368107504708,0.024492013745623202,0.023730009920791908,0.020824234415966047,0.016170926210885984,0.010288258438538669,0.003338784057605914,-0.00453525462976971,-0.012653135293384325,-0.020181732330424536,-0.026369197871239487,-0.030961545268804395,-0.03439563732358137,-0.03711853040586177,-0.03940454188035565,-0.041263827702243454,-0.0422798307123158,-0.041893753956864004,-0.03961789843755056,-0.03554372417297259,-0.030433222449745147,-0.024916313253380624,-0.01944004668506225,-0.01398409829621288,-0.008609435163455807,-0.003255088329435298,0.0019265370525066905,0.006569680525654927,0.010125700464570347,0.012523471329805969,0.014565639574239234,0.017390136092080937,0.02200280166911485,0.028251234286553094,0.03501782749876201,0.0405245807399461,0.04306459139968104,0.04151010334626087,0.03596271374613876,0.027164108244677018,0.016597651863492064,0.006600160929412505,-0.0009081166743370741,-0.005134697346078616,-0.006648545906006701,-0.006516462066687821,-0.00594750100795812,-0.005581739297421262,-0.005530939460373051,-0.0053378985750038984,-0.004199973322990429,-0.0014465992100416386,0.002668220817136538,0.0068338419351845515,0.00939417704349663,0.009627858049268677,0.0077076051507575846,0.004730711002503691,0.002211018522237761,0.001103573047071055,0.0015810954021712787,0.003166063232438208,0.005137112833443444,0.006335999519882881,0.005990557242636656,0.0037248658283442196,-0.0006642759519197107,-0.006912707315536325,-0.01407553950748561,-0.021228215744254462,-0.02738520715041997,-0.031449225459817494,-0.033338997954571015,-0.03351171188371977,-0.03269890320655375,-0.03165242606183196,-0.03072785799392421,-0.02948833620236839,-0.027507122496342143,-0.024509912049351688,-0.020801496360756514,-0.01717435339003737,-0.014522583339560698,-0.013150977708685995,-0.012907134478625378,-0.013313535682654316,-0.013862182950290706,-0.01399426052050145,-0.01330337972747388,-0.011545691072039245,-0.008883752528165863,-0.00589670117090991,-0.003356688630442533,-0.0016294803787654745,-0.00035947417122286757,0.0009816526858623734,0.002779981461699903,0.004730711002503691,0.006468077090093624,0.007839688990076464,0.008835373820679804,0.00939417704349663,0.009607533600691533,0.00984121460646358,0.010227297631023514,0.010623542879872017,0.010979145500674373,0.011426183063641324,0.01236090708672951,0.013661395954908624,0.015083806438118047,0.016384289037189022,0.017471415079065095,0.01818262032066981,0.01831469789088055,0.01826389930765397,0.018060698705639498,0.017430778720127084,0.016170926210885984,0.014210036953436877,0.011710668921748092,0.008957295435710114,0.00653920012189735,0.005116792773241997,0.0049440719480742905,0.005807676700823634,0.0070878411204256045,0.007931130201349194,0.008124168579075093,0.007717767375046154,0.007148801927940759,0.006783043351957969,0.006640803557458653,0.006376642147929029,0.005594315755253034,0.0042836690511610445,0.0022414989259953383,-0.0009182770178932044,-0.00546997927976871,-0.011078329060495152,-0.01670699137849328,-0.021136774532981732,-0.023402467828006607,-0.023432948231764186,-0.021959739165328177,-0.01962292910760771,-0.01647331037272123,-0.012439772467081283,-0.0075731077048063165,-0.002127322794067145,0.0038163064127061377,0.009861539055040723,0.015469883193569844,0.0201028732191809,0.023364245075700982,0.025477536351937974,0.026442740778783738,0.026940583194085408,0.027672106615159127,0.028931959124400226,0.03061853101713927,0.03186821503298366,0.03174628714884522,0.029724443352989096,0.026280182804815415,0.02278512367341515,0.02030607382119537,0.01881254030618222,0.01781685547557888,0.01654685328026548,0.014982203002556743,0.013793479794227504,0.014138920190741288,0.01633349045396244,0.0192392659587883,0.021057915421738092,0.020478787750344125,0.017125974682551313,0.01157858508242921,0.005015193099145575,-0.0016802808427244986,-0.008324955574457175,-0.015345547971907148,-0.022559178747083016,-0.029630575996867706,-0.035655483563714334,-0.0395366194505664,-0.04093870548519868,-0.040247824692171114,-0.03817517604398027,-0.03536084801953527,-0.03245506624560127,-0.029762659836186586,-0.027405525329888977,-0.02475374901030417,-0.020781171912179375,-0.014674985358348583,-0.006536786515264964,0.00258694057633075,0.010958821052097232,0.017217415893824046,0.021271271978933,0.023089927710990922,0.022886727108976455,0.021332239055556288,0.019462784740271778,0.018030218301881923,0.016800852465506534,0.015114286841875624,0.012472672746579384,0.009160496037724583,0.005777196297066056,0.002759661401498456,-0.00025787368214238873,-0.0036005299797707098,-0.00663838368171813,-0.00838591638197233,-0.00833511152963761,-0.0065875850984915465,-0.0039053315097032277,-0.0014465992100416386,0.00017900855255494096,0.001083252986869608,0.002038297697070055,0.003348944401162044,0.004649430761697903,0.005005032755589446,0.0036842257079413255,0.0006768511559298555,-0.003092527220912909,-0.006242143448156135,-0.007786470531109357,-0.007247985487761538,-0.005266778050843426,-0.003397328750845427,-0.003458289558360581,-0.006303105509492916,-0.01105800461191801,-0.016056746944403722,-0.019927726876075347,-0.0221222971392965,-0.02294526177164295,-0.022863982784658787,-0.02254902279190258,-0.022010537748554763,-0.021045333321709,-0.01940956628130467,-0.017113398851630355,-0.014502265160091692,-0.01196224823124862,-0.009920079986815353,-0.007877911742382088,-0.005429339159365817,-0.0024016445471528995,0.001062932926668161,0.0042430289307581505,0.006600160929412505,0.007860007169545468,0.008164811207121241,0.007545047176789263,0.005919436718476185,0.003379424178008808,0.00031108919462867154,-0.002381323860040639,-0.004179653262788982,-0.005012776984869933,-0.0053582186352053454,-0.006018622159029405,-0.007634068512321471,-0.010509363613389756,-0.014055221328016605,-0.017143872986279795,-0.018932042045472008,-0.019043807705321884,-0.017499475607082152,-0.01469530353781759,-0.011200244406417325,-0.007705191544125196,-0.004484454165810686,-0.0016091603185640275,0.0009105321617019022,0.0031863832926396552,0.005187913297402468,0.006681439916396665,0.007636488388061994,0.00826640837357441,0.009363696639739053,0.01178178568444368,0.015703570468450025,0.02030607382119537,0.024248170515562585,0.026412266644134298,0.02611761856173896,0.023435368107504708,0.019178305151273146,0.014565639574239234,0.010430498233037983,0.0070878411204256045,0.004232869214112834,0.0014083745770035727,-0.0015583598546050036,-0.004514934569568263,-0.007014304481989491,-0.008284312946411026,-0.007359751147611411,-0.004291413280441533,0.0003415693476219233,0.005726395833107032,0.011172183878400271,0.016069329044432815,0.019879348168589286,0.02217552186737174,0.022917201243625895,0.022520962263885527,0.021667517227781503,0.020864870774904055,0.02042798916711754,0.020295911596906798,0.02038735280817953,0.02070231280093574,0.020986792389934367,0.020407670987648535,0.01789813446256304,0.013011151520819069,0.006478239314382196,-0.00016643316047155205,-0.005246458617552794,-0.007501990942110727,-0.006628227726537695,-0.003417649437957687,0.000595570601668661,0.004212549153911387,0.006671283961216231,0.007646644343242429,0.007453605965516532,0.006630641333170082,0.005624795532099797,0.004557990177335985,0.003227023413042549,0.0016522159263317497,-0.00023755355924986042,-0.002655645613126393,-0.005581739297421262,-0.00854847435594065,-0.01098688784922242,-0.01229753267258197,-0.01229753267258197,-0.011535528847750675,-0.010600804824662488,-0.009950560390572932,-0.009960722614861502,-0.010296000787086715,-0.010407760177828454,-0.00998104079433051,-0.008924395156212012,-0.007390231551368989,-0.005490299339970157,-0.003803731208695993,-0.0024626041008464264,-0.0012129182042695918,0.00045332986680312557,0.0025463004559278563,0.00445638987632875,0.005736556176663162,0.0062648783688115965,0.005726395833107032,0.003978867521228527,0.0011848532878768428,-0.0018123615474893108,-0.004118692455273827,-0.0053683783518506615,-0.00589670117090991,-0.006231983104600004,-0.0068720646874901765,-0.00817255355566929,-0.010336643415132863,-0.01357769709218394,-0.017489319651901716,-0.021258696148012037,-0.02396127105082343,-0.02481470981781932,-0.02345326641123319,-0.019958207279832923,-0.015162665549361683,-0.01006231978131467,-0.006069422622988429,-0.003925651569904674,-0.0034989296787634747,-0.0038240512688974397,-0.0035598898593678157,-0.0018225212641346275,0.0016014154623727255,0.006620479108881511,0.012655548900016711,0.019320544945772462,0.026066819978512377,0.03181741644975708,0.03545470910654853,0.036775522423304785,0.03633863454641013,0.03473334790976338,0.03218317502573988,0.028921796900111655,0.025467380396757538,0.022317761661871056,0.01988951039287786,0.01843661950591086,0.018020056077593348,0.017959095270078194,0.0169024496319597,0.013661395954908624,0.008012409188333356,0.00045332986680312557,-0.007918554370428236,-0.01558938493285963,-0.021197735340496886,-0.024245750639822063,-0.024875670625334474,-0.02364630478895909,-0.020994534738482416,-0.01737755399205184,-0.013486255880911208,-0.010102962409360816,-0.007816950934866933,-0.006912707315536325,-0.007512146897291162,-0.00924951737325679,-0.011454249860766513,-0.01337449649016947,-0.01449210293580312,-0.01437018132077281,-0.01299857568989811,-0.010671927856466213,-0.007796632755397928,-0.0047282955151388625,-0.0015177197342021095,0.0016928560467346435,0.00466975082189935,0.007280885767259639,0.009536416837995944,0.011172183878400271,0.011893545075185417,0.011517624274914056,0.010714984091144748,0.010674341463098602,0.01236090708672951,0.016170926210885984,0.021931678637311127,0.028586512458778305,0.03441838164789904,0.03793376522787644,0.03835032865619395,0.03574935718894386,0.030638849196608278,0.023435368107504708,0.014900924015572584,0.006061677766797127,-0.001903801504940415,-0.008304631125880034,-0.012866498119687365,-0.015619865336617205,-0.016950834608553896,-0.017367398036871404,-0.017641715401581465,-0.018190362669217856,-0.019043807705321884,-0.019978525459301934,-0.021025015142239995,-0.021665097352040977,-0.02164477917257197,-0.021329812910707627,-0.021177417161027876,-0.02118757311620831,-0.02082181454022552,-0.019958207279832923,-0.018962522449229583,-0.018058278829898973,-0.01710323662734178,-0.015690988368420932,-0.013770741739017973,-0.011616807834734835,-0.009645762622105297,-0.00833511152963761,-0.00796935295365482,-0.008182709510849725,-0.00886343434869686,-0.010600804824662488,-0.01398409829621288,-0.018363082867474748,-0.022071498556069918,-0.02303670298291568,-0.019673727690834295,-0.011870813289084025,-0.001243398608027169,0.009617695824980106,0.01856870334522974,0.024837454142136988,0.028423954484809985,0.029734599308169532,0.0293485162836096,0.0274892304617218,0.024166891528578423,0.019452628785091342,0.013427714949136577,0.006183598128005808,-0.0015583598546050036,-0.008578954759698228,-0.013719936886683255,-0.01617866855943403,-0.015690988368420932,-0.013018893869367115,-0.009594957769770575,-0.006628227726537695,-0.004555574689971157,-0.003031567667219382,-0.0015989999750078974,-0.00012579297737757683,0.0015810954021712787,0.0031355834555914447,0.0043141488280078084,0.004761191406261268,0.004385269352168279,0.003145743172236761,0.0014083745770035727,-0.0003899543242161193,-0.0017514007399741563,-0.0025642050287644747,-0.002513405191716264,-0.0014262791498401916,0.0008190915773399842,0.004273508707604914,0.008804893416922227,0.013722356762423778,0.018406139102153284,0.022470163680658944,0.025894099780255486,0.028728752253277617,0.03067948555554629,0.03115700979137896,0.029683800724942946,0.026483383406829885,0.022612403475158256,0.019422148381333767,0.017512057707111246,0.016557009235445914,0.01567308379558431,0.014199880998256443,0.011883389120004983,0.008794731192633656,0.005431754646730644,0.0028409416423042437,0.001570935685525962,0.0015912557457274088,0.0024954999919688317,0.003592785123579408,0.004090628165791891,0.003094942708277737,0.0006158906618701079,-0.0025642050287644747,-0.005449659219567264,-0.007369907102791847,-0.00816239133138072,-0.007908392146139665,-0.006943187719293902,-0.005713820629096887,-0.004474294449165369,-0.003671650503931181,-0.0037935708651398625,-0.00525661833419811,-0.007725509723594202,-0.010245202203860134,-0.01168793086653856,-0.011474568040235519,-0.009615282218347718,-0.006404702675946083,-0.0028588462151408625,0.00017900855255494096,0.00213989799807729,0.0031863832926396552,0.0034810244790160426,0.0032168636963972323,0.0029933424072705024,0.0031559035157928917,0.0037655065756579268,0.004751031062705138,0.006214078531763386,0.00827657059786298,0.010775944898659904,0.013072112328334221,0.013742674941892784,0.011355066300945734,0.005198073640958597,-0.0036614901603750504,-0.012592174485869169,-0.018962522449229583,-0.02136029958357334,-0.02015125192666696,-0.01710323662734178,-0.014512421115272128,-0.014339700917015233,-0.016747634006539426,-0.020303653945454844,-0.022437257132052708,-0.021279014327481045,-0.016747634006539426,-0.010275682607617711,-0.0037529307447369685,0.001286454215794891,0.004537670117134538,0.006386798103109464,0.007270723542971068,0.007362164754243799,0.00674240072391182,0.0055841554116969035,0.003999187581429974,0.0026783805337818544,0.002078937817472949,0.002322779166801126,0.0032575038168001264,0.00472055065894756,0.006701758095865672,0.009048730377874709,0.01108074266712754,0.012035784869684733,0.011304261448611016,0.008449290796119873,0.0037553462321017967,-0.0020460425532613574,-0.00784743133862451,-0.0123889738838547,-0.014339700917015233,-0.01299857568989811,-0.008690714150439965,-0.0025438849685630277,0.003846786816463715,0.008916652807663966,0.011548104678671633,0.011609065486186787,0.009820896426994576,0.0075348849525006915,0.0055536750079393255,0.0041617486899523624,0.003054302587874843,0.0019265370525066905,0.0005854105088768561,-0.0008065163733298393,-0.0019647623124555698,-0.0024016445471528995,-0.0019139618484965452,-0.0004813947205047933,0.001398214860358256,0.0028104618654574798,0.003054302587874843,0.00215005834163342,0.000880051757944325,0.00012820827666916088,0.00019932861275638792,0.0007581313967356434,0.0013372540528431016,0.0018655768719023492,0.002454859871565938,0.003033982527673396,0.003582625406934091,0.004202388183444443,0.004568150520892115,0.004527510400489222,0.004121107942638655,0.0036131058106916684,0.0032067033528411022,0.0031863832926396552,0.003938226773914819,0.005380954809682433,0.0072300809149249195,0.009130015633967006,0.010511777220022143,0.01054225762377972,0.009211294620951167,0.006793199307138404,0.0038975872804227385,0.001103573047071055,-0.00131451913218764,-0.0030417273838646984,-0.004281253563796217,-0.005195658153593769,-0.00590686151446604,-0.006374222272188506,-0.006536786515264964,-0.006262463508357582,-0.005744300405943651,-0.005297258454601004,-0.005175338093392322,-0.005510619400171604,-0.005967821695070381,-0.006252303164801451,-0.00656726691902254,-0.007420705686018431,-0.009025998591773315,-0.010905602593130123,-0.012378811659566129,-0.01280553731217221,-0.011677768642249989,-0.009097115354468907,-0.005876381110708463,-0.0030112469801071213,-0.0014770796137992157,-0.0017920414872878638,-0.003671650503931181,-0.006475825707749809,-0.009574639590301571,-0.01239913610814327,-0.01427874010950008,-0.01482738737713647,-0.01379105991848698,-0.011423769457008938,-0.008142073151911712,-0.0047689356355417566,-0.0017310806797727093,0.0009105321617019022,0.0026783805337818544,0.003338784057605914,0.0032778238770015734,0.002871422046061821,0.0023329395103572565,0.0016928560467346435,0.0010730926433134777,0.0009816526858623734,0.0015810954021712787,0.002871422046061821,0.004507190340287775,0.006315681340413875,0.008215609790347826,0.009932655817736313,0.011263625089673004,0.012249147695987773,0.012879073950608323,0.013224514347122109,0.013620759595970611,0.014210036953436877,0.014982203002556743,0.01564260966093487,0.015855966218129777,0.015043163810071898,0.013021313745107638,0.009993616625251467,0.006783043351957969,0.004436069816127303,0.003674065991296009,0.004557990177335985,0.006569680525654927,0.00856105018686161,0.009536416837995944,0.008794731192633656,0.006183598128005808,0.00258694057633075,-0.0007353958491693683,-0.0025642050287644747,-0.002127322794067145,0.00031108919462867154,0.00328798359364689,0.005126953116798127,0.00439542969572441,0.00047364998969565386,-0.00540901909916437,-0.010671927856466213,-0.012978257510429103,-0.011494886219704526,-0.007329270743853835,-0.0029807672032603574,-0.0005220349662898499,-0.00043059450731009456,-0.001182438427422828,-0.00029851386523636403,0.003592785123579408,0.009892019458798302,0.0169024496319597,0.022348242065628632,0.024268488695031593,0.02188088005408454,0.016059166820144247,0.008957295435710114,0.0028612617025056907,-0.0007861963131283924,-0.0019444422522541225,-0.0016498004389669215,-0.0008979569576917575,-8.515279428360155e-05,0.000971492342306243,0.002617420980088327,0.004791671810018845,0.007016724357730015,0.008398492212893289,0.008093688175317516,0.005797516984178317,0.0014998151613654907,-0.0047689356355417566,-0.011820008436749305,-0.017966837618626243,-0.021787018967071286,-0.02257950319566016,-0.02035445252868143,-0.01609738957244987,-0.011129127643721736,-0.007400387506549424,-0.005977982038626511,-0.0066180655022491245,-0.00768487336465619,-0.007359751147611411,-0.0047790953521870735,-0.0002883537724445592,0.004862791707268502,0.009536416837995944,0.013305793334106268,0.016607814087780635,0.020031750187377174,0.02374017214508048,0.027133627840919442,0.029124997502126125,0.028881154272065505,0.026452903003072306,0.02294768791649161,0.019300226766303455,0.016140452076236544,0.013661395954908624,0.01178178568444368,0.01004441520847805,0.0081444867585441,0.00576703658042074,0.002851101985860374,-0.0005017147807062402,-0.00409837239507238,-0.007806788710578363,-0.011362808649493782,-0.014532745563849269,-0.017529956010839728,-0.020577971310164905,-0.023473584590702194,-0.02563767445016577,-0.026704482312572834,-0.02695848149781389,-0.027019442305329044,-0.027507122496342143,-0.02836056753244617,-0.028502807326945486,-0.026795923523845567,-0.022681100362113325,-0.016900036025327313,-0.010956407445464843,-0.006211662417487745,-0.003417649437957687,-0.0024016445471528995,-0.002503244848160134,-0.0030112469801071213,-0.003031567667219382,-0.0020663626134628044,-9.531282438432502e-05,0.002414219751163044,0.005005032755589446,0.006976081729683867,0.007473924144985537,0.005868636881427974,0.00259710091988688,-0.0008776368974903104,-0.0030417273838646984,-0.0032855681062820617,-0.0017514007399741563,0.0009511722821047961,0.004131267659283972,0.006955763550214861,0.008652491398134341,0.008886172403906389,0.007880325349014476,0.00576703658042074,0.002353259570558703,-0.0020866826736642514,-0.007014304481989491,-0.011535528847750675,-0.014217779301984926,-0.013740261335260396,-0.00986928140358877,-0.0039053315097032277,0.0019773375164657144,0.006081997826998574,0.007595845760015846,0.0068338419351845515,0.004984712695387999,0.0035318249429750668,0.0027291809977408785,0.0015607753419698317,-0.0014059590896387446,-0.006465663483461238,-0.012277214493112963,-0.016544433404524956,-0.017956681663445807,-0.016341232802510486,-0.013059536497413263,-0.010021683422376656,-0.008609435163455807,-0.00879231758600127,-0.009808320596073616,-0.010722726439692798,-0.010600804824662488,-0.008721194554197544,-0.005083897509030404,-0.0006134753625785239,0.0038163064127061377,0.00715896415222933,0.008652491398134341,0.008388329988604717,0.006803361531426974,0.004740871346059821,0.002983182690625186,0.0013169339926416548,-0.001040197379101886,-0.004647015274333075,-0.009188556565741636,-0.013415139118215619,-0.015711306547889936,-0.015396346555133729,-0.0128766540748678,-0.009015836367484745,-0.005022937328426064,-0.0019749220291008862,-0.00012579297737757683,0.0010730926433134777,0.002343099227002573,0.004151587719485419,0.007037042537199021,0.011466825691687473,0.01733933750885435,0.024065288093017122,0.030516921312469834,0.035586792945867404,0.03852304885445085,0.0396609734795535,0.040351860541689204,0.042312749799138315,0.04677301335738434,0.0536615344537317,0.06185054441825818,0.0697042699414513,0.07614577855126425,0.08056537440503159,0.08270915862324243,0.08231295098904275,0.07946809240797509,0.07454044803086056,0.06851552165668952,0.06229758825033327,0.056486030971573405,0.050958959550920314,0.045289648335767894,0.03921392964747841,0.032701335620510544,0.02572137958199859,0.0183553405189267,0.010694659642567607,0.0028917421062632674,-0.004880696280105122,-0.012358493480097123,-0.019206365679290203,-0.025322714457409565,-0.0308802600127121,-0.03589932679377496,-0.040197026108944524,-0.04367176079176765,-0.04629305043848674,-0.04827426414451299,-0.04962554532681055,-0.05042819804879613,-0.05074315804155234,-0.05048915258720315,-0.04954426633982639,-0.04826410192022442,-0.04738018274947096,-0.04726841708962108,-0.047593539306665864,-0.04765450011418101,-0.04676041245003084,-0.04488080844867403,-0.042472875359149835,-0.040044630359264775,-0.0377789370642399,-0.0356453276085339,-0.03346091330049318,-0.031164745870818862,-0.0290209741908243,-0.02717184432411693,-0.02555639546318161,-0.02412382902479175,-0.022813184201432204,-0.021624454723994827,-0.020425569291377017,-0.019257164262516783,-0.018088759233656552,-0.016341232802510486,-0.013567541137003505,-0.00977784019231604,-0.005581739297421262,-0.0017514007399741563,0.001418534920559703,0.003602945467135538,0.004568150520892115,0.004171908406597679,0.002434539811364491,-0.00041027438441756627,-0.00361069032332684,-0.006475825707749809,-0.008396072337152765,-0.009066634950711328,-0.008680551926151395,-0.007603588108563894,-0.0064148649002346535,-0.005612220328089653,-0.005652859821581733,-0.007237829532581103,-0.01043824058158603,-0.014349863141303806,-0.017570598638885875,-0.018993009122095297,-0.017946519439157236,-0.01457338192278728,-0.009798158371785045,-0.004789255695743204,-0.0005728351794845486,0.002271978702842102,0.003938226773914819,0.005035513159347022,0.006234398591964833,0.007799046362030315,0.009749779664298984,0.011730987101217095,0.013326111513575274,0.014494522811543642,0.01513460502134463,0.015256526636374938,0.015012683406314321,0.01464692483033153,0.014240517357194454,0.0138849147363921,0.013864596556923094,0.014108439786983711,0.014758684221073267,0.015571486629131147,0.016496054697038895,0.017288538925627768,0.0178676603279136,0.018202938500138814,0.018578859300410176,0.019401823932756624,0.020854714819723626,0.02287656488468788,0.025040654744151458,0.02717427046896559,0.02908436114318811,0.03038484374225909,0.030669329600365856,0.030008922941987728,0.0283731559015834,0.025375939185484805,0.021200155216237408,0.016424931665235173,0.011273781044853439,0.005868636881427974,0.000859731697742878,-0.002736925853932181,-0.004067892618225617,-0.0031128479080251696,-0.0005220349662898499,0.003145743172236761,0.007199600511167342,0.010938502872628224,0.013630915551151047,0.014667243009800537,0.014016998575710978,0.012127226080957463,0.009942818042024883,0.008347687360558569,0.0077584037339841665,0.008256252418393974,0.00918081421719359,0.0095973776455111,0.008662653622422913,0.006346161744171452,0.0030644629314309736,-3.435253093603774e-05,-0.0017209209631273926,-0.0012535583246724856,0.0015302949382122544,0.006081997826998574,0.011233144685915426,0.016099809448190394,0.01984886776483171,0.02188088005408454,0.02217552186737174,0.021159518857299393,0.01927990858683445,0.016892293676779264,0.014230361402014021,0.011314423672899586,0.008185129386590249,0.005198073640958597,0.002607260636532197,0.0005752504787761327
